subject_id,minute_index,annotation_sample,annotation_time_sec,annotation_time_min,symbol,label,expected_window_start_sample,expected_window_end_sample
a01,0,0,0.0,0.0,N,0,0,6000
a01,1,6000,60.0,1.0,N,0,6000,12000
a01,2,12000,120.0,2.0,N,0,12000,18000
a01,3,18000,180.0,3.0,N,0,18000,24000
a01,4,24000,240.0,4.0,N,0,24000,30000
a01,5,30000,300.0,5.0,N,0,30000,36000
a01,6,36000,360.0,6.0,N,0,36000,42000
a01,7,42000,420.0,7.0,N,0,42000,48000
a01,8,48000,480.0,8.0,N,0,48000,54000
a01,9,54000,540.0,9.0,N,0,54000,60000
a01,10,60000,600.0,10.0,N,0,60000,66000
a01,11,66000,660.0,11.0,N,0,66000,72000
a01,12,72000,720.0,12.0,N,0,72000,78000
a01,13,78000,780.0,13.0,A,1,78000,84000
a01,14,84000,840.0,14.0,A,1,84000,90000
a01,15,90000,900.0,15.0,A,1,90000,96000
a01,16,96000,960.0,16.0,A,1,96000,102000
a01,17,102000,1020.0,17.0,A,1,102000,108000
a01,18,108000,1080.0,18.0,A,1,108000,114000
a01,19,114000,1140.0,19.0,A,1,114000,120000
a01,20,120000,1200.0,20.0,A,1,120000,126000
a01,21,126000,1260.0,21.0,A,1,126000,132000
a01,22,132000,1320.0,22.0,A,1,132000,138000
a01,23,138000,1380.0,23.0,A,1,138000,144000
a01,24,144000,1440.0,24.0,A,1,144000,150000
a01,25,150000,1500.0,25.0,A,1,150000,156000
a01,26,156000,1560.0,26.0,A,1,156000,162000
a01,27,162000,1620.0,27.0,A,1,162000,168000
a01,28,168000,1680.0,28.0,A,1,168000,174000
a01,29,174000,1740.0,29.0,A,1,174000,180000
a01,30,180000,1800.0,30.0,A,1,180000,186000
a01,31,186000,1860.0,31.0,A,1,186000,192000
a01,32,192000,1920.0,32.0,A,1,192000,198000
a01,33,198000,1980.0,33.0,A,1,198000,204000
a01,34,204000,2040.0,34.0,A,1,204000,210000
a01,35,210000,2100.0,35.0,A,1,210000,216000
a01,36,216000,2160.0,36.0,A,1,216000,222000
a01,37,222000,2220.0,37.0,A,1,222000,228000
a01,38,228000,2280.0,38.0,A,1,228000,234000
a01,39,234000,2340.0,39.0,A,1,234000,240000
a01,40,240000,2400.0,40.0,A,1,240000,246000
a01,41,246000,2460.0,41.0,A,1,246000,252000
a01,42,252000,2520.0,42.0,A,1,252000,258000
a01,43,258000,2580.0,43.0,A,1,258000,264000
a01,44,264000,2640.0,44.0,A,1,264000,270000
a01,45,270000,2700.0,45.0,A,1,270000,276000
a01,46,276000,2760.0,46.0,A,1,276000,282000
a01,47,282000,2820.0,47.0,A,1,282000,288000
a01,48,288000,2880.0,48.0,A,1,288000,294000
a01,49,294000,2940.0,49.0,A,1,294000,300000
a01,50,300000,3000.0,50.0,A,1,300000,306000
a01,51,306000,3060.0,51.0,A,1,306000,312000
a01,52,312000,3120.0,52.0,A,1,312000,318000
a01,53,318000,3180.0,53.0,A,1,318000,324000
a01,54,324000,3240.0,54.0,A,1,324000,330000
a01,55,330000,3300.0,55.0,A,1,330000,336000
a01,56,336000,3360.0,56.0,A,1,336000,342000
a01,57,342000,3420.0,57.0,A,1,342000,348000
a01,58,348000,3480.0,58.0,A,1,348000,354000
a01,59,354000,3540.0,59.0,A,1,354000,360000
a01,60,360000,3600.0,60.0,A,1,360000,366000
a01,61,366000,3660.0,61.0,A,1,366000,372000
a01,62,372000,3720.0,62.0,A,1,372000,378000
a01,63,378000,3780.0,63.0,A,1,378000,384000
a01,64,384000,3840.0,64.0,A,1,384000,390000
a01,65,390000,3900.0,65.0,A,1,390000,396000
a01,66,396000,3960.0,66.0,A,1,396000,402000
a01,67,402000,4020.0,67.0,A,1,402000,408000
a01,68,408000,4080.0,68.0,A,1,408000,414000
a01,69,414000,4140.0,69.0,A,1,414000,420000
a01,70,420000,4200.0,70.0,A,1,420000,426000
a01,71,426000,4260.0,71.0,A,1,426000,432000
a01,72,432000,4320.0,72.0,A,1,432000,438000
a01,73,438000,4380.0,73.0,A,1,438000,444000
a01,74,444000,4440.0,74.0,A,1,444000,450000
a01,75,450000,4500.0,75.0,A,1,450000,456000
a01,76,456000,4560.0,76.0,A,1,456000,462000
a01,77,462000,4620.0,77.0,A,1,462000,468000
a01,78,468000,4680.0,78.0,A,1,468000,474000
a01,79,474000,4740.0,79.0,A,1,474000,480000
a01,80,480000,4800.0,80.0,A,1,480000,486000
a01,81,486000,4860.0,81.0,A,1,486000,492000
a01,82,492000,4920.0,82.0,A,1,492000,498000
a01,83,498000,4980.0,83.0,A,1,498000,504000
a01,84,504000,5040.0,84.0,A,1,504000,510000
a01,85,510000,5100.0,85.0,A,1,510000,516000
a01,86,516000,5160.0,86.0,A,1,516000,522000
a01,87,522000,5220.0,87.0,A,1,522000,528000
a01,88,528000,5280.0,88.0,A,1,528000,534000
a01,89,534000,5340.0,89.0,A,1,534000,540000
a01,90,540000,5400.0,90.0,A,1,540000,546000
a01,91,546000,5460.0,91.0,A,1,546000,552000
a01,92,552000,5520.0,92.0,A,1,552000,558000
a01,93,558000,5580.0,93.0,A,1,558000,564000
a01,94,564000,5640.0,94.0,A,1,564000,570000
a01,95,570000,5700.0,95.0,A,1,570000,576000
a01,96,576000,5760.0,96.0,A,1,576000,582000
a01,97,582000,5820.0,97.0,A,1,582000,588000
a01,98,588000,5880.0,98.0,A,1,588000,594000
a01,99,594000,5940.0,99.0,A,1,594000,600000
a01,100,600000,6000.0,100.0,A,1,600000,606000
a01,101,606000,6060.0,101.0,A,1,606000,612000
a01,102,612000,6120.0,102.0,A,1,612000,618000
a01,103,618000,6180.0,103.0,A,1,618000,624000
a01,104,624000,6240.0,104.0,A,1,624000,630000
a01,105,630000,6300.0,105.0,A,1,630000,636000
a01,106,636000,6360.0,106.0,A,1,636000,642000
a01,107,642000,6420.0,107.0,A,1,642000,648000
a01,108,648000,6480.0,108.0,A,1,648000,654000
a01,109,654000,6540.0,109.0,A,1,654000,660000
a01,110,660000,6600.0,110.0,A,1,660000,666000
a01,111,666000,6660.0,111.0,A,1,666000,672000
a01,112,672000,6720.0,112.0,A,1,672000,678000
a01,113,678000,6780.0,113.0,A,1,678000,684000
a01,114,684000,6840.0,114.0,A,1,684000,690000
a01,115,690000,6900.0,115.0,A,1,690000,696000
a01,116,696000,6960.0,116.0,A,1,696000,702000
a01,117,702000,7020.0,117.0,A,1,702000,708000
a01,118,708000,7080.0,118.0,A,1,708000,714000
a01,119,714000,7140.0,119.0,A,1,714000,720000
a01,120,720000,7200.0,120.0,A,1,720000,726000
a01,121,726000,7260.0,121.0,A,1,726000,732000
a01,122,732000,7320.0,122.0,A,1,732000,738000
a01,123,738000,7380.0,123.0,A,1,738000,744000
a01,124,744000,7440.0,124.0,A,1,744000,750000
a01,125,750000,7500.0,125.0,A,1,750000,756000
a01,126,756000,7560.0,126.0,A,1,756000,762000
a01,127,762000,7620.0,127.0,A,1,762000,768000
a01,128,768000,7680.0,128.0,A,1,768000,774000
a01,129,774000,7740.0,129.0,A,1,774000,780000
a01,130,780000,7800.0,130.0,A,1,780000,786000
a01,131,786000,7860.0,131.0,A,1,786000,792000
a01,132,792000,7920.0,132.0,A,1,792000,798000
a01,133,798000,7980.0,133.0,A,1,798000,804000
a01,134,804000,8040.0,134.0,A,1,804000,810000
a01,135,810000,8100.0,135.0,A,1,810000,816000
a01,136,816000,8160.0,136.0,A,1,816000,822000
a01,137,822000,8220.0,137.0,A,1,822000,828000
a01,138,828000,8280.0,138.0,A,1,828000,834000
a01,139,834000,8340.0,139.0,A,1,834000,840000
a01,140,840000,8400.0,140.0,A,1,840000,846000
a01,141,846000,8460.0,141.0,A,1,846000,852000
a01,142,852000,8520.0,142.0,A,1,852000,858000
a01,143,858000,8580.0,143.0,A,1,858000,864000
a01,144,864000,8640.0,144.0,A,1,864000,870000
a01,145,870000,8700.0,145.0,A,1,870000,876000
a01,146,876000,8760.0,146.0,A,1,876000,882000
a01,147,882000,8820.0,147.0,A,1,882000,888000
a01,148,888000,8880.0,148.0,A,1,888000,894000
a01,149,894000,8940.0,149.0,A,1,894000,900000
a01,150,900000,9000.0,150.0,A,1,900000,906000
a01,151,906000,9060.0,151.0,A,1,906000,912000
a01,152,912000,9120.0,152.0,A,1,912000,918000
a01,153,918000,9180.0,153.0,A,1,918000,924000
a01,154,924000,9240.0,154.0,A,1,924000,930000
a01,155,930000,9300.0,155.0,A,1,930000,936000
a01,156,936000,9360.0,156.0,A,1,936000,942000
a01,157,942000,9420.0,157.0,A,1,942000,948000
a01,158,948000,9480.0,158.0,A,1,948000,954000
a01,159,954000,9540.0,159.0,A,1,954000,960000
a01,160,960000,9600.0,160.0,A,1,960000,966000
a01,161,966000,9660.0,161.0,A,1,966000,972000
a01,162,972000,9720.0,162.0,A,1,972000,978000
a01,163,978000,9780.0,163.0,A,1,978000,984000
a01,164,984000,9840.0,164.0,A,1,984000,990000
a01,165,990000,9900.0,165.0,A,1,990000,996000
a01,166,996000,9960.0,166.0,A,1,996000,1002000
a01,167,1002000,10020.0,167.0,A,1,1002000,1008000
a01,168,1008000,10080.0,168.0,A,1,1008000,1014000
a01,169,1014000,10140.0,169.0,A,1,1014000,1020000
a01,170,1020000,10200.0,170.0,A,1,1020000,1026000
a01,171,1026000,10260.0,171.0,A,1,1026000,1032000
a01,172,1032000,10320.0,172.0,A,1,1032000,1038000
a01,173,1038000,10380.0,173.0,A,1,1038000,1044000
a01,174,1044000,10440.0,174.0,A,1,1044000,1050000
a01,175,1050000,10500.0,175.0,A,1,1050000,1056000
a01,176,1056000,10560.0,176.0,A,1,1056000,1062000
a01,177,1062000,10620.0,177.0,A,1,1062000,1068000
a01,178,1068000,10680.0,178.0,A,1,1068000,1074000
a01,179,1074000,10740.0,179.0,A,1,1074000,1080000
a01,180,1080000,10800.0,180.0,A,1,1080000,1086000
a01,181,1086000,10860.0,181.0,A,1,1086000,1092000
a01,182,1092000,10920.0,182.0,A,1,1092000,1098000
a01,183,1098000,10980.0,183.0,A,1,1098000,1104000
a01,184,1104000,11040.0,184.0,A,1,1104000,1110000
a01,185,1110000,11100.0,185.0,A,1,1110000,1116000
a01,186,1116000,11160.0,186.0,A,1,1116000,1122000
a01,187,1122000,11220.0,187.0,A,1,1122000,1128000
a01,188,1128000,11280.0,188.0,A,1,1128000,1134000
a01,189,1134000,11340.0,189.0,A,1,1134000,1140000
a01,190,1140000,11400.0,190.0,A,1,1140000,1146000
a01,191,1146000,11460.0,191.0,A,1,1146000,1152000
a01,192,1152000,11520.0,192.0,A,1,1152000,1158000
a01,193,1158000,11580.0,193.0,A,1,1158000,1164000
a01,194,1164000,11640.0,194.0,A,1,1164000,1170000
a01,195,1170000,11700.0,195.0,A,1,1170000,1176000
a01,196,1176000,11760.0,196.0,A,1,1176000,1182000
a01,197,1182000,11820.0,197.0,A,1,1182000,1188000
a01,198,1188000,11880.0,198.0,A,1,1188000,1194000
a01,199,1194000,11940.0,199.0,A,1,1194000,1200000
a01,200,1200000,12000.0,200.0,A,1,1200000,1206000
a01,201,1206000,12060.0,201.0,A,1,1206000,1212000
a01,202,1212000,12120.0,202.0,A,1,1212000,1218000
a01,203,1218000,12180.0,203.0,A,1,1218000,1224000
a01,204,1224000,12240.0,204.0,A,1,1224000,1230000
a01,205,1230000,12300.0,205.0,A,1,1230000,1236000
a01,206,1236000,12360.0,206.0,A,1,1236000,1242000
a01,207,1242000,12420.0,207.0,A,1,1242000,1248000
a01,208,1248000,12480.0,208.0,A,1,1248000,1254000
a01,209,1254000,12540.0,209.0,A,1,1254000,1260000
a01,210,1260000,12600.0,210.0,A,1,1260000,1266000
a01,211,1266000,12660.0,211.0,A,1,1266000,1272000
a01,212,1272000,12720.0,212.0,A,1,1272000,1278000
a01,213,1278000,12780.0,213.0,A,1,1278000,1284000
a01,214,1284000,12840.0,214.0,A,1,1284000,1290000
a01,215,1290000,12900.0,215.0,A,1,1290000,1296000
a01,216,1296000,12960.0,216.0,A,1,1296000,1302000
a01,217,1302000,13020.0,217.0,A,1,1302000,1308000
a01,218,1308000,13080.0,218.0,A,1,1308000,1314000
a01,219,1314000,13140.0,219.0,A,1,1314000,1320000
a01,220,1320000,13200.0,220.0,A,1,1320000,1326000
a01,221,1326000,13260.0,221.0,A,1,1326000,1332000
a01,222,1332000,13320.0,222.0,A,1,1332000,1338000
a01,223,1338000,13380.0,223.0,A,1,1338000,1344000
a01,224,1344000,13440.0,224.0,A,1,1344000,1350000
a01,225,1350000,13500.0,225.0,A,1,1350000,1356000
a01,226,1356000,13560.0,226.0,A,1,1356000,1362000
a01,227,1362000,13620.0,227.0,N,0,1362000,1368000
a01,228,1368000,13680.0,228.0,N,0,1368000,1374000
a01,229,1374000,13740.0,229.0,N,0,1374000,1380000
a01,230,1380000,13800.0,230.0,N,0,1380000,1386000
a01,231,1386000,13860.0,231.0,A,1,1386000,1392000
a01,232,1392000,13920.0,232.0,A,1,1392000,1398000
a01,233,1398000,13980.0,233.0,A,1,1398000,1404000
a01,234,1404000,14040.0,234.0,A,1,1404000,1410000
a01,235,1410000,14100.0,235.0,A,1,1410000,1416000
a01,236,1416000,14160.0,236.0,A,1,1416000,1422000
a01,237,1422000,14220.0,237.0,A,1,1422000,1428000
a01,238,1428000,14280.0,238.0,A,1,1428000,1434000
a01,239,1434000,14340.0,239.0,A,1,1434000,1440000
a01,240,1440000,14400.0,240.0,A,1,1440000,1446000
a01,241,1446000,14460.0,241.0,A,1,1446000,1452000
a01,242,1452000,14520.0,242.0,A,1,1452000,1458000
a01,243,1458000,14580.0,243.0,A,1,1458000,1464000
a01,244,1464000,14640.0,244.0,A,1,1464000,1470000
a01,245,1470000,14700.0,245.0,A,1,1470000,1476000
a01,246,1476000,14760.0,246.0,A,1,1476000,1482000
a01,247,1482000,14820.0,247.0,A,1,1482000,1488000
a01,248,1488000,14880.0,248.0,A,1,1488000,1494000
a01,249,1494000,14940.0,249.0,A,1,1494000,1500000
a01,250,1500000,15000.0,250.0,A,1,1500000,1506000
a01,251,1506000,15060.0,251.0,A,1,1506000,1512000
a01,252,1512000,15120.0,252.0,A,1,1512000,1518000
a01,253,1518000,15180.0,253.0,A,1,1518000,1524000
a01,254,1524000,15240.0,254.0,A,1,1524000,1530000
a01,255,1530000,15300.0,255.0,A,1,1530000,1536000
a01,256,1536000,15360.0,256.0,A,1,1536000,1542000
a01,257,1542000,15420.0,257.0,A,1,1542000,1548000
a01,258,1548000,15480.0,258.0,A,1,1548000,1554000
a01,259,1554000,15540.0,259.0,A,1,1554000,1560000
a01,260,1560000,15600.0,260.0,A,1,1560000,1566000
a01,261,1566000,15660.0,261.0,A,1,1566000,1572000
a01,262,1572000,15720.0,262.0,A,1,1572000,1578000
a01,263,1578000,15780.0,263.0,A,1,1578000,1584000
a01,264,1584000,15840.0,264.0,A,1,1584000,1590000
a01,265,1590000,15900.0,265.0,A,1,1590000,1596000
a01,266,1596000,15960.0,266.0,A,1,1596000,1602000
a01,267,1602000,16020.0,267.0,A,1,1602000,1608000
a01,268,1608000,16080.0,268.0,A,1,1608000,1614000
a01,269,1614000,16140.0,269.0,A,1,1614000,1620000
a01,270,1620000,16200.0,270.0,A,1,1620000,1626000
a01,271,1626000,16260.0,271.0,A,1,1626000,1632000
a01,272,1632000,16320.0,272.0,A,1,1632000,1638000
a01,273,1638000,16380.0,273.0,A,1,1638000,1644000
a01,274,1644000,16440.0,274.0,A,1,1644000,1650000
a01,275,1650000,16500.0,275.0,A,1,1650000,1656000
a01,276,1656000,16560.0,276.0,A,1,1656000,1662000
a01,277,1662000,16620.0,277.0,A,1,1662000,1668000
a01,278,1668000,16680.0,278.0,A,1,1668000,1674000
a01,279,1674000,16740.0,279.0,A,1,1674000,1680000
a01,280,1680000,16800.0,280.0,A,1,1680000,1686000
a01,281,1686000,16860.0,281.0,A,1,1686000,1692000
a01,282,1692000,16920.0,282.0,A,1,1692000,1698000
a01,283,1698000,16980.0,283.0,A,1,1698000,1704000
a01,284,1704000,17040.0,284.0,A,1,1704000,1710000
a01,285,1710000,17100.0,285.0,A,1,1710000,1716000
a01,286,1716000,17160.0,286.0,A,1,1716000,1722000
a01,287,1722000,17220.0,287.0,A,1,1722000,1728000
a01,288,1728000,17280.0,288.0,A,1,1728000,1734000
a01,289,1734000,17340.0,289.0,A,1,1734000,1740000
a01,290,1740000,17400.0,290.0,A,1,1740000,1746000
a01,291,1746000,17460.0,291.0,A,1,1746000,1752000
a01,292,1752000,17520.0,292.0,A,1,1752000,1758000
a01,293,1758000,17580.0,293.0,A,1,1758000,1764000
a01,294,1764000,17640.0,294.0,A,1,1764000,1770000
a01,295,1770000,17700.0,295.0,A,1,1770000,1776000
a01,296,1776000,17760.0,296.0,A,1,1776000,1782000
a01,297,1782000,17820.0,297.0,A,1,1782000,1788000
a01,298,1788000,17880.0,298.0,A,1,1788000,1794000
a01,299,1794000,17940.0,299.0,A,1,1794000,1800000
a01,300,1800000,18000.0,300.0,A,1,1800000,1806000
a01,301,1806000,18060.0,301.0,A,1,1806000,1812000
a01,302,1812000,18120.0,302.0,A,1,1812000,1818000
a01,303,1818000,18180.0,303.0,A,1,1818000,1824000
a01,304,1824000,18240.0,304.0,A,1,1824000,1830000
a01,305,1830000,18300.0,305.0,A,1,1830000,1836000
a01,306,1836000,18360.0,306.0,A,1,1836000,1842000
a01,307,1842000,18420.0,307.0,A,1,1842000,1848000
a01,308,1848000,18480.0,308.0,A,1,1848000,1854000
a01,309,1854000,18540.0,309.0,A,1,1854000,1860000
a01,310,1860000,18600.0,310.0,A,1,1860000,1866000
a01,311,1866000,18660.0,311.0,A,1,1866000,1872000
a01,312,1872000,18720.0,312.0,A,1,1872000,1878000
a01,313,1878000,18780.0,313.0,A,1,1878000,1884000
a01,314,1884000,18840.0,314.0,A,1,1884000,1890000
a01,315,1890000,18900.0,315.0,A,1,1890000,1896000
a01,316,1896000,18960.0,316.0,A,1,1896000,1902000
a01,317,1902000,19020.0,317.0,A,1,1902000,1908000
a01,318,1908000,19080.0,318.0,A,1,1908000,1914000
a01,319,1914000,19140.0,319.0,A,1,1914000,1920000
a01,320,1920000,19200.0,320.0,A,1,1920000,1926000
a01,321,1926000,19260.0,321.0,A,1,1926000,1932000
a01,322,1932000,19320.0,322.0,A,1,1932000,1938000
a01,323,1938000,19380.0,323.0,A,1,1938000,1944000
a01,324,1944000,19440.0,324.0,A,1,1944000,1950000
a01,325,1950000,19500.0,325.0,A,1,1950000,1956000
a01,326,1956000,19560.0,326.0,A,1,1956000,1962000
a01,327,1962000,19620.0,327.0,A,1,1962000,1968000
a01,328,1968000,19680.0,328.0,A,1,1968000,1974000
a01,329,1974000,19740.0,329.0,A,1,1974000,1980000
a01,330,1980000,19800.0,330.0,A,1,1980000,1986000
a01,331,1986000,19860.0,331.0,A,1,1986000,1992000
a01,332,1992000,19920.0,332.0,A,1,1992000,1998000
a01,333,1998000,19980.0,333.0,A,1,1998000,2004000
a01,334,2004000,20040.0,334.0,A,1,2004000,2010000
a01,335,2010000,20100.0,335.0,A,1,2010000,2016000
a01,336,2016000,20160.0,336.0,A,1,2016000,2022000
a01,337,2022000,20220.0,337.0,A,1,2022000,2028000
a01,338,2028000,20280.0,338.0,A,1,2028000,2034000
a01,339,2034000,20340.0,339.0,A,1,2034000,2040000
a01,340,2040000,20400.0,340.0,A,1,2040000,2046000
a01,341,2046000,20460.0,341.0,A,1,2046000,2052000
a01,342,2052000,20520.0,342.0,A,1,2052000,2058000
a01,343,2058000,20580.0,343.0,A,1,2058000,2064000
a01,344,2064000,20640.0,344.0,A,1,2064000,2070000
a01,345,2070000,20700.0,345.0,A,1,2070000,2076000
a01,346,2076000,20760.0,346.0,A,1,2076000,2082000
a01,347,2082000,20820.0,347.0,A,1,2082000,2088000
a01,348,2088000,20880.0,348.0,A,1,2088000,2094000
a01,349,2094000,20940.0,349.0,A,1,2094000,2100000
a01,350,2100000,21000.0,350.0,A,1,2100000,2106000
a01,351,2106000,21060.0,351.0,A,1,2106000,2112000
a01,352,2112000,21120.0,352.0,N,0,2112000,2118000
a01,353,2118000,21180.0,353.0,N,0,2118000,2124000
a01,354,2124000,21240.0,354.0,A,1,2124000,2130000
a01,355,2130000,21300.0,355.0,A,1,2130000,2136000
a01,356,2136000,21360.0,356.0,A,1,2136000,2142000
a01,357,2142000,21420.0,357.0,A,1,2142000,2148000
a01,358,2148000,21480.0,358.0,A,1,2148000,2154000
a01,359,2154000,21540.0,359.0,A,1,2154000,2160000
a01,360,2160000,21600.0,360.0,A,1,2160000,2166000
a01,361,2166000,21660.0,361.0,A,1,2166000,2172000
a01,362,2172000,21720.0,362.0,A,1,2172000,2178000
a01,363,2178000,21780.0,363.0,A,1,2178000,2184000
a01,364,2184000,21840.0,364.0,A,1,2184000,2190000
a01,365,2190000,21900.0,365.0,A,1,2190000,2196000
a01,366,2196000,21960.0,366.0,A,1,2196000,2202000
a01,367,2202000,22020.0,367.0,A,1,2202000,2208000
a01,368,2208000,22080.0,368.0,A,1,2208000,2214000
a01,369,2214000,22140.0,369.0,A,1,2214000,2220000
a01,370,2220000,22200.0,370.0,A,1,2220000,2226000
a01,371,2226000,22260.0,371.0,A,1,2226000,2232000
a01,372,2232000,22320.0,372.0,A,1,2232000,2238000
a01,373,2238000,22380.0,373.0,A,1,2238000,2244000
a01,374,2244000,22440.0,374.0,A,1,2244000,2250000
a01,375,2250000,22500.0,375.0,A,1,2250000,2256000
a01,376,2256000,22560.0,376.0,A,1,2256000,2262000
a01,377,2262000,22620.0,377.0,A,1,2262000,2268000
a01,378,2268000,22680.0,378.0,A,1,2268000,2274000
a01,379,2274000,22740.0,379.0,A,1,2274000,2280000
a01,380,2280000,22800.0,380.0,A,1,2280000,2286000
a01,381,2286000,22860.0,381.0,A,1,2286000,2292000
a01,382,2292000,22920.0,382.0,A,1,2292000,2298000
a01,383,2298000,22980.0,383.0,A,1,2298000,2304000
a01,384,2304000,23040.0,384.0,A,1,2304000,2310000
a01,385,2310000,23100.0,385.0,A,1,2310000,2316000
a01,386,2316000,23160.0,386.0,A,1,2316000,2322000
a01,387,2322000,23220.0,387.0,A,1,2322000,2328000
a01,388,2328000,23280.0,388.0,A,1,2328000,2334000
a01,389,2334000,23340.0,389.0,A,1,2334000,2340000
a01,390,2340000,23400.0,390.0,A,1,2340000,2346000
a01,391,2346000,23460.0,391.0,A,1,2346000,2352000
a01,392,2352000,23520.0,392.0,A,1,2352000,2358000
a01,393,2358000,23580.0,393.0,A,1,2358000,2364000
a01,394,2364000,23640.0,394.0,A,1,2364000,2370000
a01,395,2370000,23700.0,395.0,A,1,2370000,2376000
a01,396,2376000,23760.0,396.0,A,1,2376000,2382000
a01,397,2382000,23820.0,397.0,A,1,2382000,2388000
a01,398,2388000,23880.0,398.0,A,1,2388000,2394000
a01,399,2394000,23940.0,399.0,A,1,2394000,2400000
a01,400,2400000,24000.0,400.0,A,1,2400000,2406000
a01,401,2406000,24060.0,401.0,A,1,2406000,2412000
a01,402,2412000,24120.0,402.0,A,1,2412000,2418000
a01,403,2418000,24180.0,403.0,A,1,2418000,2424000
a01,404,2424000,24240.0,404.0,A,1,2424000,2430000
a01,405,2430000,24300.0,405.0,A,1,2430000,2436000
a01,406,2436000,24360.0,406.0,A,1,2436000,2442000
a01,407,2442000,24420.0,407.0,A,1,2442000,2448000
a01,408,2448000,24480.0,408.0,A,1,2448000,2454000
a01,409,2454000,24540.0,409.0,A,1,2454000,2460000
a01,410,2460000,24600.0,410.0,A,1,2460000,2466000
a01,411,2466000,24660.0,411.0,A,1,2466000,2472000
a01,412,2472000,24720.0,412.0,A,1,2472000,2478000
a01,413,2478000,24780.0,413.0,A,1,2478000,2484000
a01,414,2484000,24840.0,414.0,A,1,2484000,2490000
a01,415,2490000,24900.0,415.0,A,1,2490000,2496000
a01,416,2496000,24960.0,416.0,A,1,2496000,2502000
a01,417,2502000,25020.0,417.0,A,1,2502000,2508000
a01,418,2508000,25080.0,418.0,A,1,2508000,2514000
a01,419,2514000,25140.0,419.0,A,1,2514000,2520000
a01,420,2520000,25200.0,420.0,A,1,2520000,2526000
a01,421,2526000,25260.0,421.0,A,1,2526000,2532000
a01,422,2532000,25320.0,422.0,A,1,2532000,2538000
a01,423,2538000,25380.0,423.0,A,1,2538000,2544000
a01,424,2544000,25440.0,424.0,A,1,2544000,2550000
a01,425,2550000,25500.0,425.0,A,1,2550000,2556000
a01,426,2556000,25560.0,426.0,A,1,2556000,2562000
a01,427,2562000,25620.0,427.0,A,1,2562000,2568000
a01,428,2568000,25680.0,428.0,A,1,2568000,2574000
a01,429,2574000,25740.0,429.0,A,1,2574000,2580000
a01,430,2580000,25800.0,430.0,A,1,2580000,2586000
a01,431,2586000,25860.0,431.0,A,1,2586000,2592000
a01,432,2592000,25920.0,432.0,A,1,2592000,2598000
a01,433,2598000,25980.0,433.0,A,1,2598000,2604000
a01,434,2604000,26040.0,434.0,A,1,2604000,2610000
a01,435,2610000,26100.0,435.0,A,1,2610000,2616000
a01,436,2616000,26160.0,436.0,A,1,2616000,2622000
a01,437,2622000,26220.0,437.0,A,1,2622000,2628000
a01,438,2628000,26280.0,438.0,A,1,2628000,2634000
a01,439,2634000,26340.0,439.0,A,1,2634000,2640000
a01,440,2640000,26400.0,440.0,A,1,2640000,2646000
a01,441,2646000,26460.0,441.0,A,1,2646000,2652000
a01,442,2652000,26520.0,442.0,A,1,2652000,2658000
a01,443,2658000,26580.0,443.0,A,1,2658000,2664000
a01,444,2664000,26640.0,444.0,A,1,2664000,2670000
a01,445,2670000,26700.0,445.0,A,1,2670000,2676000
a01,446,2676000,26760.0,446.0,A,1,2676000,2682000
a01,447,2682000,26820.0,447.0,A,1,2682000,2688000
a01,448,2688000,26880.0,448.0,A,1,2688000,2694000
a01,449,2694000,26940.0,449.0,A,1,2694000,2700000
a01,450,2700000,27000.0,450.0,A,1,2700000,2706000
a01,451,2706000,27060.0,451.0,A,1,2706000,2712000
a01,452,2712000,27120.0,452.0,A,1,2712000,2718000
a01,453,2718000,27180.0,453.0,A,1,2718000,2724000
a01,454,2724000,27240.0,454.0,A,1,2724000,2730000
a01,455,2730000,27300.0,455.0,A,1,2730000,2736000
a01,456,2736000,27360.0,456.0,A,1,2736000,2742000
a01,457,2742000,27420.0,457.0,A,1,2742000,2748000
a01,458,2748000,27480.0,458.0,A,1,2748000,2754000
a01,459,2754000,27540.0,459.0,A,1,2754000,2760000
a01,460,2760000,27600.0,460.0,A,1,2760000,2766000
a01,461,2766000,27660.0,461.0,A,1,2766000,2772000
a01,462,2772000,27720.0,462.0,A,1,2772000,2778000
a01,463,2778000,27780.0,463.0,A,1,2778000,2784000
a01,464,2784000,27840.0,464.0,A,1,2784000,2790000
a01,465,2790000,27900.0,465.0,A,1,2790000,2796000
a01,466,2796000,27960.0,466.0,A,1,2796000,2802000
a01,467,2802000,28020.0,467.0,A,1,2802000,2808000
a01,468,2808000,28080.0,468.0,A,1,2808000,2814000
a01,469,2814000,28140.0,469.0,A,1,2814000,2820000
a01,470,2820000,28200.0,470.0,A,1,2820000,2826000
a01,471,2826000,28260.0,471.0,A,1,2826000,2832000
a01,472,2832000,28320.0,472.0,A,1,2832000,2838000
a01,473,2838000,28380.0,473.0,A,1,2838000,2844000
a01,474,2844000,28440.0,474.0,A,1,2844000,2850000
a01,475,2850000,28500.0,475.0,A,1,2850000,2856000
a01,476,2856000,28560.0,476.0,A,1,2856000,2862000
a01,477,2862000,28620.0,477.0,A,1,2862000,2868000
a01,478,2868000,28680.0,478.0,A,1,2868000,2874000
a01,479,2874000,28740.0,479.0,A,1,2874000,2880000
a01,480,2880000,28800.0,480.0,A,1,2880000,2886000
a01,481,2886000,28860.0,481.0,A,1,2886000,2892000
a01,482,2892000,28920.0,482.0,A,1,2892000,2898000
a01,483,2898000,28980.0,483.0,A,1,2898000,2904000
a01,484,2904000,29040.0,484.0,A,1,2904000,2910000
a01,485,2910000,29100.0,485.0,A,1,2910000,2916000
a01,486,2916000,29160.0,486.0,A,1,2916000,2922000
a01,487,2922000,29220.0,487.0,A,1,2922000,2928000
a01,488,2928000,29280.0,488.0,A,1,2928000,2934000
a02,0,0,0.0,0.0,N,0,0,6000
a02,1,6000,60.0,1.0,N,0,6000,12000
a02,2,12000,120.0,2.0,N,0,12000,18000
a02,3,18000,180.0,3.0,N,0,18000,24000
a02,4,24000,240.0,4.0,N,0,24000,30000
a02,5,30000,300.0,5.0,N,0,30000,36000
a02,6,36000,360.0,6.0,N,0,36000,42000
a02,7,42000,420.0,7.0,N,0,42000,48000
a02,8,48000,480.0,8.0,N,0,48000,54000
a02,9,54000,540.0,9.0,N,0,54000,60000
a02,10,60000,600.0,10.0,N,0,60000,66000
a02,11,66000,660.0,11.0,N,0,66000,72000
a02,12,72000,720.0,12.0,N,0,72000,78000
a02,13,78000,780.0,13.0,N,0,78000,84000
a02,14,84000,840.0,14.0,N,0,84000,90000
a02,15,90000,900.0,15.0,N,0,90000,96000
a02,16,96000,960.0,16.0,N,0,96000,102000
a02,17,102000,1020.0,17.0,N,0,102000,108000
a02,18,108000,1080.0,18.0,N,0,108000,114000
a02,19,114000,1140.0,19.0,N,0,114000,120000
a02,20,120000,1200.0,20.0,N,0,120000,126000
a02,21,126000,1260.0,21.0,A,1,126000,132000
a02,22,132000,1320.0,22.0,A,1,132000,138000
a02,23,138000,1380.0,23.0,A,1,138000,144000
a02,24,144000,1440.0,24.0,A,1,144000,150000
a02,25,150000,1500.0,25.0,A,1,150000,156000
a02,26,156000,1560.0,26.0,A,1,156000,162000
a02,27,162000,1620.0,27.0,A,1,162000,168000
a02,28,168000,1680.0,28.0,A,1,168000,174000
a02,29,174000,1740.0,29.0,A,1,174000,180000
a02,30,180000,1800.0,30.0,A,1,180000,186000
a02,31,186000,1860.0,31.0,A,1,186000,192000
a02,32,192000,1920.0,32.0,A,1,192000,198000
a02,33,198000,1980.0,33.0,A,1,198000,204000
a02,34,204000,2040.0,34.0,A,1,204000,210000
a02,35,210000,2100.0,35.0,A,1,210000,216000
a02,36,216000,2160.0,36.0,A,1,216000,222000
a02,37,222000,2220.0,37.0,A,1,222000,228000
a02,38,228000,2280.0,38.0,A,1,228000,234000
a02,39,234000,2340.0,39.0,A,1,234000,240000
a02,40,240000,2400.0,40.0,A,1,240000,246000
a02,41,246000,2460.0,41.0,A,1,246000,252000
a02,42,252000,2520.0,42.0,A,1,252000,258000
a02,43,258000,2580.0,43.0,A,1,258000,264000
a02,44,264000,2640.0,44.0,A,1,264000,270000
a02,45,270000,2700.0,45.0,A,1,270000,276000
a02,46,276000,2760.0,46.0,A,1,276000,282000
a02,47,282000,2820.0,47.0,A,1,282000,288000
a02,48,288000,2880.0,48.0,A,1,288000,294000
a02,49,294000,2940.0,49.0,A,1,294000,300000
a02,50,300000,3000.0,50.0,A,1,300000,306000
a02,51,306000,3060.0,51.0,A,1,306000,312000
a02,52,312000,3120.0,52.0,A,1,312000,318000
a02,53,318000,3180.0,53.0,A,1,318000,324000
a02,54,324000,3240.0,54.0,A,1,324000,330000
a02,55,330000,3300.0,55.0,A,1,330000,336000
a02,56,336000,3360.0,56.0,A,1,336000,342000
a02,57,342000,3420.0,57.0,A,1,342000,348000
a02,58,348000,3480.0,58.0,A,1,348000,354000
a02,59,354000,3540.0,59.0,A,1,354000,360000
a02,60,360000,3600.0,60.0,A,1,360000,366000
a02,61,366000,3660.0,61.0,A,1,366000,372000
a02,62,372000,3720.0,62.0,A,1,372000,378000
a02,63,378000,3780.0,63.0,A,1,378000,384000
a02,64,384000,3840.0,64.0,A,1,384000,390000
a02,65,390000,3900.0,65.0,A,1,390000,396000
a02,66,396000,3960.0,66.0,A,1,396000,402000
a02,67,402000,4020.0,67.0,A,1,402000,408000
a02,68,408000,4080.0,68.0,A,1,408000,414000
a02,69,414000,4140.0,69.0,A,1,414000,420000
a02,70,420000,4200.0,70.0,A,1,420000,426000
a02,71,426000,4260.0,71.0,A,1,426000,432000
a02,72,432000,4320.0,72.0,A,1,432000,438000
a02,73,438000,4380.0,73.0,A,1,438000,444000
a02,74,444000,4440.0,74.0,A,1,444000,450000
a02,75,450000,4500.0,75.0,A,1,450000,456000
a02,76,456000,4560.0,76.0,A,1,456000,462000
a02,77,462000,4620.0,77.0,A,1,462000,468000
a02,78,468000,4680.0,78.0,A,1,468000,474000
a02,79,474000,4740.0,79.0,A,1,474000,480000
a02,80,480000,4800.0,80.0,A,1,480000,486000
a02,81,486000,4860.0,81.0,A,1,486000,492000
a02,82,492000,4920.0,82.0,A,1,492000,498000
a02,83,498000,4980.0,83.0,A,1,498000,504000
a02,84,504000,5040.0,84.0,A,1,504000,510000
a02,85,510000,5100.0,85.0,A,1,510000,516000
a02,86,516000,5160.0,86.0,A,1,516000,522000
a02,87,522000,5220.0,87.0,A,1,522000,528000
a02,88,528000,5280.0,88.0,A,1,528000,534000
a02,89,534000,5340.0,89.0,A,1,534000,540000
a02,90,540000,5400.0,90.0,A,1,540000,546000
a02,91,546000,5460.0,91.0,A,1,546000,552000
a02,92,552000,5520.0,92.0,A,1,552000,558000
a02,93,558000,5580.0,93.0,A,1,558000,564000
a02,94,564000,5640.0,94.0,A,1,564000,570000
a02,95,570000,5700.0,95.0,A,1,570000,576000
a02,96,576000,5760.0,96.0,A,1,576000,582000
a02,97,582000,5820.0,97.0,A,1,582000,588000
a02,98,588000,5880.0,98.0,A,1,588000,594000
a02,99,594000,5940.0,99.0,A,1,594000,600000
a02,100,600000,6000.0,100.0,A,1,600000,606000
a02,101,606000,6060.0,101.0,A,1,606000,612000
a02,102,612000,6120.0,102.0,A,1,612000,618000
a02,103,618000,6180.0,103.0,A,1,618000,624000
a02,104,624000,6240.0,104.0,A,1,624000,630000
a02,105,630000,6300.0,105.0,A,1,630000,636000
a02,106,636000,6360.0,106.0,A,1,636000,642000
a02,107,642000,6420.0,107.0,A,1,642000,648000
a02,108,648000,6480.0,108.0,A,1,648000,654000
a02,109,654000,6540.0,109.0,A,1,654000,660000
a02,110,660000,6600.0,110.0,A,1,660000,666000
a02,111,666000,6660.0,111.0,A,1,666000,672000
a02,112,672000,6720.0,112.0,A,1,672000,678000
a02,113,678000,6780.0,113.0,A,1,678000,684000
a02,114,684000,6840.0,114.0,A,1,684000,690000
a02,115,690000,6900.0,115.0,A,1,690000,696000
a02,116,696000,6960.0,116.0,A,1,696000,702000
a02,117,702000,7020.0,117.0,A,1,702000,708000
a02,118,708000,7080.0,118.0,A,1,708000,714000
a02,119,714000,7140.0,119.0,A,1,714000,720000
a02,120,720000,7200.0,120.0,A,1,720000,726000
a02,121,726000,7260.0,121.0,A,1,726000,732000
a02,122,732000,7320.0,122.0,A,1,732000,738000
a02,123,738000,7380.0,123.0,A,1,738000,744000
a02,124,744000,7440.0,124.0,A,1,744000,750000
a02,125,750000,7500.0,125.0,A,1,750000,756000
a02,126,756000,7560.0,126.0,A,1,756000,762000
a02,127,762000,7620.0,127.0,A,1,762000,768000
a02,128,768000,7680.0,128.0,A,1,768000,774000
a02,129,774000,7740.0,129.0,A,1,774000,780000
a02,130,780000,7800.0,130.0,N,0,780000,786000
a02,131,786000,7860.0,131.0,N,0,786000,792000
a02,132,792000,7920.0,132.0,N,0,792000,798000
a02,133,798000,7980.0,133.0,N,0,798000,804000
a02,134,804000,8040.0,134.0,N,0,804000,810000
a02,135,810000,8100.0,135.0,N,0,810000,816000
a02,136,816000,8160.0,136.0,N,0,816000,822000
a02,137,822000,8220.0,137.0,N,0,822000,828000
a02,138,828000,8280.0,138.0,N,0,828000,834000
a02,139,834000,8340.0,139.0,N,0,834000,840000
a02,140,840000,8400.0,140.0,N,0,840000,846000
a02,141,846000,8460.0,141.0,N,0,846000,852000
a02,142,852000,8520.0,142.0,N,0,852000,858000
a02,143,858000,8580.0,143.0,N,0,858000,864000
a02,144,864000,8640.0,144.0,N,0,864000,870000
a02,145,870000,8700.0,145.0,N,0,870000,876000
a02,146,876000,8760.0,146.0,N,0,876000,882000
a02,147,882000,8820.0,147.0,N,0,882000,888000
a02,148,888000,8880.0,148.0,N,0,888000,894000
a02,149,894000,8940.0,149.0,N,0,894000,900000
a02,150,900000,9000.0,150.0,N,0,900000,906000
a02,151,906000,9060.0,151.0,N,0,906000,912000
a02,152,912000,9120.0,152.0,N,0,912000,918000
a02,153,918000,9180.0,153.0,N,0,918000,924000
a02,154,924000,9240.0,154.0,N,0,924000,930000
a02,155,930000,9300.0,155.0,N,0,930000,936000
a02,156,936000,9360.0,156.0,N,0,936000,942000
a02,157,942000,9420.0,157.0,N,0,942000,948000
a02,158,948000,9480.0,158.0,N,0,948000,954000
a02,159,954000,9540.0,159.0,N,0,954000,960000
a02,160,960000,9600.0,160.0,N,0,960000,966000
a02,161,966000,9660.0,161.0,N,0,966000,972000
a02,162,972000,9720.0,162.0,N,0,972000,978000
a02,163,978000,9780.0,163.0,N,0,978000,984000
a02,164,984000,9840.0,164.0,N,0,984000,990000
a02,165,990000,9900.0,165.0,N,0,990000,996000
a02,166,996000,9960.0,166.0,N,0,996000,1002000
a02,167,1002000,10020.0,167.0,N,0,1002000,1008000
a02,168,1008000,10080.0,168.0,N,0,1008000,1014000
a02,169,1014000,10140.0,169.0,N,0,1014000,1020000
a02,170,1020000,10200.0,170.0,N,0,1020000,1026000
a02,171,1026000,10260.0,171.0,N,0,1026000,1032000
a02,172,1032000,10320.0,172.0,N,0,1032000,1038000
a02,173,1038000,10380.0,173.0,N,0,1038000,1044000
a02,174,1044000,10440.0,174.0,N,0,1044000,1050000
a02,175,1050000,10500.0,175.0,N,0,1050000,1056000
a02,176,1056000,10560.0,176.0,A,1,1056000,1062000
a02,177,1062000,10620.0,177.0,A,1,1062000,1068000
a02,178,1068000,10680.0,178.0,A,1,1068000,1074000
a02,179,1074000,10740.0,179.0,A,1,1074000,1080000
a02,180,1080000,10800.0,180.0,A,1,1080000,1086000
a02,181,1086000,10860.0,181.0,A,1,1086000,1092000
a02,182,1092000,10920.0,182.0,A,1,1092000,1098000
a02,183,1098000,10980.0,183.0,A,1,1098000,1104000
a02,184,1104000,11040.0,184.0,A,1,1104000,1110000
a02,185,1110000,11100.0,185.0,A,1,1110000,1116000
a02,186,1116000,11160.0,186.0,A,1,1116000,1122000
a02,187,1122000,11220.0,187.0,A,1,1122000,1128000
a02,188,1128000,11280.0,188.0,A,1,1128000,1134000
a02,189,1134000,11340.0,189.0,A,1,1134000,1140000
a02,190,1140000,11400.0,190.0,A,1,1140000,1146000
a02,191,1146000,11460.0,191.0,A,1,1146000,1152000
a02,192,1152000,11520.0,192.0,A,1,1152000,1158000
a02,193,1158000,11580.0,193.0,A,1,1158000,1164000
a02,194,1164000,11640.0,194.0,A,1,1164000,1170000
a02,195,1170000,11700.0,195.0,A,1,1170000,1176000
a02,196,1176000,11760.0,196.0,A,1,1176000,1182000
a02,197,1182000,11820.0,197.0,A,1,1182000,1188000
a02,198,1188000,11880.0,198.0,A,1,1188000,1194000
a02,199,1194000,11940.0,199.0,A,1,1194000,1200000
a02,200,1200000,12000.0,200.0,A,1,1200000,1206000
a02,201,1206000,12060.0,201.0,N,0,1206000,1212000
a02,202,1212000,12120.0,202.0,N,0,1212000,1218000
a02,203,1218000,12180.0,203.0,N,0,1218000,1224000
a02,204,1224000,12240.0,204.0,N,0,1224000,1230000
a02,205,1230000,12300.0,205.0,N,0,1230000,1236000
a02,206,1236000,12360.0,206.0,N,0,1236000,1242000
a02,207,1242000,12420.0,207.0,A,1,1242000,1248000
a02,208,1248000,12480.0,208.0,A,1,1248000,1254000
a02,209,1254000,12540.0,209.0,A,1,1254000,1260000
a02,210,1260000,12600.0,210.0,A,1,1260000,1266000
a02,211,1266000,12660.0,211.0,A,1,1266000,1272000
a02,212,1272000,12720.0,212.0,A,1,1272000,1278000
a02,213,1278000,12780.0,213.0,A,1,1278000,1284000
a02,214,1284000,12840.0,214.0,A,1,1284000,1290000
a02,215,1290000,12900.0,215.0,A,1,1290000,1296000
a02,216,1296000,12960.0,216.0,A,1,1296000,1302000
a02,217,1302000,13020.0,217.0,A,1,1302000,1308000
a02,218,1308000,13080.0,218.0,A,1,1308000,1314000
a02,219,1314000,13140.0,219.0,A,1,1314000,1320000
a02,220,1320000,13200.0,220.0,A,1,1320000,1326000
a02,221,1326000,13260.0,221.0,A,1,1326000,1332000
a02,222,1332000,13320.0,222.0,A,1,1332000,1338000
a02,223,1338000,13380.0,223.0,A,1,1338000,1344000
a02,224,1344000,13440.0,224.0,A,1,1344000,1350000
a02,225,1350000,13500.0,225.0,A,1,1350000,1356000
a02,226,1356000,13560.0,226.0,A,1,1356000,1362000
a02,227,1362000,13620.0,227.0,A,1,1362000,1368000
a02,228,1368000,13680.0,228.0,A,1,1368000,1374000
a02,229,1374000,13740.0,229.0,A,1,1374000,1380000
a02,230,1380000,13800.0,230.0,A,1,1380000,1386000
a02,231,1386000,13860.0,231.0,A,1,1386000,1392000
a02,232,1392000,13920.0,232.0,A,1,1392000,1398000
a02,233,1398000,13980.0,233.0,A,1,1398000,1404000
a02,234,1404000,14040.0,234.0,A,1,1404000,1410000
a02,235,1410000,14100.0,235.0,A,1,1410000,1416000
a02,236,1416000,14160.0,236.0,A,1,1416000,1422000
a02,237,1422000,14220.0,237.0,A,1,1422000,1428000
a02,238,1428000,14280.0,238.0,A,1,1428000,1434000
a02,239,1434000,14340.0,239.0,A,1,1434000,1440000
a02,240,1440000,14400.0,240.0,A,1,1440000,1446000
a02,241,1446000,14460.0,241.0,A,1,1446000,1452000
a02,242,1452000,14520.0,242.0,A,1,1452000,1458000
a02,243,1458000,14580.0,243.0,A,1,1458000,1464000
a02,244,1464000,14640.0,244.0,A,1,1464000,1470000
a02,245,1470000,14700.0,245.0,A,1,1470000,1476000
a02,246,1476000,14760.0,246.0,A,1,1476000,1482000
a02,247,1482000,14820.0,247.0,A,1,1482000,1488000
a02,248,1488000,14880.0,248.0,A,1,1488000,1494000
a02,249,1494000,14940.0,249.0,A,1,1494000,1500000
a02,250,1500000,15000.0,250.0,A,1,1500000,1506000
a02,251,1506000,15060.0,251.0,A,1,1506000,1512000
a02,252,1512000,15120.0,252.0,A,1,1512000,1518000
a02,253,1518000,15180.0,253.0,A,1,1518000,1524000
a02,254,1524000,15240.0,254.0,A,1,1524000,1530000
a02,255,1530000,15300.0,255.0,A,1,1530000,1536000
a02,256,1536000,15360.0,256.0,A,1,1536000,1542000
a02,257,1542000,15420.0,257.0,A,1,1542000,1548000
a02,258,1548000,15480.0,258.0,A,1,1548000,1554000
a02,259,1554000,15540.0,259.0,A,1,1554000,1560000
a02,260,1560000,15600.0,260.0,A,1,1560000,1566000
a02,261,1566000,15660.0,261.0,A,1,1566000,1572000
a02,262,1572000,15720.0,262.0,A,1,1572000,1578000
a02,263,1578000,15780.0,263.0,A,1,1578000,1584000
a02,264,1584000,15840.0,264.0,A,1,1584000,1590000
a02,265,1590000,15900.0,265.0,A,1,1590000,1596000
a02,266,1596000,15960.0,266.0,N,0,1596000,1602000
a02,267,1602000,16020.0,267.0,N,0,1602000,1608000
a02,268,1608000,16080.0,268.0,N,0,1608000,1614000
a02,269,1614000,16140.0,269.0,N,0,1614000,1620000
a02,270,1620000,16200.0,270.0,A,1,1620000,1626000
a02,271,1626000,16260.0,271.0,A,1,1626000,1632000
a02,272,1632000,16320.0,272.0,A,1,1632000,1638000
a02,273,1638000,16380.0,273.0,A,1,1638000,1644000
a02,274,1644000,16440.0,274.0,A,1,1644000,1650000
a02,275,1650000,16500.0,275.0,A,1,1650000,1656000
a02,276,1656000,16560.0,276.0,A,1,1656000,1662000
a02,277,1662000,16620.0,277.0,A,1,1662000,1668000
a02,278,1668000,16680.0,278.0,A,1,1668000,1674000
a02,279,1674000,16740.0,279.0,A,1,1674000,1680000
a02,280,1680000,16800.0,280.0,A,1,1680000,1686000
a02,281,1686000,16860.0,281.0,A,1,1686000,1692000
a02,282,1692000,16920.0,282.0,N,0,1692000,1698000
a02,283,1698000,16980.0,283.0,N,0,1698000,1704000
a02,284,1704000,17040.0,284.0,N,0,1704000,1710000
a02,285,1710000,17100.0,285.0,N,0,1710000,1716000
a02,286,1716000,17160.0,286.0,N,0,1716000,1722000
a02,287,1722000,17220.0,287.0,N,0,1722000,1728000
a02,288,1728000,17280.0,288.0,A,1,1728000,1734000
a02,289,1734000,17340.0,289.0,A,1,1734000,1740000
a02,290,1740000,17400.0,290.0,A,1,1740000,1746000
a02,291,1746000,17460.0,291.0,A,1,1746000,1752000
a02,292,1752000,17520.0,292.0,A,1,1752000,1758000
a02,293,1758000,17580.0,293.0,A,1,1758000,1764000
a02,294,1764000,17640.0,294.0,A,1,1764000,1770000
a02,295,1770000,17700.0,295.0,N,0,1770000,1776000
a02,296,1776000,17760.0,296.0,N,0,1776000,1782000
a02,297,1782000,17820.0,297.0,A,1,1782000,1788000
a02,298,1788000,17880.0,298.0,A,1,1788000,1794000
a02,299,1794000,17940.0,299.0,A,1,1794000,1800000
a02,300,1800000,18000.0,300.0,A,1,1800000,1806000
a02,301,1806000,18060.0,301.0,A,1,1806000,1812000
a02,302,1812000,18120.0,302.0,A,1,1812000,1818000
a02,303,1818000,18180.0,303.0,A,1,1818000,1824000
a02,304,1824000,18240.0,304.0,A,1,1824000,1830000
a02,305,1830000,18300.0,305.0,A,1,1830000,1836000
a02,306,1836000,18360.0,306.0,A,1,1836000,1842000
a02,307,1842000,18420.0,307.0,A,1,1842000,1848000
a02,308,1848000,18480.0,308.0,N,0,1848000,1854000
a02,309,1854000,18540.0,309.0,N,0,1854000,1860000
a02,310,1860000,18600.0,310.0,N,0,1860000,1866000
a02,311,1866000,18660.0,311.0,N,0,1866000,1872000
a02,312,1872000,18720.0,312.0,A,1,1872000,1878000
a02,313,1878000,18780.0,313.0,A,1,1878000,1884000
a02,314,1884000,18840.0,314.0,A,1,1884000,1890000
a02,315,1890000,18900.0,315.0,A,1,1890000,1896000
a02,316,1896000,18960.0,316.0,A,1,1896000,1902000
a02,317,1902000,19020.0,317.0,A,1,1902000,1908000
a02,318,1908000,19080.0,318.0,A,1,1908000,1914000
a02,319,1914000,19140.0,319.0,A,1,1914000,1920000
a02,320,1920000,19200.0,320.0,A,1,1920000,1926000
a02,321,1926000,19260.0,321.0,A,1,1926000,1932000
a02,322,1932000,19320.0,322.0,A,1,1932000,1938000
a02,323,1938000,19380.0,323.0,A,1,1938000,1944000
a02,324,1944000,19440.0,324.0,A,1,1944000,1950000
a02,325,1950000,19500.0,325.0,A,1,1950000,1956000
a02,326,1956000,19560.0,326.0,N,0,1956000,1962000
a02,327,1962000,19620.0,327.0,N,0,1962000,1968000
a02,328,1968000,19680.0,328.0,N,0,1968000,1974000
a02,329,1974000,19740.0,329.0,A,1,1974000,1980000
a02,330,1980000,19800.0,330.0,A,1,1980000,1986000
a02,331,1986000,19860.0,331.0,A,1,1986000,1992000
a02,332,1992000,19920.0,332.0,A,1,1992000,1998000
a02,333,1998000,19980.0,333.0,A,1,1998000,2004000
a02,334,2004000,20040.0,334.0,A,1,2004000,2010000
a02,335,2010000,20100.0,335.0,A,1,2010000,2016000
a02,336,2016000,20160.0,336.0,A,1,2016000,2022000
a02,337,2022000,20220.0,337.0,A,1,2022000,2028000
a02,338,2028000,20280.0,338.0,A,1,2028000,2034000
a02,339,2034000,20340.0,339.0,A,1,2034000,2040000
a02,340,2040000,20400.0,340.0,A,1,2040000,2046000
a02,341,2046000,20460.0,341.0,A,1,2046000,2052000
a02,342,2052000,20520.0,342.0,A,1,2052000,2058000
a02,343,2058000,20580.0,343.0,A,1,2058000,2064000
a02,344,2064000,20640.0,344.0,A,1,2064000,2070000
a02,345,2070000,20700.0,345.0,A,1,2070000,2076000
a02,346,2076000,20760.0,346.0,A,1,2076000,2082000
a02,347,2082000,20820.0,347.0,A,1,2082000,2088000
a02,348,2088000,20880.0,348.0,A,1,2088000,2094000
a02,349,2094000,20940.0,349.0,A,1,2094000,2100000
a02,350,2100000,21000.0,350.0,A,1,2100000,2106000
a02,351,2106000,21060.0,351.0,A,1,2106000,2112000
a02,352,2112000,21120.0,352.0,A,1,2112000,2118000
a02,353,2118000,21180.0,353.0,A,1,2118000,2124000
a02,354,2124000,21240.0,354.0,A,1,2124000,2130000
a02,355,2130000,21300.0,355.0,A,1,2130000,2136000
a02,356,2136000,21360.0,356.0,A,1,2136000,2142000
a02,357,2142000,21420.0,357.0,A,1,2142000,2148000
a02,358,2148000,21480.0,358.0,A,1,2148000,2154000
a02,359,2154000,21540.0,359.0,A,1,2154000,2160000
a02,360,2160000,21600.0,360.0,A,1,2160000,2166000
a02,361,2166000,21660.0,361.0,A,1,2166000,2172000
a02,362,2172000,21720.0,362.0,A,1,2172000,2178000
a02,363,2178000,21780.0,363.0,A,1,2178000,2184000
a02,364,2184000,21840.0,364.0,A,1,2184000,2190000
a02,365,2190000,21900.0,365.0,A,1,2190000,2196000
a02,366,2196000,21960.0,366.0,A,1,2196000,2202000
a02,367,2202000,22020.0,367.0,A,1,2202000,2208000
a02,368,2208000,22080.0,368.0,A,1,2208000,2214000
a02,369,2214000,22140.0,369.0,A,1,2214000,2220000
a02,370,2220000,22200.0,370.0,A,1,2220000,2226000
a02,371,2226000,22260.0,371.0,A,1,2226000,2232000
a02,372,2232000,22320.0,372.0,A,1,2232000,2238000
a02,373,2238000,22380.0,373.0,A,1,2238000,2244000
a02,374,2244000,22440.0,374.0,A,1,2244000,2250000
a02,375,2250000,22500.0,375.0,A,1,2250000,2256000
a02,376,2256000,22560.0,376.0,A,1,2256000,2262000
a02,377,2262000,22620.0,377.0,A,1,2262000,2268000
a02,378,2268000,22680.0,378.0,A,1,2268000,2274000
a02,379,2274000,22740.0,379.0,A,1,2274000,2280000
a02,380,2280000,22800.0,380.0,A,1,2280000,2286000
a02,381,2286000,22860.0,381.0,A,1,2286000,2292000
a02,382,2292000,22920.0,382.0,A,1,2292000,2298000
a02,383,2298000,22980.0,383.0,A,1,2298000,2304000
a02,384,2304000,23040.0,384.0,A,1,2304000,2310000
a02,385,2310000,23100.0,385.0,A,1,2310000,2316000
a02,386,2316000,23160.0,386.0,A,1,2316000,2322000
a02,387,2322000,23220.0,387.0,A,1,2322000,2328000
a02,388,2328000,23280.0,388.0,A,1,2328000,2334000
a02,389,2334000,23340.0,389.0,N,0,2334000,2340000
a02,390,2340000,23400.0,390.0,N,0,2340000,2346000
a02,391,2346000,23460.0,391.0,N,0,2346000,2352000
a02,392,2352000,23520.0,392.0,A,1,2352000,2358000
a02,393,2358000,23580.0,393.0,A,1,2358000,2364000
a02,394,2364000,23640.0,394.0,A,1,2364000,2370000
a02,395,2370000,23700.0,395.0,A,1,2370000,2376000
a02,396,2376000,23760.0,396.0,A,1,2376000,2382000
a02,397,2382000,23820.0,397.0,A,1,2382000,2388000
a02,398,2388000,23880.0,398.0,A,1,2388000,2394000
a02,399,2394000,23940.0,399.0,A,1,2394000,2400000
a02,400,2400000,24000.0,400.0,A,1,2400000,2406000
a02,401,2406000,24060.0,401.0,A,1,2406000,2412000
a02,402,2412000,24120.0,402.0,A,1,2412000,2418000
a02,403,2418000,24180.0,403.0,A,1,2418000,2424000
a02,404,2424000,24240.0,404.0,A,1,2424000,2430000
a02,405,2430000,24300.0,405.0,A,1,2430000,2436000
a02,406,2436000,24360.0,406.0,A,1,2436000,2442000
a02,407,2442000,24420.0,407.0,A,1,2442000,2448000
a02,408,2448000,24480.0,408.0,A,1,2448000,2454000
a02,409,2454000,24540.0,409.0,A,1,2454000,2460000
a02,410,2460000,24600.0,410.0,A,1,2460000,2466000
a02,411,2466000,24660.0,411.0,A,1,2466000,2472000
a02,412,2472000,24720.0,412.0,A,1,2472000,2478000
a02,413,2478000,24780.0,413.0,A,1,2478000,2484000
a02,414,2484000,24840.0,414.0,A,1,2484000,2490000
a02,415,2490000,24900.0,415.0,A,1,2490000,2496000
a02,416,2496000,24960.0,416.0,A,1,2496000,2502000
a02,417,2502000,25020.0,417.0,A,1,2502000,2508000
a02,418,2508000,25080.0,418.0,A,1,2508000,2514000
a02,419,2514000,25140.0,419.0,A,1,2514000,2520000
a02,420,2520000,25200.0,420.0,A,1,2520000,2526000
a02,421,2526000,25260.0,421.0,A,1,2526000,2532000
a02,422,2532000,25320.0,422.0,A,1,2532000,2538000
a02,423,2538000,25380.0,423.0,A,1,2538000,2544000
a02,424,2544000,25440.0,424.0,A,1,2544000,2550000
a02,425,2550000,25500.0,425.0,A,1,2550000,2556000
a02,426,2556000,25560.0,426.0,A,1,2556000,2562000
a02,427,2562000,25620.0,427.0,A,1,2562000,2568000
a02,428,2568000,25680.0,428.0,A,1,2568000,2574000
a02,429,2574000,25740.0,429.0,A,1,2574000,2580000
a02,430,2580000,25800.0,430.0,A,1,2580000,2586000
a02,431,2586000,25860.0,431.0,A,1,2586000,2592000
a02,432,2592000,25920.0,432.0,N,0,2592000,2598000
a02,433,2598000,25980.0,433.0,N,0,2598000,2604000
a02,434,2604000,26040.0,434.0,N,0,2604000,2610000
a02,435,2610000,26100.0,435.0,N,0,2610000,2616000
a02,436,2616000,26160.0,436.0,A,1,2616000,2622000
a02,437,2622000,26220.0,437.0,A,1,2622000,2628000
a02,438,2628000,26280.0,438.0,A,1,2628000,2634000
a02,439,2634000,26340.0,439.0,A,1,2634000,2640000
a02,440,2640000,26400.0,440.0,A,1,2640000,2646000
a02,441,2646000,26460.0,441.0,A,1,2646000,2652000
a02,442,2652000,26520.0,442.0,A,1,2652000,2658000
a02,443,2658000,26580.0,443.0,A,1,2658000,2664000
a02,444,2664000,26640.0,444.0,A,1,2664000,2670000
a02,445,2670000,26700.0,445.0,A,1,2670000,2676000
a02,446,2676000,26760.0,446.0,A,1,2676000,2682000
a02,447,2682000,26820.0,447.0,A,1,2682000,2688000
a02,448,2688000,26880.0,448.0,A,1,2688000,2694000
a02,449,2694000,26940.0,449.0,A,1,2694000,2700000
a02,450,2700000,27000.0,450.0,A,1,2700000,2706000
a02,451,2706000,27060.0,451.0,A,1,2706000,2712000
a02,452,2712000,27120.0,452.0,A,1,2712000,2718000
a02,453,2718000,27180.0,453.0,A,1,2718000,2724000
a02,454,2724000,27240.0,454.0,A,1,2724000,2730000
a02,455,2730000,27300.0,455.0,A,1,2730000,2736000
a02,456,2736000,27360.0,456.0,A,1,2736000,2742000
a02,457,2742000,27420.0,457.0,A,1,2742000,2748000
a02,458,2748000,27480.0,458.0,A,1,2748000,2754000
a02,459,2754000,27540.0,459.0,A,1,2754000,2760000
a02,460,2760000,27600.0,460.0,A,1,2760000,2766000
a02,461,2766000,27660.0,461.0,A,1,2766000,2772000
a02,462,2772000,27720.0,462.0,A,1,2772000,2778000
a02,463,2778000,27780.0,463.0,A,1,2778000,2784000
a02,464,2784000,27840.0,464.0,A,1,2784000,2790000
a02,465,2790000,27900.0,465.0,A,1,2790000,2796000
a02,466,2796000,27960.0,466.0,A,1,2796000,2802000
a02,467,2802000,28020.0,467.0,A,1,2802000,2808000
a02,468,2808000,28080.0,468.0,A,1,2808000,2814000
a02,469,2814000,28140.0,469.0,A,1,2814000,2820000
a02,470,2820000,28200.0,470.0,A,1,2820000,2826000
a02,471,2826000,28260.0,471.0,A,1,2826000,2832000
a02,472,2832000,28320.0,472.0,A,1,2832000,2838000
a02,473,2838000,28380.0,473.0,A,1,2838000,2844000
a02,474,2844000,28440.0,474.0,A,1,2844000,2850000
a02,475,2850000,28500.0,475.0,A,1,2850000,2856000
a02,476,2856000,28560.0,476.0,A,1,2856000,2862000
a02,477,2862000,28620.0,477.0,A,1,2862000,2868000
a02,478,2868000,28680.0,478.0,A,1,2868000,2874000
a02,479,2874000,28740.0,479.0,A,1,2874000,2880000
a02,480,2880000,28800.0,480.0,A,1,2880000,2886000
a02,481,2886000,28860.0,481.0,A,1,2886000,2892000
a02,482,2892000,28920.0,482.0,A,1,2892000,2898000
a02,483,2898000,28980.0,483.0,A,1,2898000,2904000
a02,484,2904000,29040.0,484.0,A,1,2904000,2910000
a02,485,2910000,29100.0,485.0,A,1,2910000,2916000
a02,486,2916000,29160.0,486.0,A,1,2916000,2922000
a02,487,2922000,29220.0,487.0,A,1,2922000,2928000
a02,488,2928000,29280.0,488.0,A,1,2928000,2934000
a02,489,2934000,29340.0,489.0,A,1,2934000,2940000
a02,490,2940000,29400.0,490.0,A,1,2940000,2946000
a02,491,2946000,29460.0,491.0,A,1,2946000,2952000
a02,492,2952000,29520.0,492.0,A,1,2952000,2958000
a02,493,2958000,29580.0,493.0,A,1,2958000,2964000
a02,494,2964000,29640.0,494.0,A,1,2964000,2970000
a02,495,2970000,29700.0,495.0,A,1,2970000,2976000
a02,496,2976000,29760.0,496.0,A,1,2976000,2982000
a02,497,2982000,29820.0,497.0,A,1,2982000,2988000
a02,498,2988000,29880.0,498.0,A,1,2988000,2994000
a02,499,2994000,29940.0,499.0,A,1,2994000,3000000
a02,500,3000000,30000.0,500.0,N,0,3000000,3006000
a02,501,3006000,30060.0,501.0,N,0,3006000,3012000
a02,502,3012000,30120.0,502.0,N,0,3012000,3018000
a02,503,3018000,30180.0,503.0,N,0,3018000,3024000
a02,504,3024000,30240.0,504.0,N,0,3024000,3030000
a02,505,3030000,30300.0,505.0,N,0,3030000,3036000
a02,506,3036000,30360.0,506.0,N,0,3036000,3042000
a02,507,3042000,30420.0,507.0,N,0,3042000,3048000
a02,508,3048000,30480.0,508.0,N,0,3048000,3054000
a02,509,3054000,30540.0,509.0,A,1,3054000,3060000
a02,510,3060000,30600.0,510.0,A,1,3060000,3066000
a02,511,3066000,30660.0,511.0,A,1,3066000,3072000
a02,512,3072000,30720.0,512.0,A,1,3072000,3078000
a02,513,3078000,30780.0,513.0,A,1,3078000,3084000
a02,514,3084000,30840.0,514.0,A,1,3084000,3090000
a02,515,3090000,30900.0,515.0,A,1,3090000,3096000
a02,516,3096000,30960.0,516.0,A,1,3096000,3102000
a02,517,3102000,31020.0,517.0,A,1,3102000,3108000
a02,518,3108000,31080.0,518.0,A,1,3108000,3114000
a02,519,3114000,31140.0,519.0,A,1,3114000,3120000
a02,520,3120000,31200.0,520.0,A,1,3120000,3126000
a02,521,3126000,31260.0,521.0,A,1,3126000,3132000
a02,522,3132000,31320.0,522.0,A,1,3132000,3138000
a02,523,3138000,31380.0,523.0,A,1,3138000,3144000
a02,524,3144000,31440.0,524.0,A,1,3144000,3150000
a02,525,3150000,31500.0,525.0,A,1,3150000,3156000
a02,526,3156000,31560.0,526.0,A,1,3156000,3162000
a02,527,3162000,31620.0,527.0,A,1,3162000,3168000
a03,0,0,0.0,0.0,N,0,0,6000
a03,1,6000,60.0,1.0,N,0,6000,12000
a03,2,12000,120.0,2.0,N,0,12000,18000
a03,3,18000,180.0,3.0,N,0,18000,24000
a03,4,24000,240.0,4.0,N,0,24000,30000
a03,5,30000,300.0,5.0,N,0,30000,36000
a03,6,36000,360.0,6.0,N,0,36000,42000
a03,7,42000,420.0,7.0,N,0,42000,48000
a03,8,48000,480.0,8.0,N,0,48000,54000
a03,9,54000,540.0,9.0,N,0,54000,60000
a03,10,60000,600.0,10.0,N,0,60000,66000
a03,11,66000,660.0,11.0,N,0,66000,72000
a03,12,72000,720.0,12.0,N,0,72000,78000
a03,13,78000,780.0,13.0,A,1,78000,84000
a03,14,84000,840.0,14.0,A,1,84000,90000
a03,15,90000,900.0,15.0,A,1,90000,96000
a03,16,96000,960.0,16.0,A,1,96000,102000
a03,17,102000,1020.0,17.0,A,1,102000,108000
a03,18,108000,1080.0,18.0,A,1,108000,114000
a03,19,114000,1140.0,19.0,A,1,114000,120000
a03,20,120000,1200.0,20.0,A,1,120000,126000
a03,21,126000,1260.0,21.0,A,1,126000,132000
a03,22,132000,1320.0,22.0,A,1,132000,138000
a03,23,138000,1380.0,23.0,A,1,138000,144000
a03,24,144000,1440.0,24.0,A,1,144000,150000
a03,25,150000,1500.0,25.0,A,1,150000,156000
a03,26,156000,1560.0,26.0,A,1,156000,162000
a03,27,162000,1620.0,27.0,A,1,162000,168000
a03,28,168000,1680.0,28.0,A,1,168000,174000
a03,29,174000,1740.0,29.0,A,1,174000,180000
a03,30,180000,1800.0,30.0,A,1,180000,186000
a03,31,186000,1860.0,31.0,A,1,186000,192000
a03,32,192000,1920.0,32.0,A,1,192000,198000
a03,33,198000,1980.0,33.0,A,1,198000,204000
a03,34,204000,2040.0,34.0,A,1,204000,210000
a03,35,210000,2100.0,35.0,A,1,210000,216000
a03,36,216000,2160.0,36.0,A,1,216000,222000
a03,37,222000,2220.0,37.0,A,1,222000,228000
a03,38,228000,2280.0,38.0,A,1,228000,234000
a03,39,234000,2340.0,39.0,A,1,234000,240000
a03,40,240000,2400.0,40.0,A,1,240000,246000
a03,41,246000,2460.0,41.0,A,1,246000,252000
a03,42,252000,2520.0,42.0,A,1,252000,258000
a03,43,258000,2580.0,43.0,A,1,258000,264000
a03,44,264000,2640.0,44.0,A,1,264000,270000
a03,45,270000,2700.0,45.0,A,1,270000,276000
a03,46,276000,2760.0,46.0,A,1,276000,282000
a03,47,282000,2820.0,47.0,A,1,282000,288000
a03,48,288000,2880.0,48.0,A,1,288000,294000
a03,49,294000,2940.0,49.0,A,1,294000,300000
a03,50,300000,3000.0,50.0,A,1,300000,306000
a03,51,306000,3060.0,51.0,A,1,306000,312000
a03,52,312000,3120.0,52.0,A,1,312000,318000
a03,53,318000,3180.0,53.0,A,1,318000,324000
a03,54,324000,3240.0,54.0,A,1,324000,330000
a03,55,330000,3300.0,55.0,A,1,330000,336000
a03,56,336000,3360.0,56.0,A,1,336000,342000
a03,57,342000,3420.0,57.0,A,1,342000,348000
a03,58,348000,3480.0,58.0,A,1,348000,354000
a03,59,354000,3540.0,59.0,A,1,354000,360000
a03,60,360000,3600.0,60.0,N,0,360000,366000
a03,61,366000,3660.0,61.0,N,0,366000,372000
a03,62,372000,3720.0,62.0,N,0,372000,378000
a03,63,378000,3780.0,63.0,N,0,378000,384000
a03,64,384000,3840.0,64.0,N,0,384000,390000
a03,65,390000,3900.0,65.0,N,0,390000,396000
a03,66,396000,3960.0,66.0,N,0,396000,402000
a03,67,402000,4020.0,67.0,N,0,402000,408000
a03,68,408000,4080.0,68.0,N,0,408000,414000
a03,69,414000,4140.0,69.0,N,0,414000,420000
a03,70,420000,4200.0,70.0,N,0,420000,426000
a03,71,426000,4260.0,71.0,N,0,426000,432000
a03,72,432000,4320.0,72.0,N,0,432000,438000
a03,73,438000,4380.0,73.0,N,0,438000,444000
a03,74,444000,4440.0,74.0,N,0,444000,450000
a03,75,450000,4500.0,75.0,N,0,450000,456000
a03,76,456000,4560.0,76.0,N,0,456000,462000
a03,77,462000,4620.0,77.0,N,0,462000,468000
a03,78,468000,4680.0,78.0,N,0,468000,474000
a03,79,474000,4740.0,79.0,N,0,474000,480000
a03,80,480000,4800.0,80.0,N,0,480000,486000
a03,81,486000,4860.0,81.0,N,0,486000,492000
a03,82,492000,4920.0,82.0,N,0,492000,498000
a03,83,498000,4980.0,83.0,N,0,498000,504000
a03,84,504000,5040.0,84.0,N,0,504000,510000
a03,85,510000,5100.0,85.0,N,0,510000,516000
a03,86,516000,5160.0,86.0,N,0,516000,522000
a03,87,522000,5220.0,87.0,N,0,522000,528000
a03,88,528000,5280.0,88.0,N,0,528000,534000
a03,89,534000,5340.0,89.0,N,0,534000,540000
a03,90,540000,5400.0,90.0,N,0,540000,546000
a03,91,546000,5460.0,91.0,N,0,546000,552000
a03,92,552000,5520.0,92.0,N,0,552000,558000
a03,93,558000,5580.0,93.0,N,0,558000,564000
a03,94,564000,5640.0,94.0,N,0,564000,570000
a03,95,570000,5700.0,95.0,N,0,570000,576000
a03,96,576000,5760.0,96.0,N,0,576000,582000
a03,97,582000,5820.0,97.0,N,0,582000,588000
a03,98,588000,5880.0,98.0,N,0,588000,594000
a03,99,594000,5940.0,99.0,N,0,594000,600000
a03,100,600000,6000.0,100.0,N,0,600000,606000
a03,101,606000,6060.0,101.0,N,0,606000,612000
a03,102,612000,6120.0,102.0,N,0,612000,618000
a03,103,618000,6180.0,103.0,N,0,618000,624000
a03,104,624000,6240.0,104.0,N,0,624000,630000
a03,105,630000,6300.0,105.0,A,1,630000,636000
a03,106,636000,6360.0,106.0,A,1,636000,642000
a03,107,642000,6420.0,107.0,A,1,642000,648000
a03,108,648000,6480.0,108.0,A,1,648000,654000
a03,109,654000,6540.0,109.0,A,1,654000,660000
a03,110,660000,6600.0,110.0,A,1,660000,666000
a03,111,666000,6660.0,111.0,A,1,666000,672000
a03,112,672000,6720.0,112.0,A,1,672000,678000
a03,113,678000,6780.0,113.0,A,1,678000,684000
a03,114,684000,6840.0,114.0,A,1,684000,690000
a03,115,690000,6900.0,115.0,A,1,690000,696000
a03,116,696000,6960.0,116.0,A,1,696000,702000
a03,117,702000,7020.0,117.0,A,1,702000,708000
a03,118,708000,7080.0,118.0,A,1,708000,714000
a03,119,714000,7140.0,119.0,A,1,714000,720000
a03,120,720000,7200.0,120.0,A,1,720000,726000
a03,121,726000,7260.0,121.0,A,1,726000,732000
a03,122,732000,7320.0,122.0,A,1,732000,738000
a03,123,738000,7380.0,123.0,A,1,738000,744000
a03,124,744000,7440.0,124.0,A,1,744000,750000
a03,125,750000,7500.0,125.0,A,1,750000,756000
a03,126,756000,7560.0,126.0,A,1,756000,762000
a03,127,762000,7620.0,127.0,A,1,762000,768000
a03,128,768000,7680.0,128.0,A,1,768000,774000
a03,129,774000,7740.0,129.0,A,1,774000,780000
a03,130,780000,7800.0,130.0,A,1,780000,786000
a03,131,786000,7860.0,131.0,A,1,786000,792000
a03,132,792000,7920.0,132.0,A,1,792000,798000
a03,133,798000,7980.0,133.0,A,1,798000,804000
a03,134,804000,8040.0,134.0,A,1,804000,810000
a03,135,810000,8100.0,135.0,A,1,810000,816000
a03,136,816000,8160.0,136.0,A,1,816000,822000
a03,137,822000,8220.0,137.0,A,1,822000,828000
a03,138,828000,8280.0,138.0,A,1,828000,834000
a03,139,834000,8340.0,139.0,A,1,834000,840000
a03,140,840000,8400.0,140.0,A,1,840000,846000
a03,141,846000,8460.0,141.0,A,1,846000,852000
a03,142,852000,8520.0,142.0,A,1,852000,858000
a03,143,858000,8580.0,143.0,A,1,858000,864000
a03,144,864000,8640.0,144.0,A,1,864000,870000
a03,145,870000,8700.0,145.0,A,1,870000,876000
a03,146,876000,8760.0,146.0,A,1,876000,882000
a03,147,882000,8820.0,147.0,N,0,882000,888000
a03,148,888000,8880.0,148.0,N,0,888000,894000
a03,149,894000,8940.0,149.0,N,0,894000,900000
a03,150,900000,9000.0,150.0,N,0,900000,906000
a03,151,906000,9060.0,151.0,N,0,906000,912000
a03,152,912000,9120.0,152.0,N,0,912000,918000
a03,153,918000,9180.0,153.0,N,0,918000,924000
a03,154,924000,9240.0,154.0,N,0,924000,930000
a03,155,930000,9300.0,155.0,N,0,930000,936000
a03,156,936000,9360.0,156.0,N,0,936000,942000
a03,157,942000,9420.0,157.0,N,0,942000,948000
a03,158,948000,9480.0,158.0,N,0,948000,954000
a03,159,954000,9540.0,159.0,N,0,954000,960000
a03,160,960000,9600.0,160.0,N,0,960000,966000
a03,161,966000,9660.0,161.0,N,0,966000,972000
a03,162,972000,9720.0,162.0,N,0,972000,978000
a03,163,978000,9780.0,163.0,N,0,978000,984000
a03,164,984000,9840.0,164.0,N,0,984000,990000
a03,165,990000,9900.0,165.0,N,0,990000,996000
a03,166,996000,9960.0,166.0,N,0,996000,1002000
a03,167,1002000,10020.0,167.0,N,0,1002000,1008000
a03,168,1008000,10080.0,168.0,N,0,1008000,1014000
a03,169,1014000,10140.0,169.0,N,0,1014000,1020000
a03,170,1020000,10200.0,170.0,N,0,1020000,1026000
a03,171,1026000,10260.0,171.0,N,0,1026000,1032000
a03,172,1032000,10320.0,172.0,N,0,1032000,1038000
a03,173,1038000,10380.0,173.0,N,0,1038000,1044000
a03,174,1044000,10440.0,174.0,N,0,1044000,1050000
a03,175,1050000,10500.0,175.0,N,0,1050000,1056000
a03,176,1056000,10560.0,176.0,N,0,1056000,1062000
a03,177,1062000,10620.0,177.0,N,0,1062000,1068000
a03,178,1068000,10680.0,178.0,N,0,1068000,1074000
a03,179,1074000,10740.0,179.0,N,0,1074000,1080000
a03,180,1080000,10800.0,180.0,N,0,1080000,1086000
a03,181,1086000,10860.0,181.0,N,0,1086000,1092000
a03,182,1092000,10920.0,182.0,N,0,1092000,1098000
a03,183,1098000,10980.0,183.0,N,0,1098000,1104000
a03,184,1104000,11040.0,184.0,N,0,1104000,1110000
a03,185,1110000,11100.0,185.0,N,0,1110000,1116000
a03,186,1116000,11160.0,186.0,A,1,1116000,1122000
a03,187,1122000,11220.0,187.0,A,1,1122000,1128000
a03,188,1128000,11280.0,188.0,A,1,1128000,1134000
a03,189,1134000,11340.0,189.0,A,1,1134000,1140000
a03,190,1140000,11400.0,190.0,A,1,1140000,1146000
a03,191,1146000,11460.0,191.0,A,1,1146000,1152000
a03,192,1152000,11520.0,192.0,A,1,1152000,1158000
a03,193,1158000,11580.0,193.0,A,1,1158000,1164000
a03,194,1164000,11640.0,194.0,A,1,1164000,1170000
a03,195,1170000,11700.0,195.0,A,1,1170000,1176000
a03,196,1176000,11760.0,196.0,A,1,1176000,1182000
a03,197,1182000,11820.0,197.0,A,1,1182000,1188000
a03,198,1188000,11880.0,198.0,A,1,1188000,1194000
a03,199,1194000,11940.0,199.0,A,1,1194000,1200000
a03,200,1200000,12000.0,200.0,A,1,1200000,1206000
a03,201,1206000,12060.0,201.0,A,1,1206000,1212000
a03,202,1212000,12120.0,202.0,A,1,1212000,1218000
a03,203,1218000,12180.0,203.0,A,1,1218000,1224000
a03,204,1224000,12240.0,204.0,A,1,1224000,1230000
a03,205,1230000,12300.0,205.0,A,1,1230000,1236000
a03,206,1236000,12360.0,206.0,A,1,1236000,1242000
a03,207,1242000,12420.0,207.0,A,1,1242000,1248000
a03,208,1248000,12480.0,208.0,A,1,1248000,1254000
a03,209,1254000,12540.0,209.0,A,1,1254000,1260000
a03,210,1260000,12600.0,210.0,A,1,1260000,1266000
a03,211,1266000,12660.0,211.0,A,1,1266000,1272000
a03,212,1272000,12720.0,212.0,A,1,1272000,1278000
a03,213,1278000,12780.0,213.0,A,1,1278000,1284000
a03,214,1284000,12840.0,214.0,A,1,1284000,1290000
a03,215,1290000,12900.0,215.0,A,1,1290000,1296000
a03,216,1296000,12960.0,216.0,A,1,1296000,1302000
a03,217,1302000,13020.0,217.0,A,1,1302000,1308000
a03,218,1308000,13080.0,218.0,A,1,1308000,1314000
a03,219,1314000,13140.0,219.0,A,1,1314000,1320000
a03,220,1320000,13200.0,220.0,A,1,1320000,1326000
a03,221,1326000,13260.0,221.0,A,1,1326000,1332000
a03,222,1332000,13320.0,222.0,A,1,1332000,1338000
a03,223,1338000,13380.0,223.0,A,1,1338000,1344000
a03,224,1344000,13440.0,224.0,A,1,1344000,1350000
a03,225,1350000,13500.0,225.0,A,1,1350000,1356000
a03,226,1356000,13560.0,226.0,A,1,1356000,1362000
a03,227,1362000,13620.0,227.0,A,1,1362000,1368000
a03,228,1368000,13680.0,228.0,A,1,1368000,1374000
a03,229,1374000,13740.0,229.0,N,0,1374000,1380000
a03,230,1380000,13800.0,230.0,N,0,1380000,1386000
a03,231,1386000,13860.0,231.0,N,0,1386000,1392000
a03,232,1392000,13920.0,232.0,N,0,1392000,1398000
a03,233,1398000,13980.0,233.0,N,0,1398000,1404000
a03,234,1404000,14040.0,234.0,N,0,1404000,1410000
a03,235,1410000,14100.0,235.0,N,0,1410000,1416000
a03,236,1416000,14160.0,236.0,N,0,1416000,1422000
a03,237,1422000,14220.0,237.0,N,0,1422000,1428000
a03,238,1428000,14280.0,238.0,N,0,1428000,1434000
a03,239,1434000,14340.0,239.0,N,0,1434000,1440000
a03,240,1440000,14400.0,240.0,A,1,1440000,1446000
a03,241,1446000,14460.0,241.0,A,1,1446000,1452000
a03,242,1452000,14520.0,242.0,A,1,1452000,1458000
a03,243,1458000,14580.0,243.0,A,1,1458000,1464000
a03,244,1464000,14640.0,244.0,A,1,1464000,1470000
a03,245,1470000,14700.0,245.0,A,1,1470000,1476000
a03,246,1476000,14760.0,246.0,A,1,1476000,1482000
a03,247,1482000,14820.0,247.0,A,1,1482000,1488000
a03,248,1488000,14880.0,248.0,A,1,1488000,1494000
a03,249,1494000,14940.0,249.0,A,1,1494000,1500000
a03,250,1500000,15000.0,250.0,A,1,1500000,1506000
a03,251,1506000,15060.0,251.0,A,1,1506000,1512000
a03,252,1512000,15120.0,252.0,A,1,1512000,1518000
a03,253,1518000,15180.0,253.0,A,1,1518000,1524000
a03,254,1524000,15240.0,254.0,A,1,1524000,1530000
a03,255,1530000,15300.0,255.0,A,1,1530000,1536000
a03,256,1536000,15360.0,256.0,A,1,1536000,1542000
a03,257,1542000,15420.0,257.0,A,1,1542000,1548000
a03,258,1548000,15480.0,258.0,N,0,1548000,1554000
a03,259,1554000,15540.0,259.0,N,0,1554000,1560000
a03,260,1560000,15600.0,260.0,N,0,1560000,1566000
a03,261,1566000,15660.0,261.0,N,0,1566000,1572000
a03,262,1572000,15720.0,262.0,N,0,1572000,1578000
a03,263,1578000,15780.0,263.0,N,0,1578000,1584000
a03,264,1584000,15840.0,264.0,N,0,1584000,1590000
a03,265,1590000,15900.0,265.0,N,0,1590000,1596000
a03,266,1596000,15960.0,266.0,N,0,1596000,1602000
a03,267,1602000,16020.0,267.0,N,0,1602000,1608000
a03,268,1608000,16080.0,268.0,N,0,1608000,1614000
a03,269,1614000,16140.0,269.0,N,0,1614000,1620000
a03,270,1620000,16200.0,270.0,N,0,1620000,1626000
a03,271,1626000,16260.0,271.0,N,0,1626000,1632000
a03,272,1632000,16320.0,272.0,N,0,1632000,1638000
a03,273,1638000,16380.0,273.0,N,0,1638000,1644000
a03,274,1644000,16440.0,274.0,N,0,1644000,1650000
a03,275,1650000,16500.0,275.0,N,0,1650000,1656000
a03,276,1656000,16560.0,276.0,N,0,1656000,1662000
a03,277,1662000,16620.0,277.0,N,0,1662000,1668000
a03,278,1668000,16680.0,278.0,N,0,1668000,1674000
a03,279,1674000,16740.0,279.0,N,0,1674000,1680000
a03,280,1680000,16800.0,280.0,N,0,1680000,1686000
a03,281,1686000,16860.0,281.0,N,0,1686000,1692000
a03,282,1692000,16920.0,282.0,N,0,1692000,1698000
a03,283,1698000,16980.0,283.0,N,0,1698000,1704000
a03,284,1704000,17040.0,284.0,N,0,1704000,1710000
a03,285,1710000,17100.0,285.0,N,0,1710000,1716000
a03,286,1716000,17160.0,286.0,N,0,1716000,1722000
a03,287,1722000,17220.0,287.0,N,0,1722000,1728000
a03,288,1728000,17280.0,288.0,N,0,1728000,1734000
a03,289,1734000,17340.0,289.0,N,0,1734000,1740000
a03,290,1740000,17400.0,290.0,A,1,1740000,1746000
a03,291,1746000,17460.0,291.0,A,1,1746000,1752000
a03,292,1752000,17520.0,292.0,A,1,1752000,1758000
a03,293,1758000,17580.0,293.0,A,1,1758000,1764000
a03,294,1764000,17640.0,294.0,A,1,1764000,1770000
a03,295,1770000,17700.0,295.0,A,1,1770000,1776000
a03,296,1776000,17760.0,296.0,A,1,1776000,1782000
a03,297,1782000,17820.0,297.0,A,1,1782000,1788000
a03,298,1788000,17880.0,298.0,A,1,1788000,1794000
a03,299,1794000,17940.0,299.0,A,1,1794000,1800000
a03,300,1800000,18000.0,300.0,A,1,1800000,1806000
a03,301,1806000,18060.0,301.0,A,1,1806000,1812000
a03,302,1812000,18120.0,302.0,A,1,1812000,1818000
a03,303,1818000,18180.0,303.0,N,0,1818000,1824000
a03,304,1824000,18240.0,304.0,N,0,1824000,1830000
a03,305,1830000,18300.0,305.0,N,0,1830000,1836000
a03,306,1836000,18360.0,306.0,N,0,1836000,1842000
a03,307,1842000,18420.0,307.0,N,0,1842000,1848000
a03,308,1848000,18480.0,308.0,N,0,1848000,1854000
a03,309,1854000,18540.0,309.0,N,0,1854000,1860000
a03,310,1860000,18600.0,310.0,N,0,1860000,1866000
a03,311,1866000,18660.0,311.0,N,0,1866000,1872000
a03,312,1872000,18720.0,312.0,N,0,1872000,1878000
a03,313,1878000,18780.0,313.0,N,0,1878000,1884000
a03,314,1884000,18840.0,314.0,N,0,1884000,1890000
a03,315,1890000,18900.0,315.0,N,0,1890000,1896000
a03,316,1896000,18960.0,316.0,N,0,1896000,1902000
a03,317,1902000,19020.0,317.0,N,0,1902000,1908000
a03,318,1908000,19080.0,318.0,N,0,1908000,1914000
a03,319,1914000,19140.0,319.0,N,0,1914000,1920000
a03,320,1920000,19200.0,320.0,N,0,1920000,1926000
a03,321,1926000,19260.0,321.0,N,0,1926000,1932000
a03,322,1932000,19320.0,322.0,N,0,1932000,1938000
a03,323,1938000,19380.0,323.0,N,0,1938000,1944000
a03,324,1944000,19440.0,324.0,N,0,1944000,1950000
a03,325,1950000,19500.0,325.0,N,0,1950000,1956000
a03,326,1956000,19560.0,326.0,N,0,1956000,1962000
a03,327,1962000,19620.0,327.0,N,0,1962000,1968000
a03,328,1968000,19680.0,328.0,N,0,1968000,1974000
a03,329,1974000,19740.0,329.0,N,0,1974000,1980000
a03,330,1980000,19800.0,330.0,N,0,1980000,1986000
a03,331,1986000,19860.0,331.0,N,0,1986000,1992000
a03,332,1992000,19920.0,332.0,N,0,1992000,1998000
a03,333,1998000,19980.0,333.0,N,0,1998000,2004000
a03,334,2004000,20040.0,334.0,N,0,2004000,2010000
a03,335,2010000,20100.0,335.0,N,0,2010000,2016000
a03,336,2016000,20160.0,336.0,N,0,2016000,2022000
a03,337,2022000,20220.0,337.0,N,0,2022000,2028000
a03,338,2028000,20280.0,338.0,N,0,2028000,2034000
a03,339,2034000,20340.0,339.0,N,0,2034000,2040000
a03,340,2040000,20400.0,340.0,N,0,2040000,2046000
a03,341,2046000,20460.0,341.0,N,0,2046000,2052000
a03,342,2052000,20520.0,342.0,N,0,2052000,2058000
a03,343,2058000,20580.0,343.0,N,0,2058000,2064000
a03,344,2064000,20640.0,344.0,N,0,2064000,2070000
a03,345,2070000,20700.0,345.0,N,0,2070000,2076000
a03,346,2076000,20760.0,346.0,N,0,2076000,2082000
a03,347,2082000,20820.0,347.0,A,1,2082000,2088000
a03,348,2088000,20880.0,348.0,A,1,2088000,2094000
a03,349,2094000,20940.0,349.0,A,1,2094000,2100000
a03,350,2100000,21000.0,350.0,A,1,2100000,2106000
a03,351,2106000,21060.0,351.0,A,1,2106000,2112000
a03,352,2112000,21120.0,352.0,A,1,2112000,2118000
a03,353,2118000,21180.0,353.0,N,0,2118000,2124000
a03,354,2124000,21240.0,354.0,N,0,2124000,2130000
a03,355,2130000,21300.0,355.0,N,0,2130000,2136000
a03,356,2136000,21360.0,356.0,N,0,2136000,2142000
a03,357,2142000,21420.0,357.0,N,0,2142000,2148000
a03,358,2148000,21480.0,358.0,N,0,2148000,2154000
a03,359,2154000,21540.0,359.0,N,0,2154000,2160000
a03,360,2160000,21600.0,360.0,N,0,2160000,2166000
a03,361,2166000,21660.0,361.0,N,0,2166000,2172000
a03,362,2172000,21720.0,362.0,N,0,2172000,2178000
a03,363,2178000,21780.0,363.0,N,0,2178000,2184000
a03,364,2184000,21840.0,364.0,N,0,2184000,2190000
a03,365,2190000,21900.0,365.0,N,0,2190000,2196000
a03,366,2196000,21960.0,366.0,N,0,2196000,2202000
a03,367,2202000,22020.0,367.0,N,0,2202000,2208000
a03,368,2208000,22080.0,368.0,N,0,2208000,2214000
a03,369,2214000,22140.0,369.0,N,0,2214000,2220000
a03,370,2220000,22200.0,370.0,N,0,2220000,2226000
a03,371,2226000,22260.0,371.0,N,0,2226000,2232000
a03,372,2232000,22320.0,372.0,N,0,2232000,2238000
a03,373,2238000,22380.0,373.0,N,0,2238000,2244000
a03,374,2244000,22440.0,374.0,N,0,2244000,2250000
a03,375,2250000,22500.0,375.0,N,0,2250000,2256000
a03,376,2256000,22560.0,376.0,N,0,2256000,2262000
a03,377,2262000,22620.0,377.0,N,0,2262000,2268000
a03,378,2268000,22680.0,378.0,N,0,2268000,2274000
a03,379,2274000,22740.0,379.0,N,0,2274000,2280000
a03,380,2280000,22800.0,380.0,N,0,2280000,2286000
a03,381,2286000,22860.0,381.0,N,0,2286000,2292000
a03,382,2292000,22920.0,382.0,N,0,2292000,2298000
a03,383,2298000,22980.0,383.0,N,0,2298000,2304000
a03,384,2304000,23040.0,384.0,N,0,2304000,2310000
a03,385,2310000,23100.0,385.0,A,1,2310000,2316000
a03,386,2316000,23160.0,386.0,A,1,2316000,2322000
a03,387,2322000,23220.0,387.0,A,1,2322000,2328000
a03,388,2328000,23280.0,388.0,A,1,2328000,2334000
a03,389,2334000,23340.0,389.0,A,1,2334000,2340000
a03,390,2340000,23400.0,390.0,A,1,2340000,2346000
a03,391,2346000,23460.0,391.0,A,1,2346000,2352000
a03,392,2352000,23520.0,392.0,A,1,2352000,2358000
a03,393,2358000,23580.0,393.0,A,1,2358000,2364000
a03,394,2364000,23640.0,394.0,A,1,2364000,2370000
a03,395,2370000,23700.0,395.0,A,1,2370000,2376000
a03,396,2376000,23760.0,396.0,A,1,2376000,2382000
a03,397,2382000,23820.0,397.0,A,1,2382000,2388000
a03,398,2388000,23880.0,398.0,A,1,2388000,2394000
a03,399,2394000,23940.0,399.0,A,1,2394000,2400000
a03,400,2400000,24000.0,400.0,A,1,2400000,2406000
a03,401,2406000,24060.0,401.0,A,1,2406000,2412000
a03,402,2412000,24120.0,402.0,A,1,2412000,2418000
a03,403,2418000,24180.0,403.0,A,1,2418000,2424000
a03,404,2424000,24240.0,404.0,A,1,2424000,2430000
a03,405,2430000,24300.0,405.0,A,1,2430000,2436000
a03,406,2436000,24360.0,406.0,N,0,2436000,2442000
a03,407,2442000,24420.0,407.0,N,0,2442000,2448000
a03,408,2448000,24480.0,408.0,N,0,2448000,2454000
a03,409,2454000,24540.0,409.0,N,0,2454000,2460000
a03,410,2460000,24600.0,410.0,N,0,2460000,2466000
a03,411,2466000,24660.0,411.0,A,1,2466000,2472000
a03,412,2472000,24720.0,412.0,A,1,2472000,2478000
a03,413,2478000,24780.0,413.0,A,1,2478000,2484000
a03,414,2484000,24840.0,414.0,A,1,2484000,2490000
a03,415,2490000,24900.0,415.0,A,1,2490000,2496000
a03,416,2496000,24960.0,416.0,A,1,2496000,2502000
a03,417,2502000,25020.0,417.0,N,0,2502000,2508000
a03,418,2508000,25080.0,418.0,N,0,2508000,2514000
a03,419,2514000,25140.0,419.0,N,0,2514000,2520000
a03,420,2520000,25200.0,420.0,N,0,2520000,2526000
a03,421,2526000,25260.0,421.0,N,0,2526000,2532000
a03,422,2532000,25320.0,422.0,N,0,2532000,2538000
a03,423,2538000,25380.0,423.0,N,0,2538000,2544000
a03,424,2544000,25440.0,424.0,N,0,2544000,2550000
a03,425,2550000,25500.0,425.0,N,0,2550000,2556000
a03,426,2556000,25560.0,426.0,N,0,2556000,2562000
a03,427,2562000,25620.0,427.0,A,1,2562000,2568000
a03,428,2568000,25680.0,428.0,A,1,2568000,2574000
a03,429,2574000,25740.0,429.0,A,1,2574000,2580000
a03,430,2580000,25800.0,430.0,A,1,2580000,2586000
a03,431,2586000,25860.0,431.0,A,1,2586000,2592000
a03,432,2592000,25920.0,432.0,A,1,2592000,2598000
a03,433,2598000,25980.0,433.0,A,1,2598000,2604000
a03,434,2604000,26040.0,434.0,A,1,2604000,2610000
a03,435,2610000,26100.0,435.0,A,1,2610000,2616000
a03,436,2616000,26160.0,436.0,A,1,2616000,2622000
a03,437,2622000,26220.0,437.0,A,1,2622000,2628000
a03,438,2628000,26280.0,438.0,A,1,2628000,2634000
a03,439,2634000,26340.0,439.0,A,1,2634000,2640000
a03,440,2640000,26400.0,440.0,A,1,2640000,2646000
a03,441,2646000,26460.0,441.0,A,1,2646000,2652000
a03,442,2652000,26520.0,442.0,A,1,2652000,2658000
a03,443,2658000,26580.0,443.0,N,0,2658000,2664000
a03,444,2664000,26640.0,444.0,N,0,2664000,2670000
a03,445,2670000,26700.0,445.0,N,0,2670000,2676000
a03,446,2676000,26760.0,446.0,N,0,2676000,2682000
a03,447,2682000,26820.0,447.0,N,0,2682000,2688000
a03,448,2688000,26880.0,448.0,N,0,2688000,2694000
a03,449,2694000,26940.0,449.0,N,0,2694000,2700000
a03,450,2700000,27000.0,450.0,N,0,2700000,2706000
a03,451,2706000,27060.0,451.0,N,0,2706000,2712000
a03,452,2712000,27120.0,452.0,N,0,2712000,2718000
a03,453,2718000,27180.0,453.0,N,0,2718000,2724000
a03,454,2724000,27240.0,454.0,N,0,2724000,2730000
a03,455,2730000,27300.0,455.0,N,0,2730000,2736000
a03,456,2736000,27360.0,456.0,N,0,2736000,2742000
a03,457,2742000,27420.0,457.0,N,0,2742000,2748000
a03,458,2748000,27480.0,458.0,N,0,2748000,2754000
a03,459,2754000,27540.0,459.0,N,0,2754000,2760000
a03,460,2760000,27600.0,460.0,N,0,2760000,2766000
a03,461,2766000,27660.0,461.0,N,0,2766000,2772000
a03,462,2772000,27720.0,462.0,N,0,2772000,2778000
a03,463,2778000,27780.0,463.0,N,0,2778000,2784000
a03,464,2784000,27840.0,464.0,N,0,2784000,2790000
a03,465,2790000,27900.0,465.0,N,0,2790000,2796000
a03,466,2796000,27960.0,466.0,N,0,2796000,2802000
a03,467,2802000,28020.0,467.0,N,0,2802000,2808000
a03,468,2808000,28080.0,468.0,N,0,2808000,2814000
a03,469,2814000,28140.0,469.0,N,0,2814000,2820000
a03,470,2820000,28200.0,470.0,A,1,2820000,2826000
a03,471,2826000,28260.0,471.0,A,1,2826000,2832000
a03,472,2832000,28320.0,472.0,A,1,2832000,2838000
a03,473,2838000,28380.0,473.0,A,1,2838000,2844000
a03,474,2844000,28440.0,474.0,A,1,2844000,2850000
a03,475,2850000,28500.0,475.0,A,1,2850000,2856000
a03,476,2856000,28560.0,476.0,A,1,2856000,2862000
a03,477,2862000,28620.0,477.0,A,1,2862000,2868000
a03,478,2868000,28680.0,478.0,A,1,2868000,2874000
a03,479,2874000,28740.0,479.0,A,1,2874000,2880000
a03,480,2880000,28800.0,480.0,A,1,2880000,2886000
a03,481,2886000,28860.0,481.0,A,1,2886000,2892000
a03,482,2892000,28920.0,482.0,A,1,2892000,2898000
a03,483,2898000,28980.0,483.0,A,1,2898000,2904000
a03,484,2904000,29040.0,484.0,A,1,2904000,2910000
a03,485,2910000,29100.0,485.0,A,1,2910000,2916000
a03,486,2916000,29160.0,486.0,A,1,2916000,2922000
a03,487,2922000,29220.0,487.0,A,1,2922000,2928000
a03,488,2928000,29280.0,488.0,A,1,2928000,2934000
a03,489,2934000,29340.0,489.0,A,1,2934000,2940000
a03,490,2940000,29400.0,490.0,A,1,2940000,2946000
a03,491,2946000,29460.0,491.0,A,1,2946000,2952000
a03,492,2952000,29520.0,492.0,N,0,2952000,2958000
a03,493,2958000,29580.0,493.0,N,0,2958000,2964000
a03,494,2964000,29640.0,494.0,N,0,2964000,2970000
a03,495,2970000,29700.0,495.0,N,0,2970000,2976000
a03,496,2976000,29760.0,496.0,N,0,2976000,2982000
a03,497,2982000,29820.0,497.0,N,0,2982000,2988000
a03,498,2988000,29880.0,498.0,N,0,2988000,2994000
a03,499,2994000,29940.0,499.0,N,0,2994000,3000000
a03,500,3000000,30000.0,500.0,N,0,3000000,3006000
a03,501,3006000,30060.0,501.0,N,0,3006000,3012000
a03,502,3012000,30120.0,502.0,N,0,3012000,3018000
a03,503,3018000,30180.0,503.0,N,0,3018000,3024000
a03,504,3024000,30240.0,504.0,N,0,3024000,3030000
a03,505,3030000,30300.0,505.0,N,0,3030000,3036000
a03,506,3036000,30360.0,506.0,N,0,3036000,3042000
a03,507,3042000,30420.0,507.0,A,1,3042000,3048000
a03,508,3048000,30480.0,508.0,A,1,3048000,3054000
a03,509,3054000,30540.0,509.0,A,1,3054000,3060000
a03,510,3060000,30600.0,510.0,A,1,3060000,3066000
a03,511,3066000,30660.0,511.0,A,1,3066000,3072000
a03,512,3072000,30720.0,512.0,A,1,3072000,3078000
a03,513,3078000,30780.0,513.0,A,1,3078000,3084000
a03,514,3084000,30840.0,514.0,A,1,3084000,3090000
a03,515,3090000,30900.0,515.0,A,1,3090000,3096000
a03,516,3096000,30960.0,516.0,A,1,3096000,3102000
a03,517,3102000,31020.0,517.0,A,1,3102000,3108000
a03,518,3108000,31080.0,518.0,A,1,3108000,3114000
a05,0,0,0.0,0.0,N,0,0,6000
a05,1,6000,60.0,1.0,N,0,6000,12000
a05,2,12000,120.0,2.0,N,0,12000,18000
a05,3,18000,180.0,3.0,N,0,18000,24000
a05,4,24000,240.0,4.0,N,0,24000,30000
a05,5,30000,300.0,5.0,N,0,30000,36000
a05,6,36000,360.0,6.0,N,0,36000,42000
a05,7,42000,420.0,7.0,N,0,42000,48000
a05,8,48000,480.0,8.0,N,0,48000,54000
a05,9,54000,540.0,9.0,N,0,54000,60000
a05,10,60000,600.0,10.0,N,0,60000,66000
a05,11,66000,660.0,11.0,N,0,66000,72000
a05,12,72000,720.0,12.0,N,0,72000,78000
a05,13,78000,780.0,13.0,N,0,78000,84000
a05,14,84000,840.0,14.0,A,1,84000,90000
a05,15,90000,900.0,15.0,A,1,90000,96000
a05,16,96000,960.0,16.0,A,1,96000,102000
a05,17,102000,1020.0,17.0,A,1,102000,108000
a05,18,108000,1080.0,18.0,A,1,108000,114000
a05,19,114000,1140.0,19.0,A,1,114000,120000
a05,20,120000,1200.0,20.0,A,1,120000,126000
a05,21,126000,1260.0,21.0,A,1,126000,132000
a05,22,132000,1320.0,22.0,A,1,132000,138000
a05,23,138000,1380.0,23.0,A,1,138000,144000
a05,24,144000,1440.0,24.0,A,1,144000,150000
a05,25,150000,1500.0,25.0,A,1,150000,156000
a05,26,156000,1560.0,26.0,A,1,156000,162000
a05,27,162000,1620.0,27.0,A,1,162000,168000
a05,28,168000,1680.0,28.0,A,1,168000,174000
a05,29,174000,1740.0,29.0,A,1,174000,180000
a05,30,180000,1800.0,30.0,A,1,180000,186000
a05,31,186000,1860.0,31.0,A,1,186000,192000
a05,32,192000,1920.0,32.0,A,1,192000,198000
a05,33,198000,1980.0,33.0,N,0,198000,204000
a05,34,204000,2040.0,34.0,N,0,204000,210000
a05,35,210000,2100.0,35.0,N,0,210000,216000
a05,36,216000,2160.0,36.0,N,0,216000,222000
a05,37,222000,2220.0,37.0,N,0,222000,228000
a05,38,228000,2280.0,38.0,N,0,228000,234000
a05,39,234000,2340.0,39.0,N,0,234000,240000
a05,40,240000,2400.0,40.0,N,0,240000,246000
a05,41,246000,2460.0,41.0,N,0,246000,252000
a05,42,252000,2520.0,42.0,N,0,252000,258000
a05,43,258000,2580.0,43.0,N,0,258000,264000
a05,44,264000,2640.0,44.0,N,0,264000,270000
a05,45,270000,2700.0,45.0,N,0,270000,276000
a05,46,276000,2760.0,46.0,N,0,276000,282000
a05,47,282000,2820.0,47.0,N,0,282000,288000
a05,48,288000,2880.0,48.0,N,0,288000,294000
a05,49,294000,2940.0,49.0,N,0,294000,300000
a05,50,300000,3000.0,50.0,N,0,300000,306000
a05,51,306000,3060.0,51.0,N,0,306000,312000
a05,52,312000,3120.0,52.0,N,0,312000,318000
a05,53,318000,3180.0,53.0,N,0,318000,324000
a05,54,324000,3240.0,54.0,N,0,324000,330000
a05,55,330000,3300.0,55.0,N,0,330000,336000
a05,56,336000,3360.0,56.0,N,0,336000,342000
a05,57,342000,3420.0,57.0,N,0,342000,348000
a05,58,348000,3480.0,58.0,N,0,348000,354000
a05,59,354000,3540.0,59.0,N,0,354000,360000
a05,60,360000,3600.0,60.0,N,0,360000,366000
a05,61,366000,3660.0,61.0,N,0,366000,372000
a05,62,372000,3720.0,62.0,N,0,372000,378000
a05,63,378000,3780.0,63.0,N,0,378000,384000
a05,64,384000,3840.0,64.0,N,0,384000,390000
a05,65,390000,3900.0,65.0,N,0,390000,396000
a05,66,396000,3960.0,66.0,N,0,396000,402000
a05,67,402000,4020.0,67.0,A,1,402000,408000
a05,68,408000,4080.0,68.0,A,1,408000,414000
a05,69,414000,4140.0,69.0,A,1,414000,420000
a05,70,420000,4200.0,70.0,N,0,420000,426000
a05,71,426000,4260.0,71.0,N,0,426000,432000
a05,72,432000,4320.0,72.0,N,0,432000,438000
a05,73,438000,4380.0,73.0,N,0,438000,444000
a05,74,444000,4440.0,74.0,N,0,444000,450000
a05,75,450000,4500.0,75.0,N,0,450000,456000
a05,76,456000,4560.0,76.0,N,0,456000,462000
a05,77,462000,4620.0,77.0,N,0,462000,468000
a05,78,468000,4680.0,78.0,N,0,468000,474000
a05,79,474000,4740.0,79.0,N,0,474000,480000
a05,80,480000,4800.0,80.0,N,0,480000,486000
a05,81,486000,4860.0,81.0,N,0,486000,492000
a05,82,492000,4920.0,82.0,N,0,492000,498000
a05,83,498000,4980.0,83.0,N,0,498000,504000
a05,84,504000,5040.0,84.0,N,0,504000,510000
a05,85,510000,5100.0,85.0,N,0,510000,516000
a05,86,516000,5160.0,86.0,N,0,516000,522000
a05,87,522000,5220.0,87.0,N,0,522000,528000
a05,88,528000,5280.0,88.0,N,0,528000,534000
a05,89,534000,5340.0,89.0,N,0,534000,540000
a05,90,540000,5400.0,90.0,N,0,540000,546000
a05,91,546000,5460.0,91.0,N,0,546000,552000
a05,92,552000,5520.0,92.0,N,0,552000,558000
a05,93,558000,5580.0,93.0,A,1,558000,564000
a05,94,564000,5640.0,94.0,A,1,564000,570000
a05,95,570000,5700.0,95.0,A,1,570000,576000
a05,96,576000,5760.0,96.0,A,1,576000,582000
a05,97,582000,5820.0,97.0,A,1,582000,588000
a05,98,588000,5880.0,98.0,A,1,588000,594000
a05,99,594000,5940.0,99.0,A,1,594000,600000
a05,100,600000,6000.0,100.0,A,1,600000,606000
a05,101,606000,6060.0,101.0,A,1,606000,612000
a05,102,612000,6120.0,102.0,A,1,612000,618000
a05,103,618000,6180.0,103.0,A,1,618000,624000
a05,104,624000,6240.0,104.0,A,1,624000,630000
a05,105,630000,6300.0,105.0,A,1,630000,636000
a05,106,636000,6360.0,106.0,A,1,636000,642000
a05,107,642000,6420.0,107.0,A,1,642000,648000
a05,108,648000,6480.0,108.0,A,1,648000,654000
a05,109,654000,6540.0,109.0,A,1,654000,660000
a05,110,660000,6600.0,110.0,A,1,660000,666000
a05,111,666000,6660.0,111.0,A,1,666000,672000
a05,112,672000,6720.0,112.0,A,1,672000,678000
a05,113,678000,6780.0,113.0,A,1,678000,684000
a05,114,684000,6840.0,114.0,A,1,684000,690000
a05,115,690000,6900.0,115.0,A,1,690000,696000
a05,116,696000,6960.0,116.0,A,1,696000,702000
a05,117,702000,7020.0,117.0,A,1,702000,708000
a05,118,708000,7080.0,118.0,A,1,708000,714000
a05,119,714000,7140.0,119.0,A,1,714000,720000
a05,120,720000,7200.0,120.0,A,1,720000,726000
a05,121,726000,7260.0,121.0,A,1,726000,732000
a05,122,732000,7320.0,122.0,A,1,732000,738000
a05,123,738000,7380.0,123.0,A,1,738000,744000
a05,124,744000,7440.0,124.0,A,1,744000,750000
a05,125,750000,7500.0,125.0,A,1,750000,756000
a05,126,756000,7560.0,126.0,A,1,756000,762000
a05,127,762000,7620.0,127.0,A,1,762000,768000
a05,128,768000,7680.0,128.0,A,1,768000,774000
a05,129,774000,7740.0,129.0,A,1,774000,780000
a05,130,780000,7800.0,130.0,A,1,780000,786000
a05,131,786000,7860.0,131.0,A,1,786000,792000
a05,132,792000,7920.0,132.0,A,1,792000,798000
a05,133,798000,7980.0,133.0,A,1,798000,804000
a05,134,804000,8040.0,134.0,A,1,804000,810000
a05,135,810000,8100.0,135.0,A,1,810000,816000
a05,136,816000,8160.0,136.0,A,1,816000,822000
a05,137,822000,8220.0,137.0,A,1,822000,828000
a05,138,828000,8280.0,138.0,A,1,828000,834000
a05,139,834000,8340.0,139.0,A,1,834000,840000
a05,140,840000,8400.0,140.0,A,1,840000,846000
a05,141,846000,8460.0,141.0,A,1,846000,852000
a05,142,852000,8520.0,142.0,A,1,852000,858000
a05,143,858000,8580.0,143.0,A,1,858000,864000
a05,144,864000,8640.0,144.0,A,1,864000,870000
a05,145,870000,8700.0,145.0,A,1,870000,876000
a05,146,876000,8760.0,146.0,A,1,876000,882000
a05,147,882000,8820.0,147.0,A,1,882000,888000
a05,148,888000,8880.0,148.0,A,1,888000,894000
a05,149,894000,8940.0,149.0,A,1,894000,900000
a05,150,900000,9000.0,150.0,N,0,900000,906000
a05,151,906000,9060.0,151.0,N,0,906000,912000
a05,152,912000,9120.0,152.0,N,0,912000,918000
a05,153,918000,9180.0,153.0,N,0,918000,924000
a05,154,924000,9240.0,154.0,N,0,924000,930000
a05,155,930000,9300.0,155.0,N,0,930000,936000
a05,156,936000,9360.0,156.0,N,0,936000,942000
a05,157,942000,9420.0,157.0,N,0,942000,948000
a05,158,948000,9480.0,158.0,N,0,948000,954000
a05,159,954000,9540.0,159.0,A,1,954000,960000
a05,160,960000,9600.0,160.0,A,1,960000,966000
a05,161,966000,9660.0,161.0,A,1,966000,972000
a05,162,972000,9720.0,162.0,A,1,972000,978000
a05,163,978000,9780.0,163.0,A,1,978000,984000
a05,164,984000,9840.0,164.0,A,1,984000,990000
a05,165,990000,9900.0,165.0,A,1,990000,996000
a05,166,996000,9960.0,166.0,A,1,996000,1002000
a05,167,1002000,10020.0,167.0,A,1,1002000,1008000
a05,168,1008000,10080.0,168.0,A,1,1008000,1014000
a05,169,1014000,10140.0,169.0,A,1,1014000,1020000
a05,170,1020000,10200.0,170.0,A,1,1020000,1026000
a05,171,1026000,10260.0,171.0,A,1,1026000,1032000
a05,172,1032000,10320.0,172.0,A,1,1032000,1038000
a05,173,1038000,10380.0,173.0,A,1,1038000,1044000
a05,174,1044000,10440.0,174.0,A,1,1044000,1050000
a05,175,1050000,10500.0,175.0,A,1,1050000,1056000
a05,176,1056000,10560.0,176.0,A,1,1056000,1062000
a05,177,1062000,10620.0,177.0,A,1,1062000,1068000
a05,178,1068000,10680.0,178.0,A,1,1068000,1074000
a05,179,1074000,10740.0,179.0,A,1,1074000,1080000
a05,180,1080000,10800.0,180.0,A,1,1080000,1086000
a05,181,1086000,10860.0,181.0,A,1,1086000,1092000
a05,182,1092000,10920.0,182.0,A,1,1092000,1098000
a05,183,1098000,10980.0,183.0,A,1,1098000,1104000
a05,184,1104000,11040.0,184.0,A,1,1104000,1110000
a05,185,1110000,11100.0,185.0,A,1,1110000,1116000
a05,186,1116000,11160.0,186.0,A,1,1116000,1122000
a05,187,1122000,11220.0,187.0,A,1,1122000,1128000
a05,188,1128000,11280.0,188.0,A,1,1128000,1134000
a05,189,1134000,11340.0,189.0,A,1,1134000,1140000
a05,190,1140000,11400.0,190.0,A,1,1140000,1146000
a05,191,1146000,11460.0,191.0,A,1,1146000,1152000
a05,192,1152000,11520.0,192.0,A,1,1152000,1158000
a05,193,1158000,11580.0,193.0,A,1,1158000,1164000
a05,194,1164000,11640.0,194.0,A,1,1164000,1170000
a05,195,1170000,11700.0,195.0,A,1,1170000,1176000
a05,196,1176000,11760.0,196.0,A,1,1176000,1182000
a05,197,1182000,11820.0,197.0,A,1,1182000,1188000
a05,198,1188000,11880.0,198.0,A,1,1188000,1194000
a05,199,1194000,11940.0,199.0,A,1,1194000,1200000
a05,200,1200000,12000.0,200.0,A,1,1200000,1206000
a05,201,1206000,12060.0,201.0,A,1,1206000,1212000
a05,202,1212000,12120.0,202.0,A,1,1212000,1218000
a05,203,1218000,12180.0,203.0,A,1,1218000,1224000
a05,204,1224000,12240.0,204.0,A,1,1224000,1230000
a05,205,1230000,12300.0,205.0,A,1,1230000,1236000
a05,206,1236000,12360.0,206.0,A,1,1236000,1242000
a05,207,1242000,12420.0,207.0,A,1,1242000,1248000
a05,208,1248000,12480.0,208.0,A,1,1248000,1254000
a05,209,1254000,12540.0,209.0,A,1,1254000,1260000
a05,210,1260000,12600.0,210.0,A,1,1260000,1266000
a05,211,1266000,12660.0,211.0,A,1,1266000,1272000
a05,212,1272000,12720.0,212.0,A,1,1272000,1278000
a05,213,1278000,12780.0,213.0,A,1,1278000,1284000
a05,214,1284000,12840.0,214.0,A,1,1284000,1290000
a05,215,1290000,12900.0,215.0,N,0,1290000,1296000
a05,216,1296000,12960.0,216.0,N,0,1296000,1302000
a05,217,1302000,13020.0,217.0,N,0,1302000,1308000
a05,218,1308000,13080.0,218.0,N,0,1308000,1314000
a05,219,1314000,13140.0,219.0,N,0,1314000,1320000
a05,220,1320000,13200.0,220.0,N,0,1320000,1326000
a05,221,1326000,13260.0,221.0,N,0,1326000,1332000
a05,222,1332000,13320.0,222.0,N,0,1332000,1338000
a05,223,1338000,13380.0,223.0,N,0,1338000,1344000
a05,224,1344000,13440.0,224.0,N,0,1344000,1350000
a05,225,1350000,13500.0,225.0,N,0,1350000,1356000
a05,226,1356000,13560.0,226.0,N,0,1356000,1362000
a05,227,1362000,13620.0,227.0,N,0,1362000,1368000
a05,228,1368000,13680.0,228.0,N,0,1368000,1374000
a05,229,1374000,13740.0,229.0,N,0,1374000,1380000
a05,230,1380000,13800.0,230.0,N,0,1380000,1386000
a05,231,1386000,13860.0,231.0,N,0,1386000,1392000
a05,232,1392000,13920.0,232.0,N,0,1392000,1398000
a05,233,1398000,13980.0,233.0,N,0,1398000,1404000
a05,234,1404000,14040.0,234.0,N,0,1404000,1410000
a05,235,1410000,14100.0,235.0,N,0,1410000,1416000
a05,236,1416000,14160.0,236.0,N,0,1416000,1422000
a05,237,1422000,14220.0,237.0,N,0,1422000,1428000
a05,238,1428000,14280.0,238.0,A,1,1428000,1434000
a05,239,1434000,14340.0,239.0,N,0,1434000,1440000
a05,240,1440000,14400.0,240.0,N,0,1440000,1446000
a05,241,1446000,14460.0,241.0,N,0,1446000,1452000
a05,242,1452000,14520.0,242.0,N,0,1452000,1458000
a05,243,1458000,14580.0,243.0,N,0,1458000,1464000
a05,244,1464000,14640.0,244.0,N,0,1464000,1470000
a05,245,1470000,14700.0,245.0,N,0,1470000,1476000
a05,246,1476000,14760.0,246.0,N,0,1476000,1482000
a05,247,1482000,14820.0,247.0,N,0,1482000,1488000
a05,248,1488000,14880.0,248.0,N,0,1488000,1494000
a05,249,1494000,14940.0,249.0,A,1,1494000,1500000
a05,250,1500000,15000.0,250.0,A,1,1500000,1506000
a05,251,1506000,15060.0,251.0,A,1,1506000,1512000
a05,252,1512000,15120.0,252.0,A,1,1512000,1518000
a05,253,1518000,15180.0,253.0,A,1,1518000,1524000
a05,254,1524000,15240.0,254.0,A,1,1524000,1530000
a05,255,1530000,15300.0,255.0,A,1,1530000,1536000
a05,256,1536000,15360.0,256.0,A,1,1536000,1542000
a05,257,1542000,15420.0,257.0,A,1,1542000,1548000
a05,258,1548000,15480.0,258.0,A,1,1548000,1554000
a05,259,1554000,15540.0,259.0,A,1,1554000,1560000
a05,260,1560000,15600.0,260.0,A,1,1560000,1566000
a05,261,1566000,15660.0,261.0,A,1,1566000,1572000
a05,262,1572000,15720.0,262.0,A,1,1572000,1578000
a05,263,1578000,15780.0,263.0,A,1,1578000,1584000
a05,264,1584000,15840.0,264.0,A,1,1584000,1590000
a05,265,1590000,15900.0,265.0,A,1,1590000,1596000
a05,266,1596000,15960.0,266.0,A,1,1596000,1602000
a05,267,1602000,16020.0,267.0,A,1,1602000,1608000
a05,268,1608000,16080.0,268.0,A,1,1608000,1614000
a05,269,1614000,16140.0,269.0,A,1,1614000,1620000
a05,270,1620000,16200.0,270.0,N,0,1620000,1626000
a05,271,1626000,16260.0,271.0,N,0,1626000,1632000
a05,272,1632000,16320.0,272.0,N,0,1632000,1638000
a05,273,1638000,16380.0,273.0,A,1,1638000,1644000
a05,274,1644000,16440.0,274.0,A,1,1644000,1650000
a05,275,1650000,16500.0,275.0,A,1,1650000,1656000
a05,276,1656000,16560.0,276.0,A,1,1656000,1662000
a05,277,1662000,16620.0,277.0,A,1,1662000,1668000
a05,278,1668000,16680.0,278.0,A,1,1668000,1674000
a05,279,1674000,16740.0,279.0,A,1,1674000,1680000
a05,280,1680000,16800.0,280.0,A,1,1680000,1686000
a05,281,1686000,16860.0,281.0,A,1,1686000,1692000
a05,282,1692000,16920.0,282.0,A,1,1692000,1698000
a05,283,1698000,16980.0,283.0,A,1,1698000,1704000
a05,284,1704000,17040.0,284.0,A,1,1704000,1710000
a05,285,1710000,17100.0,285.0,A,1,1710000,1716000
a05,286,1716000,17160.0,286.0,A,1,1716000,1722000
a05,287,1722000,17220.0,287.0,A,1,1722000,1728000
a05,288,1728000,17280.0,288.0,A,1,1728000,1734000
a05,289,1734000,17340.0,289.0,A,1,1734000,1740000
a05,290,1740000,17400.0,290.0,A,1,1740000,1746000
a05,291,1746000,17460.0,291.0,A,1,1746000,1752000
a05,292,1752000,17520.0,292.0,A,1,1752000,1758000
a05,293,1758000,17580.0,293.0,A,1,1758000,1764000
a05,294,1764000,17640.0,294.0,N,0,1764000,1770000
a05,295,1770000,17700.0,295.0,N,0,1770000,1776000
a05,296,1776000,17760.0,296.0,A,1,1776000,1782000
a05,297,1782000,17820.0,297.0,A,1,1782000,1788000
a05,298,1788000,17880.0,298.0,A,1,1788000,1794000
a05,299,1794000,17940.0,299.0,A,1,1794000,1800000
a05,300,1800000,18000.0,300.0,A,1,1800000,1806000
a05,301,1806000,18060.0,301.0,A,1,1806000,1812000
a05,302,1812000,18120.0,302.0,A,1,1812000,1818000
a05,303,1818000,18180.0,303.0,A,1,1818000,1824000
a05,304,1824000,18240.0,304.0,A,1,1824000,1830000
a05,305,1830000,18300.0,305.0,A,1,1830000,1836000
a05,306,1836000,18360.0,306.0,A,1,1836000,1842000
a05,307,1842000,18420.0,307.0,A,1,1842000,1848000
a05,308,1848000,18480.0,308.0,A,1,1848000,1854000
a05,309,1854000,18540.0,309.0,A,1,1854000,1860000
a05,310,1860000,18600.0,310.0,A,1,1860000,1866000
a05,311,1866000,18660.0,311.0,A,1,1866000,1872000
a05,312,1872000,18720.0,312.0,A,1,1872000,1878000
a05,313,1878000,18780.0,313.0,A,1,1878000,1884000
a05,314,1884000,18840.0,314.0,A,1,1884000,1890000
a05,315,1890000,18900.0,315.0,A,1,1890000,1896000
a05,316,1896000,18960.0,316.0,A,1,1896000,1902000
a05,317,1902000,19020.0,317.0,A,1,1902000,1908000
a05,318,1908000,19080.0,318.0,A,1,1908000,1914000
a05,319,1914000,19140.0,319.0,A,1,1914000,1920000
a05,320,1920000,19200.0,320.0,A,1,1920000,1926000
a05,321,1926000,19260.0,321.0,A,1,1926000,1932000
a05,322,1932000,19320.0,322.0,A,1,1932000,1938000
a05,323,1938000,19380.0,323.0,A,1,1938000,1944000
a05,324,1944000,19440.0,324.0,A,1,1944000,1950000
a05,325,1950000,19500.0,325.0,A,1,1950000,1956000
a05,326,1956000,19560.0,326.0,A,1,1956000,1962000
a05,327,1962000,19620.0,327.0,A,1,1962000,1968000
a05,328,1968000,19680.0,328.0,A,1,1968000,1974000
a05,329,1974000,19740.0,329.0,A,1,1974000,1980000
a05,330,1980000,19800.0,330.0,A,1,1980000,1986000
a05,331,1986000,19860.0,331.0,A,1,1986000,1992000
a05,332,1992000,19920.0,332.0,A,1,1992000,1998000
a05,333,1998000,19980.0,333.0,A,1,1998000,2004000
a05,334,2004000,20040.0,334.0,A,1,2004000,2010000
a05,335,2010000,20100.0,335.0,A,1,2010000,2016000
a05,336,2016000,20160.0,336.0,A,1,2016000,2022000
a05,337,2022000,20220.0,337.0,A,1,2022000,2028000
a05,338,2028000,20280.0,338.0,N,0,2028000,2034000
a05,339,2034000,20340.0,339.0,A,1,2034000,2040000
a05,340,2040000,20400.0,340.0,N,0,2040000,2046000
a05,341,2046000,20460.0,341.0,A,1,2046000,2052000
a05,342,2052000,20520.0,342.0,A,1,2052000,2058000
a05,343,2058000,20580.0,343.0,A,1,2058000,2064000
a05,344,2064000,20640.0,344.0,A,1,2064000,2070000
a05,345,2070000,20700.0,345.0,A,1,2070000,2076000
a05,346,2076000,20760.0,346.0,A,1,2076000,2082000
a05,347,2082000,20820.0,347.0,A,1,2082000,2088000
a05,348,2088000,20880.0,348.0,A,1,2088000,2094000
a05,349,2094000,20940.0,349.0,N,0,2094000,2100000
a05,350,2100000,21000.0,350.0,N,0,2100000,2106000
a05,351,2106000,21060.0,351.0,N,0,2106000,2112000
a05,352,2112000,21120.0,352.0,N,0,2112000,2118000
a05,353,2118000,21180.0,353.0,A,1,2118000,2124000
a05,354,2124000,21240.0,354.0,N,0,2124000,2130000
a05,355,2130000,21300.0,355.0,N,0,2130000,2136000
a05,356,2136000,21360.0,356.0,N,0,2136000,2142000
a05,357,2142000,21420.0,357.0,N,0,2142000,2148000
a05,358,2148000,21480.0,358.0,N,0,2148000,2154000
a05,359,2154000,21540.0,359.0,N,0,2154000,2160000
a05,360,2160000,21600.0,360.0,N,0,2160000,2166000
a05,361,2166000,21660.0,361.0,N,0,2166000,2172000
a05,362,2172000,21720.0,362.0,A,1,2172000,2178000
a05,363,2178000,21780.0,363.0,N,0,2178000,2184000
a05,364,2184000,21840.0,364.0,N,0,2184000,2190000
a05,365,2190000,21900.0,365.0,A,1,2190000,2196000
a05,366,2196000,21960.0,366.0,A,1,2196000,2202000
a05,367,2202000,22020.0,367.0,A,1,2202000,2208000
a05,368,2208000,22080.0,368.0,N,0,2208000,2214000
a05,369,2214000,22140.0,369.0,N,0,2214000,2220000
a05,370,2220000,22200.0,370.0,N,0,2220000,2226000
a05,371,2226000,22260.0,371.0,N,0,2226000,2232000
a05,372,2232000,22320.0,372.0,N,0,2232000,2238000
a05,373,2238000,22380.0,373.0,N,0,2238000,2244000
a05,374,2244000,22440.0,374.0,N,0,2244000,2250000
a05,375,2250000,22500.0,375.0,N,0,2250000,2256000
a05,376,2256000,22560.0,376.0,N,0,2256000,2262000
a05,377,2262000,22620.0,377.0,N,0,2262000,2268000
a05,378,2268000,22680.0,378.0,N,0,2268000,2274000
a05,379,2274000,22740.0,379.0,N,0,2274000,2280000
a05,380,2280000,22800.0,380.0,N,0,2280000,2286000
a05,381,2286000,22860.0,381.0,N,0,2286000,2292000
a05,382,2292000,22920.0,382.0,N,0,2292000,2298000
a05,383,2298000,22980.0,383.0,N,0,2298000,2304000
a05,384,2304000,23040.0,384.0,N,0,2304000,2310000
a05,385,2310000,23100.0,385.0,N,0,2310000,2316000
a05,386,2316000,23160.0,386.0,N,0,2316000,2322000
a05,387,2322000,23220.0,387.0,N,0,2322000,2328000
a05,388,2328000,23280.0,388.0,N,0,2328000,2334000
a05,389,2334000,23340.0,389.0,N,0,2334000,2340000
a05,390,2340000,23400.0,390.0,N,0,2340000,2346000
a05,391,2346000,23460.0,391.0,N,0,2346000,2352000
a05,392,2352000,23520.0,392.0,N,0,2352000,2358000
a05,393,2358000,23580.0,393.0,N,0,2358000,2364000
a05,394,2364000,23640.0,394.0,N,0,2364000,2370000
a05,395,2370000,23700.0,395.0,N,0,2370000,2376000
a05,396,2376000,23760.0,396.0,N,0,2376000,2382000
a05,397,2382000,23820.0,397.0,N,0,2382000,2388000
a05,398,2388000,23880.0,398.0,N,0,2388000,2394000
a05,399,2394000,23940.0,399.0,N,0,2394000,2400000
a05,400,2400000,24000.0,400.0,N,0,2400000,2406000
a05,401,2406000,24060.0,401.0,N,0,2406000,2412000
a05,402,2412000,24120.0,402.0,N,0,2412000,2418000
a05,403,2418000,24180.0,403.0,N,0,2418000,2424000
a05,404,2424000,24240.0,404.0,N,0,2424000,2430000
a05,405,2430000,24300.0,405.0,N,0,2430000,2436000
a05,406,2436000,24360.0,406.0,N,0,2436000,2442000
a05,407,2442000,24420.0,407.0,N,0,2442000,2448000
a05,408,2448000,24480.0,408.0,N,0,2448000,2454000
a05,409,2454000,24540.0,409.0,N,0,2454000,2460000
a05,410,2460000,24600.0,410.0,A,1,2460000,2466000
a05,411,2466000,24660.0,411.0,A,1,2466000,2472000
a05,412,2472000,24720.0,412.0,A,1,2472000,2478000
a05,413,2478000,24780.0,413.0,A,1,2478000,2484000
a05,414,2484000,24840.0,414.0,A,1,2484000,2490000
a05,415,2490000,24900.0,415.0,A,1,2490000,2496000
a05,416,2496000,24960.0,416.0,A,1,2496000,2502000
a05,417,2502000,25020.0,417.0,A,1,2502000,2508000
a05,418,2508000,25080.0,418.0,A,1,2508000,2514000
a05,419,2514000,25140.0,419.0,A,1,2514000,2520000
a05,420,2520000,25200.0,420.0,A,1,2520000,2526000
a05,421,2526000,25260.0,421.0,A,1,2526000,2532000
a05,422,2532000,25320.0,422.0,A,1,2532000,2538000
a05,423,2538000,25380.0,423.0,A,1,2538000,2544000
a05,424,2544000,25440.0,424.0,A,1,2544000,2550000
a05,425,2550000,25500.0,425.0,A,1,2550000,2556000
a05,426,2556000,25560.0,426.0,A,1,2556000,2562000
a05,427,2562000,25620.0,427.0,A,1,2562000,2568000
a05,428,2568000,25680.0,428.0,A,1,2568000,2574000
a05,429,2574000,25740.0,429.0,A,1,2574000,2580000
a05,430,2580000,25800.0,430.0,A,1,2580000,2586000
a05,431,2586000,25860.0,431.0,A,1,2586000,2592000
a05,432,2592000,25920.0,432.0,A,1,2592000,2598000
a05,433,2598000,25980.0,433.0,A,1,2598000,2604000
a05,434,2604000,26040.0,434.0,A,1,2604000,2610000
a05,435,2610000,26100.0,435.0,A,1,2610000,2616000
a05,436,2616000,26160.0,436.0,A,1,2616000,2622000
a05,437,2622000,26220.0,437.0,A,1,2622000,2628000
a05,438,2628000,26280.0,438.0,A,1,2628000,2634000
a05,439,2634000,26340.0,439.0,A,1,2634000,2640000
a05,440,2640000,26400.0,440.0,A,1,2640000,2646000
a05,441,2646000,26460.0,441.0,A,1,2646000,2652000
a05,442,2652000,26520.0,442.0,A,1,2652000,2658000
a05,443,2658000,26580.0,443.0,A,1,2658000,2664000
a05,444,2664000,26640.0,444.0,A,1,2664000,2670000
a05,445,2670000,26700.0,445.0,N,0,2670000,2676000
a05,446,2676000,26760.0,446.0,A,1,2676000,2682000
a05,447,2682000,26820.0,447.0,A,1,2682000,2688000
a05,448,2688000,26880.0,448.0,A,1,2688000,2694000
a05,449,2694000,26940.0,449.0,A,1,2694000,2700000
a05,450,2700000,27000.0,450.0,A,1,2700000,2706000
a05,451,2706000,27060.0,451.0,A,1,2706000,2712000
a05,452,2712000,27120.0,452.0,A,1,2712000,2718000
a05,453,2718000,27180.0,453.0,N,0,2718000,2724000
a06,0,0,0.0,0.0,N,0,0,6000
a06,1,6000,60.0,1.0,N,0,6000,12000
a06,2,12000,120.0,2.0,N,0,12000,18000
a06,3,18000,180.0,3.0,N,0,18000,24000
a06,4,24000,240.0,4.0,N,0,24000,30000
a06,5,30000,300.0,5.0,N,0,30000,36000
a06,6,36000,360.0,6.0,N,0,36000,42000
a06,7,42000,420.0,7.0,N,0,42000,48000
a06,8,48000,480.0,8.0,N,0,48000,54000
a06,9,54000,540.0,9.0,N,0,54000,60000
a06,10,60000,600.0,10.0,N,0,60000,66000
a06,11,66000,660.0,11.0,N,0,66000,72000
a06,12,72000,720.0,12.0,N,0,72000,78000
a06,13,78000,780.0,13.0,N,0,78000,84000
a06,14,84000,840.0,14.0,N,0,84000,90000
a06,15,90000,900.0,15.0,N,0,90000,96000
a06,16,96000,960.0,16.0,N,0,96000,102000
a06,17,102000,1020.0,17.0,N,0,102000,108000
a06,18,108000,1080.0,18.0,N,0,108000,114000
a06,19,114000,1140.0,19.0,N,0,114000,120000
a06,20,120000,1200.0,20.0,N,0,120000,126000
a06,21,126000,1260.0,21.0,N,0,126000,132000
a06,22,132000,1320.0,22.0,N,0,132000,138000
a06,23,138000,1380.0,23.0,N,0,138000,144000
a06,24,144000,1440.0,24.0,N,0,144000,150000
a06,25,150000,1500.0,25.0,N,0,150000,156000
a06,26,156000,1560.0,26.0,N,0,156000,162000
a06,27,162000,1620.0,27.0,N,0,162000,168000
a06,28,168000,1680.0,28.0,N,0,168000,174000
a06,29,174000,1740.0,29.0,N,0,174000,180000
a06,30,180000,1800.0,30.0,N,0,180000,186000
a06,31,186000,1860.0,31.0,N,0,186000,192000
a06,32,192000,1920.0,32.0,N,0,192000,198000
a06,33,198000,1980.0,33.0,N,0,198000,204000
a06,34,204000,2040.0,34.0,N,0,204000,210000
a06,35,210000,2100.0,35.0,N,0,210000,216000
a06,36,216000,2160.0,36.0,N,0,216000,222000
a06,37,222000,2220.0,37.0,N,0,222000,228000
a06,38,228000,2280.0,38.0,N,0,228000,234000
a06,39,234000,2340.0,39.0,N,0,234000,240000
a06,40,240000,2400.0,40.0,N,0,240000,246000
a06,41,246000,2460.0,41.0,N,0,246000,252000
a06,42,252000,2520.0,42.0,N,0,252000,258000
a06,43,258000,2580.0,43.0,N,0,258000,264000
a06,44,264000,2640.0,44.0,N,0,264000,270000
a06,45,270000,2700.0,45.0,N,0,270000,276000
a06,46,276000,2760.0,46.0,N,0,276000,282000
a06,47,282000,2820.0,47.0,N,0,282000,288000
a06,48,288000,2880.0,48.0,N,0,288000,294000
a06,49,294000,2940.0,49.0,N,0,294000,300000
a06,50,300000,3000.0,50.0,N,0,300000,306000
a06,51,306000,3060.0,51.0,N,0,306000,312000
a06,52,312000,3120.0,52.0,N,0,312000,318000
a06,53,318000,3180.0,53.0,N,0,318000,324000
a06,54,324000,3240.0,54.0,N,0,324000,330000
a06,55,330000,3300.0,55.0,N,0,330000,336000
a06,56,336000,3360.0,56.0,N,0,336000,342000
a06,57,342000,3420.0,57.0,N,0,342000,348000
a06,58,348000,3480.0,58.0,N,0,348000,354000
a06,59,354000,3540.0,59.0,N,0,354000,360000
a06,60,360000,3600.0,60.0,N,0,360000,366000
a06,61,366000,3660.0,61.0,N,0,366000,372000
a06,62,372000,3720.0,62.0,N,0,372000,378000
a06,63,378000,3780.0,63.0,A,1,378000,384000
a06,64,384000,3840.0,64.0,A,1,384000,390000
a06,65,390000,3900.0,65.0,A,1,390000,396000
a06,66,396000,3960.0,66.0,A,1,396000,402000
a06,67,402000,4020.0,67.0,A,1,402000,408000
a06,68,408000,4080.0,68.0,A,1,408000,414000
a06,69,414000,4140.0,69.0,A,1,414000,420000
a06,70,420000,4200.0,70.0,A,1,420000,426000
a06,71,426000,4260.0,71.0,A,1,426000,432000
a06,72,432000,4320.0,72.0,A,1,432000,438000
a06,73,438000,4380.0,73.0,A,1,438000,444000
a06,74,444000,4440.0,74.0,A,1,444000,450000
a06,75,450000,4500.0,75.0,A,1,450000,456000
a06,76,456000,4560.0,76.0,A,1,456000,462000
a06,77,462000,4620.0,77.0,A,1,462000,468000
a06,78,468000,4680.0,78.0,A,1,468000,474000
a06,79,474000,4740.0,79.0,A,1,474000,480000
a06,80,480000,4800.0,80.0,A,1,480000,486000
a06,81,486000,4860.0,81.0,A,1,486000,492000
a06,82,492000,4920.0,82.0,A,1,492000,498000
a06,83,498000,4980.0,83.0,A,1,498000,504000
a06,84,504000,5040.0,84.0,A,1,504000,510000
a06,85,510000,5100.0,85.0,A,1,510000,516000
a06,86,516000,5160.0,86.0,A,1,516000,522000
a06,87,522000,5220.0,87.0,A,1,522000,528000
a06,88,528000,5280.0,88.0,A,1,528000,534000
a06,89,534000,5340.0,89.0,N,0,534000,540000
a06,90,540000,5400.0,90.0,N,0,540000,546000
a06,91,546000,5460.0,91.0,N,0,546000,552000
a06,92,552000,5520.0,92.0,N,0,552000,558000
a06,93,558000,5580.0,93.0,N,0,558000,564000
a06,94,564000,5640.0,94.0,N,0,564000,570000
a06,95,570000,5700.0,95.0,N,0,570000,576000
a06,96,576000,5760.0,96.0,N,0,576000,582000
a06,97,582000,5820.0,97.0,N,0,582000,588000
a06,98,588000,5880.0,98.0,N,0,588000,594000
a06,99,594000,5940.0,99.0,N,0,594000,600000
a06,100,600000,6000.0,100.0,N,0,600000,606000
a06,101,606000,6060.0,101.0,N,0,606000,612000
a06,102,612000,6120.0,102.0,N,0,612000,618000
a06,103,618000,6180.0,103.0,N,0,618000,624000
a06,104,624000,6240.0,104.0,N,0,624000,630000
a06,105,630000,6300.0,105.0,N,0,630000,636000
a06,106,636000,6360.0,106.0,N,0,636000,642000
a06,107,642000,6420.0,107.0,N,0,642000,648000
a06,108,648000,6480.0,108.0,N,0,648000,654000
a06,109,654000,6540.0,109.0,N,0,654000,660000
a06,110,660000,6600.0,110.0,N,0,660000,666000
a06,111,666000,6660.0,111.0,N,0,666000,672000
a06,112,672000,6720.0,112.0,N,0,672000,678000
a06,113,678000,6780.0,113.0,N,0,678000,684000
a06,114,684000,6840.0,114.0,N,0,684000,690000
a06,115,690000,6900.0,115.0,N,0,690000,696000
a06,116,696000,6960.0,116.0,N,0,696000,702000
a06,117,702000,7020.0,117.0,N,0,702000,708000
a06,118,708000,7080.0,118.0,N,0,708000,714000
a06,119,714000,7140.0,119.0,N,0,714000,720000
a06,120,720000,7200.0,120.0,N,0,720000,726000
a06,121,726000,7260.0,121.0,N,0,726000,732000
a06,122,732000,7320.0,122.0,N,0,732000,738000
a06,123,738000,7380.0,123.0,N,0,738000,744000
a06,124,744000,7440.0,124.0,N,0,744000,750000
a06,125,750000,7500.0,125.0,N,0,750000,756000
a06,126,756000,7560.0,126.0,N,0,756000,762000
a06,127,762000,7620.0,127.0,N,0,762000,768000
a06,128,768000,7680.0,128.0,N,0,768000,774000
a06,129,774000,7740.0,129.0,N,0,774000,780000
a06,130,780000,7800.0,130.0,N,0,780000,786000
a06,131,786000,7860.0,131.0,N,0,786000,792000
a06,132,792000,7920.0,132.0,N,0,792000,798000
a06,133,798000,7980.0,133.0,N,0,798000,804000
a06,134,804000,8040.0,134.0,N,0,804000,810000
a06,135,810000,8100.0,135.0,N,0,810000,816000
a06,136,816000,8160.0,136.0,N,0,816000,822000
a06,137,822000,8220.0,137.0,N,0,822000,828000
a06,138,828000,8280.0,138.0,N,0,828000,834000
a06,139,834000,8340.0,139.0,N,0,834000,840000
a06,140,840000,8400.0,140.0,N,0,840000,846000
a06,141,846000,8460.0,141.0,N,0,846000,852000
a06,142,852000,8520.0,142.0,N,0,852000,858000
a06,143,858000,8580.0,143.0,N,0,858000,864000
a06,144,864000,8640.0,144.0,N,0,864000,870000
a06,145,870000,8700.0,145.0,A,1,870000,876000
a06,146,876000,8760.0,146.0,A,1,876000,882000
a06,147,882000,8820.0,147.0,A,1,882000,888000
a06,148,888000,8880.0,148.0,A,1,888000,894000
a06,149,894000,8940.0,149.0,A,1,894000,900000
a06,150,900000,9000.0,150.0,A,1,900000,906000
a06,151,906000,9060.0,151.0,A,1,906000,912000
a06,152,912000,9120.0,152.0,A,1,912000,918000
a06,153,918000,9180.0,153.0,A,1,918000,924000
a06,154,924000,9240.0,154.0,A,1,924000,930000
a06,155,930000,9300.0,155.0,A,1,930000,936000
a06,156,936000,9360.0,156.0,A,1,936000,942000
a06,157,942000,9420.0,157.0,A,1,942000,948000
a06,158,948000,9480.0,158.0,A,1,948000,954000
a06,159,954000,9540.0,159.0,A,1,954000,960000
a06,160,960000,9600.0,160.0,A,1,960000,966000
a06,161,966000,9660.0,161.0,A,1,966000,972000
a06,162,972000,9720.0,162.0,A,1,972000,978000
a06,163,978000,9780.0,163.0,A,1,978000,984000
a06,164,984000,9840.0,164.0,A,1,984000,990000
a06,165,990000,9900.0,165.0,A,1,990000,996000
a06,166,996000,9960.0,166.0,A,1,996000,1002000
a06,167,1002000,10020.0,167.0,A,1,1002000,1008000
a06,168,1008000,10080.0,168.0,A,1,1008000,1014000
a06,169,1014000,10140.0,169.0,A,1,1014000,1020000
a06,170,1020000,10200.0,170.0,A,1,1020000,1026000
a06,171,1026000,10260.0,171.0,A,1,1026000,1032000
a06,172,1032000,10320.0,172.0,A,1,1032000,1038000
a06,173,1038000,10380.0,173.0,A,1,1038000,1044000
a06,174,1044000,10440.0,174.0,A,1,1044000,1050000
a06,175,1050000,10500.0,175.0,A,1,1050000,1056000
a06,176,1056000,10560.0,176.0,A,1,1056000,1062000
a06,177,1062000,10620.0,177.0,A,1,1062000,1068000
a06,178,1068000,10680.0,178.0,A,1,1068000,1074000
a06,179,1074000,10740.0,179.0,A,1,1074000,1080000
a06,180,1080000,10800.0,180.0,N,0,1080000,1086000
a06,181,1086000,10860.0,181.0,N,0,1086000,1092000
a06,182,1092000,10920.0,182.0,N,0,1092000,1098000
a06,183,1098000,10980.0,183.0,N,0,1098000,1104000
a06,184,1104000,11040.0,184.0,N,0,1104000,1110000
a06,185,1110000,11100.0,185.0,N,0,1110000,1116000
a06,186,1116000,11160.0,186.0,N,0,1116000,1122000
a06,187,1122000,11220.0,187.0,N,0,1122000,1128000
a06,188,1128000,11280.0,188.0,N,0,1128000,1134000
a06,189,1134000,11340.0,189.0,N,0,1134000,1140000
a06,190,1140000,11400.0,190.0,N,0,1140000,1146000
a06,191,1146000,11460.0,191.0,A,1,1146000,1152000
a06,192,1152000,11520.0,192.0,A,1,1152000,1158000
a06,193,1158000,11580.0,193.0,A,1,1158000,1164000
a06,194,1164000,11640.0,194.0,A,1,1164000,1170000
a06,195,1170000,11700.0,195.0,A,1,1170000,1176000
a06,196,1176000,11760.0,196.0,A,1,1176000,1182000
a06,197,1182000,11820.0,197.0,A,1,1182000,1188000
a06,198,1188000,11880.0,198.0,A,1,1188000,1194000
a06,199,1194000,11940.0,199.0,A,1,1194000,1200000
a06,200,1200000,12000.0,200.0,A,1,1200000,1206000
a06,201,1206000,12060.0,201.0,A,1,1206000,1212000
a06,202,1212000,12120.0,202.0,A,1,1212000,1218000
a06,203,1218000,12180.0,203.0,A,1,1218000,1224000
a06,204,1224000,12240.0,204.0,A,1,1224000,1230000
a06,205,1230000,12300.0,205.0,A,1,1230000,1236000
a06,206,1236000,12360.0,206.0,A,1,1236000,1242000
a06,207,1242000,12420.0,207.0,A,1,1242000,1248000
a06,208,1248000,12480.0,208.0,A,1,1248000,1254000
a06,209,1254000,12540.0,209.0,A,1,1254000,1260000
a06,210,1260000,12600.0,210.0,A,1,1260000,1266000
a06,211,1266000,12660.0,211.0,A,1,1266000,1272000
a06,212,1272000,12720.0,212.0,A,1,1272000,1278000
a06,213,1278000,12780.0,213.0,A,1,1278000,1284000
a06,214,1284000,12840.0,214.0,A,1,1284000,1290000
a06,215,1290000,12900.0,215.0,A,1,1290000,1296000
a06,216,1296000,12960.0,216.0,A,1,1296000,1302000
a06,217,1302000,13020.0,217.0,A,1,1302000,1308000
a06,218,1308000,13080.0,218.0,A,1,1308000,1314000
a06,219,1314000,13140.0,219.0,A,1,1314000,1320000
a06,220,1320000,13200.0,220.0,A,1,1320000,1326000
a06,221,1326000,13260.0,221.0,A,1,1326000,1332000
a06,222,1332000,13320.0,222.0,A,1,1332000,1338000
a06,223,1338000,13380.0,223.0,A,1,1338000,1344000
a06,224,1344000,13440.0,224.0,A,1,1344000,1350000
a06,225,1350000,13500.0,225.0,N,0,1350000,1356000
a06,226,1356000,13560.0,226.0,N,0,1356000,1362000
a06,227,1362000,13620.0,227.0,N,0,1362000,1368000
a06,228,1368000,13680.0,228.0,N,0,1368000,1374000
a06,229,1374000,13740.0,229.0,N,0,1374000,1380000
a06,230,1380000,13800.0,230.0,N,0,1380000,1386000
a06,231,1386000,13860.0,231.0,N,0,1386000,1392000
a06,232,1392000,13920.0,232.0,N,0,1392000,1398000
a06,233,1398000,13980.0,233.0,N,0,1398000,1404000
a06,234,1404000,14040.0,234.0,N,0,1404000,1410000
a06,235,1410000,14100.0,235.0,N,0,1410000,1416000
a06,236,1416000,14160.0,236.0,N,0,1416000,1422000
a06,237,1422000,14220.0,237.0,N,0,1422000,1428000
a06,238,1428000,14280.0,238.0,N,0,1428000,1434000
a06,239,1434000,14340.0,239.0,N,0,1434000,1440000
a06,240,1440000,14400.0,240.0,N,0,1440000,1446000
a06,241,1446000,14460.0,241.0,N,0,1446000,1452000
a06,242,1452000,14520.0,242.0,N,0,1452000,1458000
a06,243,1458000,14580.0,243.0,N,0,1458000,1464000
a06,244,1464000,14640.0,244.0,N,0,1464000,1470000
a06,245,1470000,14700.0,245.0,N,0,1470000,1476000
a06,246,1476000,14760.0,246.0,N,0,1476000,1482000
a06,247,1482000,14820.0,247.0,N,0,1482000,1488000
a06,248,1488000,14880.0,248.0,N,0,1488000,1494000
a06,249,1494000,14940.0,249.0,N,0,1494000,1500000
a06,250,1500000,15000.0,250.0,N,0,1500000,1506000
a06,251,1506000,15060.0,251.0,N,0,1506000,1512000
a06,252,1512000,15120.0,252.0,N,0,1512000,1518000
a06,253,1518000,15180.0,253.0,N,0,1518000,1524000
a06,254,1524000,15240.0,254.0,N,0,1524000,1530000
a06,255,1530000,15300.0,255.0,N,0,1530000,1536000
a06,256,1536000,15360.0,256.0,N,0,1536000,1542000
a06,257,1542000,15420.0,257.0,N,0,1542000,1548000
a06,258,1548000,15480.0,258.0,N,0,1548000,1554000
a06,259,1554000,15540.0,259.0,N,0,1554000,1560000
a06,260,1560000,15600.0,260.0,A,1,1560000,1566000
a06,261,1566000,15660.0,261.0,A,1,1566000,1572000
a06,262,1572000,15720.0,262.0,A,1,1572000,1578000
a06,263,1578000,15780.0,263.0,A,1,1578000,1584000
a06,264,1584000,15840.0,264.0,A,1,1584000,1590000
a06,265,1590000,15900.0,265.0,A,1,1590000,1596000
a06,266,1596000,15960.0,266.0,A,1,1596000,1602000
a06,267,1602000,16020.0,267.0,A,1,1602000,1608000
a06,268,1608000,16080.0,268.0,N,0,1608000,1614000
a06,269,1614000,16140.0,269.0,N,0,1614000,1620000
a06,270,1620000,16200.0,270.0,N,0,1620000,1626000
a06,271,1626000,16260.0,271.0,N,0,1626000,1632000
a06,272,1632000,16320.0,272.0,N,0,1632000,1638000
a06,273,1638000,16380.0,273.0,N,0,1638000,1644000
a06,274,1644000,16440.0,274.0,N,0,1644000,1650000
a06,275,1650000,16500.0,275.0,N,0,1650000,1656000
a06,276,1656000,16560.0,276.0,N,0,1656000,1662000
a06,277,1662000,16620.0,277.0,N,0,1662000,1668000
a06,278,1668000,16680.0,278.0,N,0,1668000,1674000
a06,279,1674000,16740.0,279.0,N,0,1674000,1680000
a06,280,1680000,16800.0,280.0,N,0,1680000,1686000
a06,281,1686000,16860.0,281.0,N,0,1686000,1692000
a06,282,1692000,16920.0,282.0,N,0,1692000,1698000
a06,283,1698000,16980.0,283.0,N,0,1698000,1704000
a06,284,1704000,17040.0,284.0,N,0,1704000,1710000
a06,285,1710000,17100.0,285.0,N,0,1710000,1716000
a06,286,1716000,17160.0,286.0,N,0,1716000,1722000
a06,287,1722000,17220.0,287.0,N,0,1722000,1728000
a06,288,1728000,17280.0,288.0,N,0,1728000,1734000
a06,289,1734000,17340.0,289.0,N,0,1734000,1740000
a06,290,1740000,17400.0,290.0,N,0,1740000,1746000
a06,291,1746000,17460.0,291.0,N,0,1746000,1752000
a06,292,1752000,17520.0,292.0,N,0,1752000,1758000
a06,293,1758000,17580.0,293.0,N,0,1758000,1764000
a06,294,1764000,17640.0,294.0,N,0,1764000,1770000
a06,295,1770000,17700.0,295.0,N,0,1770000,1776000
a06,296,1776000,17760.0,296.0,N,0,1776000,1782000
a06,297,1782000,17820.0,297.0,N,0,1782000,1788000
a06,298,1788000,17880.0,298.0,N,0,1788000,1794000
a06,299,1794000,17940.0,299.0,N,0,1794000,1800000
a06,300,1800000,18000.0,300.0,N,0,1800000,1806000
a06,301,1806000,18060.0,301.0,N,0,1806000,1812000
a06,302,1812000,18120.0,302.0,N,0,1812000,1818000
a06,303,1818000,18180.0,303.0,N,0,1818000,1824000
a06,304,1824000,18240.0,304.0,N,0,1824000,1830000
a06,305,1830000,18300.0,305.0,N,0,1830000,1836000
a06,306,1836000,18360.0,306.0,A,1,1836000,1842000
a06,307,1842000,18420.0,307.0,A,1,1842000,1848000
a06,308,1848000,18480.0,308.0,A,1,1848000,1854000
a06,309,1854000,18540.0,309.0,A,1,1854000,1860000
a06,310,1860000,18600.0,310.0,A,1,1860000,1866000
a06,311,1866000,18660.0,311.0,A,1,1866000,1872000
a06,312,1872000,18720.0,312.0,A,1,1872000,1878000
a06,313,1878000,18780.0,313.0,A,1,1878000,1884000
a06,314,1884000,18840.0,314.0,A,1,1884000,1890000
a06,315,1890000,18900.0,315.0,A,1,1890000,1896000
a06,316,1896000,18960.0,316.0,N,0,1896000,1902000
a06,317,1902000,19020.0,317.0,N,0,1902000,1908000
a06,318,1908000,19080.0,318.0,N,0,1908000,1914000
a06,319,1914000,19140.0,319.0,N,0,1914000,1920000
a06,320,1920000,19200.0,320.0,N,0,1920000,1926000
a06,321,1926000,19260.0,321.0,N,0,1926000,1932000
a06,322,1932000,19320.0,322.0,N,0,1932000,1938000
a06,323,1938000,19380.0,323.0,N,0,1938000,1944000
a06,324,1944000,19440.0,324.0,N,0,1944000,1950000
a06,325,1950000,19500.0,325.0,N,0,1950000,1956000
a06,326,1956000,19560.0,326.0,N,0,1956000,1962000
a06,327,1962000,19620.0,327.0,N,0,1962000,1968000
a06,328,1968000,19680.0,328.0,N,0,1968000,1974000
a06,329,1974000,19740.0,329.0,A,1,1974000,1980000
a06,330,1980000,19800.0,330.0,A,1,1980000,1986000
a06,331,1986000,19860.0,331.0,A,1,1986000,1992000
a06,332,1992000,19920.0,332.0,A,1,1992000,1998000
a06,333,1998000,19980.0,333.0,N,0,1998000,2004000
a06,334,2004000,20040.0,334.0,N,0,2004000,2010000
a06,335,2010000,20100.0,335.0,N,0,2010000,2016000
a06,336,2016000,20160.0,336.0,N,0,2016000,2022000
a06,337,2022000,20220.0,337.0,N,0,2022000,2028000
a06,338,2028000,20280.0,338.0,N,0,2028000,2034000
a06,339,2034000,20340.0,339.0,N,0,2034000,2040000
a06,340,2040000,20400.0,340.0,N,0,2040000,2046000
a06,341,2046000,20460.0,341.0,N,0,2046000,2052000
a06,342,2052000,20520.0,342.0,N,0,2052000,2058000
a06,343,2058000,20580.0,343.0,A,1,2058000,2064000
a06,344,2064000,20640.0,344.0,A,1,2064000,2070000
a06,345,2070000,20700.0,345.0,A,1,2070000,2076000
a06,346,2076000,20760.0,346.0,A,1,2076000,2082000
a06,347,2082000,20820.0,347.0,A,1,2082000,2088000
a06,348,2088000,20880.0,348.0,A,1,2088000,2094000
a06,349,2094000,20940.0,349.0,A,1,2094000,2100000
a06,350,2100000,21000.0,350.0,A,1,2100000,2106000
a06,351,2106000,21060.0,351.0,A,1,2106000,2112000
a06,352,2112000,21120.0,352.0,A,1,2112000,2118000
a06,353,2118000,21180.0,353.0,A,1,2118000,2124000
a06,354,2124000,21240.0,354.0,A,1,2124000,2130000
a06,355,2130000,21300.0,355.0,A,1,2130000,2136000
a06,356,2136000,21360.0,356.0,A,1,2136000,2142000
a06,357,2142000,21420.0,357.0,A,1,2142000,2148000
a06,358,2148000,21480.0,358.0,A,1,2148000,2154000
a06,359,2154000,21540.0,359.0,A,1,2154000,2160000
a06,360,2160000,21600.0,360.0,A,1,2160000,2166000
a06,361,2166000,21660.0,361.0,A,1,2166000,2172000
a06,362,2172000,21720.0,362.0,A,1,2172000,2178000
a06,363,2178000,21780.0,363.0,A,1,2178000,2184000
a06,364,2184000,21840.0,364.0,A,1,2184000,2190000
a06,365,2190000,21900.0,365.0,A,1,2190000,2196000
a06,366,2196000,21960.0,366.0,A,1,2196000,2202000
a06,367,2202000,22020.0,367.0,A,1,2202000,2208000
a06,368,2208000,22080.0,368.0,A,1,2208000,2214000
a06,369,2214000,22140.0,369.0,A,1,2214000,2220000
a06,370,2220000,22200.0,370.0,A,1,2220000,2226000
a06,371,2226000,22260.0,371.0,A,1,2226000,2232000
a06,372,2232000,22320.0,372.0,A,1,2232000,2238000
a06,373,2238000,22380.0,373.0,A,1,2238000,2244000
a06,374,2244000,22440.0,374.0,A,1,2244000,2250000
a06,375,2250000,22500.0,375.0,A,1,2250000,2256000
a06,376,2256000,22560.0,376.0,A,1,2256000,2262000
a06,377,2262000,22620.0,377.0,A,1,2262000,2268000
a06,378,2268000,22680.0,378.0,A,1,2268000,2274000
a06,379,2274000,22740.0,379.0,A,1,2274000,2280000
a06,380,2280000,22800.0,380.0,A,1,2280000,2286000
a06,381,2286000,22860.0,381.0,A,1,2286000,2292000
a06,382,2292000,22920.0,382.0,A,1,2292000,2298000
a06,383,2298000,22980.0,383.0,A,1,2298000,2304000
a06,384,2304000,23040.0,384.0,A,1,2304000,2310000
a06,385,2310000,23100.0,385.0,A,1,2310000,2316000
a06,386,2316000,23160.0,386.0,A,1,2316000,2322000
a06,387,2322000,23220.0,387.0,A,1,2322000,2328000
a06,388,2328000,23280.0,388.0,A,1,2328000,2334000
a06,389,2334000,23340.0,389.0,A,1,2334000,2340000
a06,390,2340000,23400.0,390.0,N,0,2340000,2346000
a06,391,2346000,23460.0,391.0,N,0,2346000,2352000
a06,392,2352000,23520.0,392.0,N,0,2352000,2358000
a06,393,2358000,23580.0,393.0,N,0,2358000,2364000
a06,394,2364000,23640.0,394.0,N,0,2364000,2370000
a06,395,2370000,23700.0,395.0,N,0,2370000,2376000
a06,396,2376000,23760.0,396.0,N,0,2376000,2382000
a06,397,2382000,23820.0,397.0,N,0,2382000,2388000
a06,398,2388000,23880.0,398.0,N,0,2388000,2394000
a06,399,2394000,23940.0,399.0,N,0,2394000,2400000
a06,400,2400000,24000.0,400.0,N,0,2400000,2406000
a06,401,2406000,24060.0,401.0,N,0,2406000,2412000
a06,402,2412000,24120.0,402.0,N,0,2412000,2418000
a06,403,2418000,24180.0,403.0,N,0,2418000,2424000
a06,404,2424000,24240.0,404.0,N,0,2424000,2430000
a06,405,2430000,24300.0,405.0,N,0,2430000,2436000
a06,406,2436000,24360.0,406.0,N,0,2436000,2442000
a06,407,2442000,24420.0,407.0,N,0,2442000,2448000
a06,408,2448000,24480.0,408.0,N,0,2448000,2454000
a06,409,2454000,24540.0,409.0,N,0,2454000,2460000
a06,410,2460000,24600.0,410.0,N,0,2460000,2466000
a06,411,2466000,24660.0,411.0,N,0,2466000,2472000
a06,412,2472000,24720.0,412.0,N,0,2472000,2478000
a06,413,2478000,24780.0,413.0,N,0,2478000,2484000
a06,414,2484000,24840.0,414.0,N,0,2484000,2490000
a06,415,2490000,24900.0,415.0,N,0,2490000,2496000
a06,416,2496000,24960.0,416.0,N,0,2496000,2502000
a06,417,2502000,25020.0,417.0,N,0,2502000,2508000
a06,418,2508000,25080.0,418.0,N,0,2508000,2514000
a06,419,2514000,25140.0,419.0,N,0,2514000,2520000
a06,420,2520000,25200.0,420.0,N,0,2520000,2526000
a06,421,2526000,25260.0,421.0,N,0,2526000,2532000
a06,422,2532000,25320.0,422.0,N,0,2532000,2538000
a06,423,2538000,25380.0,423.0,N,0,2538000,2544000
a06,424,2544000,25440.0,424.0,N,0,2544000,2550000
a06,425,2550000,25500.0,425.0,N,0,2550000,2556000
a06,426,2556000,25560.0,426.0,N,0,2556000,2562000
a06,427,2562000,25620.0,427.0,N,0,2562000,2568000
a06,428,2568000,25680.0,428.0,N,0,2568000,2574000
a06,429,2574000,25740.0,429.0,N,0,2574000,2580000
a06,430,2580000,25800.0,430.0,N,0,2580000,2586000
a06,431,2586000,25860.0,431.0,N,0,2586000,2592000
a06,432,2592000,25920.0,432.0,N,0,2592000,2598000
a06,433,2598000,25980.0,433.0,N,0,2598000,2604000
a06,434,2604000,26040.0,434.0,N,0,2604000,2610000
a06,435,2610000,26100.0,435.0,N,0,2610000,2616000
a06,436,2616000,26160.0,436.0,N,0,2616000,2622000
a06,437,2622000,26220.0,437.0,N,0,2622000,2628000
a06,438,2628000,26280.0,438.0,N,0,2628000,2634000
a06,439,2634000,26340.0,439.0,N,0,2634000,2640000
a06,440,2640000,26400.0,440.0,A,1,2640000,2646000
a06,441,2646000,26460.0,441.0,A,1,2646000,2652000
a06,442,2652000,26520.0,442.0,A,1,2652000,2658000
a06,443,2658000,26580.0,443.0,A,1,2658000,2664000
a06,444,2664000,26640.0,444.0,A,1,2664000,2670000
a06,445,2670000,26700.0,445.0,A,1,2670000,2676000
a06,446,2676000,26760.0,446.0,A,1,2676000,2682000
a06,447,2682000,26820.0,447.0,A,1,2682000,2688000
a06,448,2688000,26880.0,448.0,A,1,2688000,2694000
a06,449,2694000,26940.0,449.0,A,1,2694000,2700000
a06,450,2700000,27000.0,450.0,N,0,2700000,2706000
a06,451,2706000,27060.0,451.0,N,0,2706000,2712000
a06,452,2712000,27120.0,452.0,N,0,2712000,2718000
a06,453,2718000,27180.0,453.0,N,0,2718000,2724000
a06,454,2724000,27240.0,454.0,N,0,2724000,2730000
a06,455,2730000,27300.0,455.0,N,0,2730000,2736000
a06,456,2736000,27360.0,456.0,N,0,2736000,2742000
a06,457,2742000,27420.0,457.0,N,0,2742000,2748000
a06,458,2748000,27480.0,458.0,N,0,2748000,2754000
a06,459,2754000,27540.0,459.0,N,0,2754000,2760000
a06,460,2760000,27600.0,460.0,N,0,2760000,2766000
a06,461,2766000,27660.0,461.0,N,0,2766000,2772000
a06,462,2772000,27720.0,462.0,N,0,2772000,2778000
a06,463,2778000,27780.0,463.0,N,0,2778000,2784000
a06,464,2784000,27840.0,464.0,N,0,2784000,2790000
a06,465,2790000,27900.0,465.0,N,0,2790000,2796000
a06,466,2796000,27960.0,466.0,N,0,2796000,2802000
a06,467,2802000,28020.0,467.0,N,0,2802000,2808000
a06,468,2808000,28080.0,468.0,N,0,2808000,2814000
a06,469,2814000,28140.0,469.0,A,1,2814000,2820000
a06,470,2820000,28200.0,470.0,A,1,2820000,2826000
a06,471,2826000,28260.0,471.0,A,1,2826000,2832000
a06,472,2832000,28320.0,472.0,A,1,2832000,2838000
a06,473,2838000,28380.0,473.0,A,1,2838000,2844000
a06,474,2844000,28440.0,474.0,A,1,2844000,2850000
a06,475,2850000,28500.0,475.0,A,1,2850000,2856000
a06,476,2856000,28560.0,476.0,A,1,2856000,2862000
a06,477,2862000,28620.0,477.0,A,1,2862000,2868000
a06,478,2868000,28680.0,478.0,N,0,2868000,2874000
a06,479,2874000,28740.0,479.0,N,0,2874000,2880000
a06,480,2880000,28800.0,480.0,N,0,2880000,2886000
a06,481,2886000,28860.0,481.0,N,0,2886000,2892000
a06,482,2892000,28920.0,482.0,N,0,2892000,2898000
a06,483,2898000,28980.0,483.0,N,0,2898000,2904000
a06,484,2904000,29040.0,484.0,A,1,2904000,2910000
a06,485,2910000,29100.0,485.0,A,1,2910000,2916000
a06,486,2916000,29160.0,486.0,A,1,2916000,2922000
a06,487,2922000,29220.0,487.0,A,1,2922000,2928000
a06,488,2928000,29280.0,488.0,A,1,2928000,2934000
a06,489,2934000,29340.0,489.0,A,1,2934000,2940000
a06,490,2940000,29400.0,490.0,A,1,2940000,2946000
a06,491,2946000,29460.0,491.0,A,1,2946000,2952000
a06,492,2952000,29520.0,492.0,A,1,2952000,2958000
a06,493,2958000,29580.0,493.0,A,1,2958000,2964000
a06,494,2964000,29640.0,494.0,A,1,2964000,2970000
a06,495,2970000,29700.0,495.0,A,1,2970000,2976000
a06,496,2976000,29760.0,496.0,A,1,2976000,2982000
a06,497,2982000,29820.0,497.0,A,1,2982000,2988000
a06,498,2988000,29880.0,498.0,A,1,2988000,2994000
a06,499,2994000,29940.0,499.0,A,1,2994000,3000000
a06,500,3000000,30000.0,500.0,A,1,3000000,3006000
a06,501,3006000,30060.0,501.0,A,1,3006000,3012000
a06,502,3012000,30120.0,502.0,A,1,3012000,3018000
