sample,time_sec
38,0.38
127,1.27
211,2.11
294,2.94
377,3.77
465,4.65
558,5.58
655,6.55
750,7.5
843,8.43
936,9.36
1037,10.37
1139,11.39
1240,12.4
1339,13.39
1436,14.36
1531,15.31
1629,16.29
1729,17.29
1824,18.24
1914,19.14
1999,19.99
2085,20.85
2182,21.82
2275,22.75
2368,23.68
2452,24.52
2529,25.29
2606,26.06
2687,26.87
2768,27.68
2852,28.52
2936,29.36
3017,30.17
3099,30.99
3189,31.89
3289,32.89
3382,33.82
3470,34.7
3556,35.56
3641,36.41
3728,37.28
3817,38.17
3908,39.08
4000,40.0
4088,40.88
4185,41.85
4285,42.85
4379,43.79
4465,44.65
4547,45.47
4630,46.3
4718,47.18
4806,48.06
4894,48.94
4986,49.86
5076,50.76
5165,51.65
5258,52.58
5348,53.48
5438,54.38
5529,55.29
5620,56.2
5708,57.08
5796,57.96
5889,58.89
5979,59.79
6066,60.66
6157,61.57
6246,62.46
6333,63.33
6423,64.23
6507,65.07
6590,65.9
6673,66.73
6765,67.65
6852,68.52
6938,69.38
7022,70.22
7109,71.09
7193,71.93
7277,72.77
7363,73.63
7445,74.45
7524,75.24
7605,76.05
7689,76.89
7772,77.72
7854,78.54
7933,79.33
8012,80.12
8096,80.96
8182,81.82
8274,82.74
8360,83.6
8441,84.41
8521,85.21
8602,86.02
8687,86.87
8775,87.75
8860,88.6
8942,89.42
9019,90.19
9093,90.93
9163,91.63
9234,92.34
9312,93.12
9395,93.95
9483,94.83
9570,95.7
9655,96.55
9738,97.38
9820,98.2
9904,99.04
9984,99.84
10063,100.63
10141,101.41
10228,102.28
10312,103.12
10401,104.01
10481,104.81
10560,105.6
10647,106.47
10739,107.39
10827,108.27
10912,109.12
10995,109.95
11080,110.8
11172,111.72
11266,112.66
11355,113.55
11440,114.4
11522,115.22
11605,116.05
11690,116.9
11775,117.75
11855,118.55
11937,119.37
12027,120.27
12119,121.19
12206,122.06
12289,122.89
12377,123.77
12469,124.69
12562,125.62
12654,126.54
12743,127.43
12835,128.35
12929,129.29
13020,130.2
13107,131.07
13195,131.95
13285,132.85
13376,133.76
13463,134.63
13542,135.42
13616,136.16
13689,136.89
13770,137.7
13865,138.65
13960,139.6
14044,140.44
14123,141.23
14198,141.98
14273,142.73
14360,143.6
14447,144.47
14534,145.34
14618,146.18
14699,146.99
14776,147.76
14850,148.5
14923,149.23
14999,149.99
15079,150.79
15158,151.58
15237,152.37
15316,153.16
15393,153.93
15468,154.68
15541,155.41
15611,156.11
15681,156.81
15748,157.48
15815,158.15
15884,158.84
15955,159.55
16027,160.27
16097,160.97
16167,161.67
16241,162.41
16325,163.25
16414,164.14
16502,165.02
16592,165.92
16682,166.82
16773,167.73
16862,168.62
16951,169.51
17042,170.42
17125,171.25
17205,172.05
17281,172.81
17354,173.54
17426,174.26
17499,174.99
17571,175.71
17644,176.44
17720,177.2
17796,177.96
17874,178.74
17952,179.52
18028,180.28
18103,181.03
18177,181.77
18258,182.58
18343,183.43
18426,184.26
18505,185.05
18583,185.83
18659,186.59
18736,187.36
18811,188.11
18884,188.84
18958,189.58
19031,190.31
19103,191.03
19175,191.75
19246,192.46
19316,193.16
19383,193.83
19450,194.5
19516,195.16
19580,195.8
19643,196.43
19706,197.06
19767,197.67
19828,198.28
19889,198.89
19950,199.5
20014,200.14
20086,200.86
20164,201.64
20242,202.42
20317,203.17
20393,203.93
20472,204.72
20552,205.52
20631,206.31
20711,207.11
20789,207.89
20867,208.67
20951,209.51
21034,210.34
21114,211.14
21197,211.97
21280,212.8
21358,213.58
21436,214.36
21515,215.15
21598,215.98
21681,216.81
21757,217.57
21828,218.28
21899,218.99
21968,219.68
22040,220.4
22114,221.14
22195,221.95
22272,222.72
22353,223.53
22435,224.35
22518,225.18
22596,225.96
22672,226.72
22746,227.46
22819,228.19
22889,228.89
22958,229.58
23026,230.26
23096,230.96
23168,231.68
23244,232.44
23327,233.27
23407,234.07
23484,234.84
23559,235.59
23634,236.34
23710,237.1
23785,237.85
23861,238.61
23939,239.39
24019,240.19
24099,240.99
24178,241.78
24259,242.59
24338,243.38
24419,244.19
24499,244.99
24579,245.79
24658,246.58
24737,247.37
24816,248.16
24892,248.92
24964,249.64
25036,250.36
25108,251.08
25179,251.79
25252,252.52
25328,253.28
25406,254.06
25485,254.85
25564,255.64
25643,256.43
25720,257.2
25799,257.99
25877,258.77
25956,259.56
26034,260.34
26113,261.13
26194,261.94
26276,262.76
26356,263.56
26436,264.36
26516,265.16
26595,265.95
26672,266.72
26747,267.47
26822,268.22
26901,269.01
26984,269.84
27069,270.69
27149,271.49
27223,272.23
27296,272.96
27369,273.69
27438,274.38
27508,275.08
27587,275.87
27668,276.68
27754,277.54
27845,278.45
27937,279.37
28023,280.23
28103,281.03
28179,281.79
28254,282.54
28330,283.3
28408,284.08
28492,284.92
28575,285.75
28656,286.56
28735,287.35
28813,288.13
28894,288.94
28977,289.77
29063,290.63
29153,291.53
29239,292.39
29321,293.21
29400,294.0
29477,294.77
29556,295.56
29639,296.39
29726,297.26
29811,298.11
29895,298.95
29979,299.79
30062,300.62
30143,301.43
30228,302.28
30317,303.17
30407,304.07
30498,304.98
30584,305.84
30665,306.65
30749,307.49
30834,308.34
30920,309.2
31007,310.07
31096,310.96
31180,311.8
31261,312.61
31341,313.41
31420,314.2
31502,315.02
31581,315.81
31662,316.62
31737,317.37
31810,318.1
31883,318.83
31953,319.53
32022,320.22
32091,320.91
32161,321.61
32236,322.36
32319,323.19
32406,324.06
32490,324.9
32572,325.72
32652,326.52
32733,327.33
32815,328.15
32900,329.0
32986,329.86
33069,330.69
33150,331.5
33231,332.31
33316,333.16
33408,334.08
33503,335.03
33594,335.94
33678,336.78
33760,337.6
33843,338.43
33928,339.28
34016,340.16
34105,341.05
34188,341.88
34270,342.7
34354,343.54
34443,344.43
34535,345.35
34624,346.24
34715,347.15
34804,348.04
34891,348.91
34978,349.78
35067,350.67
35152,351.52
35235,352.35
35311,353.11
35386,353.86
35463,354.63
35548,355.48
35634,356.34
35716,357.16
35796,357.96
35875,358.75
35955,359.55
36040,360.4
36124,361.24
36209,362.09
36296,362.96
36383,363.83
36471,364.71
36554,365.54
36639,366.39
36721,367.21
36804,368.04
36886,368.86
36964,369.64
37040,370.4
37113,371.13
37185,371.85
37261,372.61
37351,373.51
37441,374.41
37526,375.26
37608,376.08
37688,376.88
37769,377.69
37849,378.49
37927,379.27
38005,380.05
38083,380.83
38163,381.63
38242,382.42
38325,383.25
38410,384.1
38495,384.95
38578,385.78
38660,386.6
38741,387.41
38819,388.19
38894,388.94
38969,389.69
39045,390.45
39121,391.21
39199,391.99
39279,392.79
39359,393.59
39439,394.39
39518,395.18
39597,395.97
39677,396.77
39751,397.51
39826,398.26
39902,399.02
39980,399.8
40060,400.6
40140,401.4
40221,402.21
40304,403.04
40389,403.89
40477,404.77
40564,405.64
40649,406.49
40734,407.34
40828,408.28
40921,409.21
41015,410.15
41104,411.04
41188,411.88
41270,412.7
41349,413.49
41428,414.28
41508,415.08
41588,415.88
41669,416.69
41748,417.48
41831,418.31
41917,419.17
42001,420.01
42083,420.83
42163,421.63
42243,422.43
42318,423.18
42393,423.93
42469,424.69
42546,425.46
42628,426.28
42708,427.08
42790,427.9
42868,428.68
42944,429.44
43018,430.18
43090,430.9
43160,431.6
43229,432.29
43298,432.98
43365,433.65
43431,434.31
43496,434.96
43561,435.61
43627,436.27
43692,436.92
43757,437.57
43823,438.23
43895,438.95
43969,439.69
44041,440.41
44114,441.14
44186,441.86
44256,442.56
44325,443.25
44393,443.93
44460,444.6
44529,445.29
44599,445.99
44672,446.72
44744,447.44
44815,448.15
44886,448.86
44957,449.57
45031,450.31
45107,451.07
45182,451.82
45258,452.58
45333,453.33
45407,454.07
45483,454.83
45560,455.6
45636,456.36
45713,457.13
45791,457.91
45867,458.67
45941,459.41
46014,460.14
46085,460.85
46157,461.57
46230,462.3
46304,463.04
46381,463.81
46458,464.58
46534,465.34
46609,466.09
46682,466.82
46753,467.53
46825,468.25
46896,468.96
46968,469.68
47038,470.38
47109,471.09
47180,471.8
47249,472.49
47317,473.17
47386,473.86
47455,474.55
47524,475.24
47592,475.92
47661,476.61
47729,477.29
47796,477.96
47862,478.62
47928,479.28
47994,479.94
48060,480.6
48125,481.25
48189,481.89
48253,482.53
48317,483.17
48380,483.8
48444,484.44
48509,485.09
48575,485.75
48643,486.43
48710,487.1
48778,487.78
48846,488.46
48914,489.14
48982,489.82
49050,490.5
49116,491.16
49181,491.81
49247,492.47
49312,493.12
49382,493.82
49457,494.57
49533,495.33
49606,496.06
49678,496.78
49752,497.52
49826,498.26
49898,498.98
49969,499.69
50040,500.4
50113,501.13
50184,501.84
50255,502.55
50326,503.26
50395,503.95
50463,504.63
50530,505.3
50596,505.96
50662,506.62
50727,507.27
50790,507.9
50853,508.53
50917,509.17
50980,509.8
51043,510.43
51106,511.06
51171,511.71
51239,512.39
51311,513.11
51385,513.85
51461,514.61
51536,515.36
51609,516.09
51683,516.83
51758,517.58
51834,518.34
51909,519.09
51981,519.81
52052,520.52
52121,521.21
52188,521.88
52254,522.54
52321,523.21
52390,523.9
52466,524.66
52545,525.45
52627,526.27
52710,527.1
52792,527.92
52871,528.71
52950,529.5
53028,530.28
53107,531.07
53186,531.86
53272,532.72
53363,533.63
53451,534.51
53538,535.38
53622,536.22
53703,537.03
53782,537.82
53859,538.59
53936,539.36
54022,540.22
54119,541.19
54216,542.16
54305,543.05
54391,543.91
54478,544.78
54572,545.72
54666,546.66
54763,547.63
54858,548.58
54946,549.46
55037,550.37
55126,551.26
55209,552.09
55288,552.88
55363,553.63
55439,554.39
55517,555.17
55595,555.95
55669,556.69
55740,557.4
55811,558.11
55881,558.81
55955,559.55
56034,560.34
56115,561.15
56194,561.94
56271,562.71
56350,563.5
56428,564.28
56512,565.12
56596,565.96
56678,566.78
56758,567.58
56836,568.36
56916,569.16
56999,569.99
57080,570.8
57157,571.57
57231,572.31
57305,573.05
57378,573.78
57456,574.56
57542,575.42
57625,576.25
57705,577.05
57789,577.89
57873,578.73
57955,579.55
58036,580.36
58118,581.18
58203,582.03
58291,582.91
58378,583.78
58462,584.62
58546,585.46
58633,586.33
58719,587.19
58804,588.04
58889,588.89
58968,589.68
59043,590.43
59118,591.18
59199,591.99
59287,592.87
59375,593.75
59453,594.53
59529,595.29
59608,596.08
59686,596.86
59763,597.63
59841,598.41
59922,599.22
60007,600.07
60091,600.91
60178,601.78
60268,602.68
60354,603.54
60442,604.42
60527,605.27
60612,606.12
60697,606.97
60785,607.85
60883,608.83
60978,609.78
61071,610.71
61159,611.59
61239,612.39
61315,613.15
61391,613.91
61470,614.7
61552,615.52
61630,616.3
61706,617.06
61783,617.83
61868,618.68
61958,619.58
62044,620.44
62128,621.28
62213,622.13
62304,623.04
62404,624.04
62502,625.02
62602,626.02
62700,627.0
62792,627.92
62885,628.85
62977,629.77
63061,630.61
63142,631.42
63220,632.2
63304,633.04
63396,633.96
63485,634.85
63570,635.7
63660,636.6
63748,637.48
63832,638.32
63916,639.16
64004,640.04
64093,640.93
64178,641.78
64266,642.66
64363,643.63
64461,644.61
64550,645.5
64634,646.34
64725,647.25
64812,648.12
64895,648.95
64975,649.75
65059,650.59
65150,651.5
65239,652.39
65325,653.25
65411,654.11
65507,655.07
65599,655.99
65682,656.82
65758,657.58
65832,658.32
65905,659.05
65977,659.77
66052,660.52
66125,661.25
66195,661.95
66265,662.65
66338,663.38
66420,664.2
66514,665.14
66607,666.07
66703,667.03
66802,668.02
66900,669.0
66997,669.97
67092,670.92
67186,671.86
67283,672.83
67374,673.74
67458,674.58
67541,675.41
67631,676.31
67724,677.24
67813,678.13
67898,678.98
67987,679.87
68076,680.76
68165,681.65
68253,682.53
68339,683.39
68424,684.24
68518,685.18
68614,686.14
68706,687.06
68803,688.03
68905,689.05
68991,689.91
69070,690.7
69145,691.45
69221,692.21
69301,693.01
69380,693.8
69456,694.56
69531,695.31
69609,696.09
69698,696.98
69788,697.88
69885,698.85
69984,699.84
70074,700.74
70166,701.66
70267,702.67
70370,703.7
70469,704.69
70563,705.63
70655,706.55
70748,707.48
70840,708.4
70927,709.27
71012,710.12
71100,711.0
71193,711.93
71284,712.84
71368,713.68
71455,714.55
71548,715.48
71639,716.39
71728,717.28
71811,718.11
71892,718.92
71974,719.74
72058,720.58
72141,721.41
72244,722.44
72352,723.52
72450,724.5
72541,725.41
72624,726.24
72713,727.13
72807,728.07
72903,729.03
72996,729.96
73088,730.88
73185,731.85
73274,732.74
73365,733.65
73454,734.54
73549,735.49
73641,736.41
73743,737.43
73833,738.33
73919,739.19
74009,740.09
74105,741.05
74202,742.02
74293,742.93
74380,743.8
74478,744.78
74576,745.76
74664,746.64
74754,747.54
74848,748.48
74941,749.41
75032,750.32
75129,751.29
75220,752.2
75303,753.03
75391,753.91
75486,754.86
75581,755.81
75660,756.6
75744,757.44
75835,758.35
75923,759.23
76008,760.08
76090,760.9
76172,761.72
76249,762.49
76326,763.26
76406,764.06
76494,764.94
76578,765.78
76663,766.63
76756,767.56
76847,768.47
76933,769.33
77025,770.25
77112,771.12
77199,771.99
77289,772.89
77378,773.78
77464,774.64
77559,775.59
77657,776.57
77748,777.48
77838,778.38
77938,779.38
78037,780.37
78130,781.3
78220,782.2
78299,782.99
78375,783.75
78452,784.52
78529,785.29
78602,786.02
78673,786.73
78745,787.45
78839,788.39
78937,789.37
79030,790.3
79127,791.27
79210,792.1
79295,792.95
79385,793.85
79474,794.74
79562,795.62
79653,796.53
79756,797.56
79858,798.58
79956,799.56
80054,800.54
80157,801.57
80253,802.53
80352,803.52
80447,804.47
80540,805.4
80631,806.31
80725,807.25
80815,808.15
80901,809.01
80993,809.93
81084,810.84
81174,811.74
81266,812.66
81350,813.5
81436,814.36
81520,815.2
81615,816.15
81710,817.1
81798,817.98
81888,818.88
81973,819.73
82054,820.54
82137,821.37
82230,822.3
82328,823.28
82421,824.21
82517,825.17
82611,826.11
82701,827.01
82791,827.91
82887,828.87
82984,829.84
83076,830.76
83174,831.74
83270,832.7
83367,833.67
83467,834.67
83571,835.71
83666,836.66
83763,837.63
83870,838.7
83957,839.57
84037,840.37
84125,841.25
84223,842.23
84322,843.22
84402,844.02
84484,844.84
84573,845.73
84658,846.58
84743,847.43
84829,848.29
84918,849.18
85008,850.08
85098,850.98
85186,851.86
85281,852.81
85375,853.75
85463,854.63
85554,855.54
85646,856.46
85740,857.4
85829,858.29
85919,859.19
86016,860.16
86107,861.07
86197,861.97
86298,862.98
86398,863.98
86492,864.92
86584,865.84
86694,866.94
86805,868.05
86891,868.91
86969,869.69
87043,870.43
87123,871.23
87211,872.11
87292,872.92
87371,873.71
87446,874.46
87518,875.18
87589,875.89
87661,876.61
87735,877.35
87811,878.11
87896,878.96
87989,879.89
88078,880.78
88172,881.72
88274,882.74
88367,883.67
88458,884.58
88557,885.57
88650,886.5
88740,887.4
88831,888.31
88923,889.23
89011,890.11
89098,890.98
89187,891.87
89273,892.73
89361,893.61
89452,894.52
89540,895.4
89626,896.26
89725,897.25
89823,898.23
89915,899.15
90009,900.09
90110,901.1
90208,902.08
90304,903.04
90413,904.13
90507,905.07
90588,905.88
90668,906.68
90762,907.62
90864,908.64
90950,909.5
91031,910.31
91111,911.11
91192,911.92
91273,912.73
91355,913.55
91445,914.45
91535,915.35
91626,916.26
91721,917.21
91822,918.22
91913,919.13
92004,920.04
92104,921.04
92202,922.02
92297,922.97
92406,924.06
92513,925.13
92622,926.22
92710,927.1
92790,927.9
92872,928.72
92969,929.69
93056,930.56
93136,931.36
93218,932.18
93302,933.02
93389,933.89
93477,934.77
93564,935.64
93655,936.55
93747,937.47
93837,938.37
93932,939.32
94047,940.47
94150,941.5
94246,942.46
94338,943.38
94442,944.42
94544,945.44
94637,946.37
94727,947.27
94817,948.17
94907,949.07
94999,949.99
95098,950.98
95196,951.96
95291,952.91
95389,953.89
95493,954.93
95587,955.87
95678,956.78
95782,957.82
95887,958.87
95971,959.71
96050,960.5
96133,961.33
96224,962.24
96315,963.15
96397,963.97
96482,964.82
96570,965.7
96654,966.54
96737,967.37
96824,968.24
96911,969.11
96997,969.97
97086,970.86
97180,971.8
97277,972.77
97369,973.69
97460,974.6
97547,975.47
97639,976.39
97737,977.37
97831,978.31
97919,979.19
98009,980.09
98103,981.03
98195,981.95
98282,982.82
98371,983.71
98460,984.6
98546,985.46
98635,986.35
98741,987.41
98847,988.47
98930,989.3
99007,990.07
99083,990.83
99156,991.56
99227,992.27
99298,992.98
99370,993.7
99446,994.46
99525,995.25
99606,996.06
99693,996.93
99791,997.91
99879,998.79
99970,999.7
100066,1000.66
100159,1001.59
100253,1002.53
100350,1003.5
100442,1004.42
100531,1005.31
100623,1006.23
100715,1007.15
100802,1008.02
100889,1008.89
100978,1009.78
101067,1010.67
101155,1011.55
101247,1012.47
101339,1013.39
101431,1014.31
101522,1015.22
101621,1016.21
101721,1017.21
101823,1018.23
101931,1019.31
102040,1020.4
102143,1021.43
102237,1022.37
102343,1023.43
102447,1024.47
102541,1025.41
102622,1026.22
102697,1026.97
102771,1027.71
102859,1028.59
102945,1029.45
103026,1030.26
103107,1031.07
103192,1031.92
103283,1032.83
103369,1033.69
103454,1034.54
103541,1035.41
103626,1036.26
103722,1037.22
103823,1038.23
103915,1039.15
104004,1040.04
104097,1040.97
104188,1041.88
104278,1042.78
104371,1043.71
104466,1044.66
104556,1045.56
104645,1046.45
104740,1047.4
104835,1048.35
104923,1049.23
105016,1050.16
105112,1051.12
105206,1052.06
105300,1053.0
105399,1053.99
105499,1054.99
105599,1055.99
105688,1056.88
105768,1057.68
105852,1058.52
105952,1059.52
106046,1060.46
106135,1061.35
106229,1062.29
106321,1063.21
106407,1064.07
106499,1064.99
106594,1065.94
106683,1066.83
106779,1067.79
106887,1068.87
106988,1069.88
107087,1070.87
107184,1071.84
107288,1072.88
107385,1073.85
107475,1074.75
107569,1075.69
107660,1076.6
107749,1077.49
107842,1078.42
107934,1079.34
108021,1080.21
108107,1081.07
108211,1082.11
108306,1083.06
108390,1083.9
108467,1084.67
108544,1085.44
108623,1086.23
108698,1086.98
108769,1087.69
108841,1088.41
108912,1089.12
108989,1089.89
109067,1090.67
109146,1091.46
109231,1092.31
109325,1093.25
109417,1094.17
109506,1095.06
109595,1095.95
109691,1096.91
109785,1097.85
109878,1098.78
109967,1099.67
110059,1100.59
110148,1101.48
110241,1102.41
110334,1103.34
110422,1104.22
110512,1105.12
110605,1106.05
110697,1106.97
110784,1107.84
110872,1108.72
110963,1109.63
111053,1110.53
111150,1111.5
111255,1112.55
111347,1113.47
111433,1114.33
111519,1115.19
111611,1116.11
111704,1117.04
111792,1117.92
111879,1118.79
111970,1119.7
112062,1120.62
112153,1121.53
112240,1122.4
112342,1123.42
112444,1124.44
112526,1125.26
112603,1126.03
112679,1126.79
112765,1127.65
112847,1128.47
112924,1129.24
112999,1129.99
113075,1130.75
113155,1131.55
113235,1132.35
113316,1133.16
113411,1134.11
113505,1135.05
113599,1135.99
113707,1137.07
113811,1138.11
113911,1139.11
114017,1140.17
114119,1141.19
114211,1142.11
114303,1143.03
114399,1143.99
114496,1144.96
114588,1145.88
114676,1146.76
114773,1147.73
114872,1148.72
114964,1149.64
115058,1150.58
115162,1151.62
115261,1152.61
115353,1153.53
115448,1154.48
115549,1155.49
115645,1156.45
115742,1157.42
115851,1158.51
115950,1159.5
116044,1160.44
116148,1161.48
116244,1162.44
116335,1163.35
116415,1164.15
116491,1164.91
116568,1165.68
116652,1166.52
116734,1167.34
116816,1168.16
116903,1169.03
116997,1169.97
117083,1170.83
117165,1171.65
117253,1172.53
117345,1173.45
117433,1174.33
117523,1175.23
117621,1176.21
117716,1177.16
117811,1178.11
117913,1179.13
118016,1180.16
118108,1181.08
118202,1182.02
118300,1183.0
118398,1183.98
118489,1184.89
118575,1185.75
118665,1186.65
118760,1187.6
118848,1188.48
118935,1189.35
119027,1190.27
119118,1191.18
119205,1192.05
119307,1193.07
119418,1194.18
119521,1195.21
119611,1196.11
119692,1196.92
119776,1197.76
119863,1198.63
119945,1199.45
120022,1200.22
120104,1201.04
120192,1201.92
120282,1202.82
120367,1203.67
120454,1204.54
120547,1205.47
120640,1206.4
120728,1207.28
120821,1208.21
120914,1209.14
121005,1210.05
121100,1211.0
121198,1211.98
121301,1213.01
121401,1214.01
121502,1215.02
121608,1216.08
121710,1217.1
121805,1218.05
121903,1219.03
122006,1220.06
122116,1221.16
122211,1222.11
122294,1222.94
122378,1223.78
122475,1224.75
122573,1225.73
122662,1226.62
122752,1227.52
122852,1228.52
122946,1229.46
123033,1230.33
123126,1231.26
123223,1232.23
123313,1233.13
123405,1234.05
123500,1235.0
123590,1235.9
123678,1236.78
123771,1237.71
123868,1238.68
123965,1239.65
124056,1240.56
124155,1241.55
124254,1242.54
124347,1243.47
124435,1244.35
124533,1245.33
124632,1246.32
124716,1247.16
124795,1247.95
124875,1248.75
124956,1249.56
125033,1250.33
125112,1251.12
125194,1251.94
125282,1252.82
125368,1253.68
125451,1254.51
125534,1255.34
125624,1256.24
125714,1257.14
125801,1258.01
125894,1258.94
125991,1259.91
126081,1260.81
126176,1261.76
126276,1262.76
126379,1263.79
126474,1264.74
126573,1265.73
126676,1266.76
126773,1267.73
126861,1268.61
126950,1269.5
127047,1270.47
127141,1271.41
127234,1272.34
127326,1273.26
127431,1274.31
127529,1275.29
127621,1276.21
127715,1277.15
127817,1278.17
127908,1279.08
127996,1279.96
128090,1280.9
128195,1281.95
128290,1282.9
128383,1283.83
128488,1284.88
128594,1285.94
128677,1286.77
128755,1287.55
128829,1288.29
128908,1289.08
128991,1289.91
129064,1290.64
129138,1291.38
129213,1292.13
129294,1292.94
129373,1293.73
129454,1294.54
129540,1295.4
129627,1296.27
129709,1297.09
129792,1297.92
129879,1298.79
129971,1299.71
130057,1300.57
130148,1301.48
130246,1302.46
130342,1303.42
130437,1304.37
130530,1305.3
130618,1306.18
130710,1307.1
130805,1308.05
130898,1308.98
130986,1309.86
131078,1310.78
131169,1311.69
131255,1312.55
131339,1313.39
131431,1314.31
131530,1315.3
131625,1316.25
131720,1317.2
131829,1318.29
131930,1319.3
132022,1320.22
132105,1321.05
132184,1321.84
132269,1322.69
132368,1323.68
132468,1324.68
132554,1325.54
132635,1326.35
132718,1327.18
132836,1328.36
132944,1329.44
133041,1330.41
133145,1331.45
133253,1332.53
133356,1333.56
133456,1334.56
133564,1335.64
133667,1336.67
133762,1337.62
133855,1338.55
133949,1339.49
134040,1340.4
134128,1341.28
134230,1342.3
134328,1343.28
134421,1344.21
134517,1345.17
134614,1346.14
134713,1347.13
134806,1348.06
134897,1348.97
134995,1349.95
135085,1350.85
135165,1351.65
135244,1352.44
135327,1353.27
135418,1354.18
135499,1354.99
135576,1355.76
135654,1356.54
135738,1357.38
135821,1358.21
135904,1359.04
135996,1359.96
136091,1360.91
136179,1361.79
136270,1362.7
136368,1363.68
136461,1364.61
136549,1365.49
136641,1366.41
136743,1367.43
136842,1368.42
136936,1369.36
137028,1370.28
137127,1371.27
137223,1372.23
137312,1373.12
137399,1373.99
137491,1374.91
137592,1375.92
137686,1376.86
137777,1377.77
137886,1378.86
137987,1379.87
138083,1380.83
138184,1381.84
138287,1382.87
138385,1383.85
138480,1384.8
138585,1385.85
138683,1386.83
138784,1387.84
138885,1388.85
138969,1389.69
139047,1390.47
139128,1391.28
139222,1392.22
139304,1393.04
139383,1393.83
139464,1394.64
139545,1395.45
139625,1396.25
139706,1397.06
139794,1397.94
139881,1398.81
139969,1399.69
140065,1400.65
140168,1401.68
140267,1402.67
140365,1403.65
140467,1404.67
140563,1405.63
140660,1406.6
140759,1407.59
140849,1408.49
140937,1409.37
141031,1410.31
141121,1411.21
141209,1412.09
141305,1413.05
141411,1414.11
141506,1415.06
141598,1415.98
141700,1417.0
141809,1418.09
141908,1419.08
142002,1420.02
142109,1421.09
142210,1422.1
142304,1423.04
142405,1424.05
142504,1425.04
142598,1425.98
142697,1426.97
142797,1427.97
142905,1429.05
142990,1429.9
143070,1430.7
143158,1431.58
143242,1432.42
143321,1433.21
143399,1433.99
143478,1434.78
143557,1435.57
143637,1436.37
143729,1437.29
143824,1438.24
143909,1439.09
143989,1439.89
144069,1440.69
144152,1441.52
144240,1442.4
144324,1443.24
144407,1444.07
144496,1444.96
144586,1445.86
144674,1446.74
144760,1447.6
144849,1448.49
144943,1449.43
145037,1450.37
145127,1451.27
145219,1452.19
145317,1453.17
145410,1454.1
145498,1454.98
145591,1455.91
145686,1456.86
145775,1457.75
145863,1458.63
145962,1459.62
146063,1460.63
146159,1461.59
146249,1462.49
146346,1463.46
146454,1464.54
146555,1465.55
146649,1466.49
146755,1467.55
146860,1468.6
146959,1469.59
147060,1470.6
147165,1471.65
147266,1472.66
147358,1473.58
147457,1474.57
147552,1475.52
147646,1476.46
147728,1477.28
147807,1478.07
147894,1478.94
147979,1479.79
148058,1480.58
148140,1481.4
148225,1482.25
148306,1483.06
148386,1483.86
148465,1484.65
148547,1485.47
148629,1486.29
148713,1487.13
148808,1488.08
148910,1489.1
149005,1490.05
149110,1491.1
149214,1492.14
149314,1493.14
149425,1494.25
149530,1495.3
149625,1496.25
149723,1497.23
149825,1498.25
149921,1499.21
150010,1500.1
150100,1501.0
150192,1501.92
150279,1502.79
150366,1503.66
150466,1504.66
150560,1505.6
150652,1506.52
150751,1507.51
150854,1508.54
150954,1509.54
151052,1510.52
151164,1511.64
151266,1512.66
151361,1513.61
151459,1514.59
151555,1515.55
151652,1516.52
151741,1517.41
151826,1518.26
151905,1519.05
151982,1519.82
152066,1520.66
152165,1521.65
152250,1522.5
152329,1523.29
152409,1524.09
152492,1524.92
152573,1525.73
152653,1526.53
152743,1527.43
152842,1528.42
152936,1529.36
153031,1530.31
153138,1531.38
153242,1532.42
153337,1533.37
153433,1534.33
153539,1535.39
153638,1536.38
153734,1537.34
153835,1538.35
153935,1539.35
154031,1540.31
154127,1541.27
154229,1542.29
154324,1543.24
154413,1544.13
154500,1545.0
154591,1545.91
154688,1546.88
154778,1547.78
154864,1548.64
154956,1549.56
155053,1550.53
155148,1551.48
155244,1552.44
155356,1553.56
155462,1554.62
155558,1555.58
155663,1556.63
155770,1557.7
155868,1558.68
155979,1559.79
156091,1560.91
156177,1561.77
156255,1562.55
156332,1563.32
156421,1564.21
156505,1565.05
156584,1565.84
156665,1566.65
156752,1567.52
156835,1568.35
156917,1569.17
157001,1570.01
157091,1570.91
157177,1571.77
157263,1572.63
157359,1573.59
157464,1574.64
157560,1575.6
157656,1576.56
157756,1577.56
157850,1578.5
157952,1579.52
158056,1580.56
158161,1581.61
158259,1582.59
158350,1583.5
158442,1584.42
158537,1585.37
158626,1586.26
158715,1587.15
158804,1588.04
158905,1589.05
159000,1590.0
159092,1590.92
159180,1591.8
159278,1592.78
159378,1593.78
159470,1594.7
159562,1595.62
159674,1596.74
159776,1597.76
159872,1598.72
159979,1599.79
160083,1600.83
160177,1601.77
160270,1602.7
160365,1603.65
160452,1604.52
160530,1605.3
160611,1606.11
160701,1607.01
160782,1607.82
160866,1608.66
160956,1609.56
161040,1610.4
161120,1611.2
161201,1612.01
161291,1612.91
161380,1613.8
161469,1614.69
161566,1615.66
161661,1616.61
161756,1617.56
161859,1618.59
161963,1619.63
162063,1620.63
162174,1621.74
162282,1622.82
162385,1623.85
162495,1624.95
162603,1626.03
162704,1627.04
162805,1628.05
162913,1629.13
163012,1630.12
163105,1631.05
163191,1631.91
163282,1632.82
163379,1633.79
163471,1634.71
163561,1635.61
163660,1636.6
163764,1637.64
163858,1638.58
163952,1639.52
164049,1640.49
164145,1641.45
164238,1642.38
164340,1643.4
164447,1644.47
164541,1645.41
164650,1646.5
164735,1647.35
164815,1648.15
164897,1648.97
164990,1649.9
165084,1650.84
165163,1651.63
165244,1652.44
165327,1653.27
165409,1654.09
165488,1654.88
165572,1655.72
165667,1656.67
165754,1657.54
165846,1658.46
165955,1659.55
166054,1660.54
166154,1661.54
166258,1662.58
166355,1663.55
166449,1664.49
166548,1665.48
166650,1666.5
166745,1667.45
166838,1668.38
166931,1669.31
167040,1670.4
167141,1671.41
167233,1672.33
167324,1673.24
167423,1674.23
167522,1675.22
167616,1676.16
167707,1677.07
167808,1678.08
167915,1679.15
168013,1680.13
168107,1681.07
168225,1682.25
168328,1683.28
168422,1684.22
168524,1685.24
168620,1686.2
168708,1687.08
168810,1688.1
168904,1689.04
168987,1689.87
169067,1690.67
169153,1691.53
169241,1692.41
169321,1693.21
169399,1693.99
169477,1694.77
169555,1695.55
169631,1696.31
169710,1697.1
169795,1697.95
169879,1698.79
169969,1699.69
170068,1700.68
170162,1701.62
170256,1702.56
170361,1703.61
170461,1704.61
170565,1705.65
170681,1706.81
170792,1707.92
170895,1708.95
170997,1709.97
171105,1711.05
171204,1712.04
171299,1712.99
171388,1713.88
171474,1714.74
171558,1715.58
171646,1716.46
171748,1717.48
171841,1718.41
171934,1719.34
172039,1720.39
172141,1721.41
172237,1722.37
172341,1723.41
172441,1724.41
172538,1725.38
172644,1726.44
172746,1727.46
172840,1728.4
172946,1729.46
173042,1730.42
173132,1731.32
173212,1732.12
173291,1732.91
173378,1733.78
173469,1734.69
173551,1735.51
173633,1736.33
173718,1737.18
173798,1737.98
173880,1738.8
173963,1739.63
174047,1740.47
174131,1741.31
174221,1742.21
174322,1743.22
174422,1744.22
174521,1745.21
174628,1746.28
174732,1747.32
174830,1748.3
174931,1749.31
175031,1750.31
175127,1751.27
175219,1752.19
175313,1753.13
175414,1754.14
175516,1755.16
175611,1756.11
175704,1757.04
175799,1757.99
175890,1758.9
175983,1759.83
176083,1760.83
176177,1761.77
176269,1762.69
176360,1763.6
176459,1764.59
176552,1765.52
176643,1766.43
176745,1767.45
176843,1768.43
176936,1769.36
177039,1770.39
177135,1771.35
177229,1772.29
177317,1773.17
177401,1774.01
177480,1774.8
177558,1775.58
177646,1776.46
177729,1777.29
177809,1778.09
177889,1778.89
177969,1779.69
178048,1780.48
178129,1781.29
178222,1782.22
178315,1783.15
178406,1784.06
178512,1785.12
178615,1786.15
178710,1787.1
178809,1788.09
178908,1789.08
179001,1790.01
179097,1790.97
179198,1791.98
179294,1792.94
179385,1793.85
179479,1794.79
179582,1795.82
179684,1796.84
179779,1797.79
179877,1798.77
179986,1799.86
180084,1800.84
180176,1801.76
180268,1802.68
180367,1803.67
180462,1804.62
180555,1805.55
180651,1806.51
180756,1807.56
180850,1808.5
180943,1809.43
181052,1810.52
181159,1811.59
181254,1812.54
181361,1813.61
181469,1814.69
181551,1815.51
181631,1816.31
181721,1817.21
181824,1818.24
181907,1819.07
181989,1819.89
182071,1820.71
182155,1821.55
182239,1822.39
182328,1823.28
182422,1824.22
182515,1825.15
182622,1826.22
182736,1827.36
182839,1828.39
182941,1829.41
183046,1830.46
183143,1831.43
183238,1832.38
183334,1833.34
183425,1834.25
183512,1835.12
183601,1836.01
183697,1836.97
183789,1837.89
183877,1838.77
183973,1839.73
184076,1840.76
184165,1841.65
184253,1842.53
184350,1843.5
184457,1844.57
184555,1845.55
184659,1846.59
184765,1847.65
184865,1848.65
184982,1849.82
185090,1850.9
185189,1851.89
185293,1852.93
185398,1853.98
185490,1854.9
185573,1855.73
185664,1856.64
185771,1857.71
185856,1858.56
185938,1859.38
186018,1860.18
186096,1860.96
186173,1861.73
186249,1862.49
186331,1863.31
186414,1864.14
186500,1865.0
186590,1865.9
186684,1866.84
186778,1867.78
186875,1868.75
186974,1869.74
187068,1870.68
187166,1871.66
187278,1872.78
187384,1873.84
187477,1874.77
187570,1875.7
187668,1876.68
187759,1877.59
187847,1878.47
187947,1879.47
188047,1880.47
188139,1881.39
188231,1882.31
188333,1883.33
188433,1884.33
188529,1885.29
188624,1886.24
188728,1887.28
188835,1888.35
188938,1889.38
189049,1890.49
189155,1891.55
189251,1892.51
189364,1893.64
189474,1894.74
189576,1895.76
189650,1896.5
189725,1897.25
189813,1898.13
189902,1899.02
190018,1900.18
190134,1901.34
190221,1902.21
190302,1903.02
190383,1903.83
190463,1904.63
190543,1905.43
190623,1906.23
190701,1907.01
190781,1907.81
190866,1908.66
190982,1909.82
191093,1910.93
191194,1911.94
191302,1913.02
191413,1914.13
191518,1915.18
191631,1916.31
191743,1917.43
191847,1918.47
191946,1919.46
192044,1920.44
192137,1921.37
192229,1922.29
192323,1923.23
192414,1924.14
192506,1925.06
192602,1926.02
192696,1926.96
192789,1927.89
192888,1928.88
192989,1929.89
193089,1930.89
193180,1931.8
193271,1932.71
193370,1933.7
193470,1934.7
193568,1935.68
193666,1936.66
193769,1937.69
193872,1938.72
193968,1939.68
194068,1940.68
194175,1941.75
194277,1942.77
194388,1943.88
194499,1944.99
194594,1945.94
194688,1946.88
194771,1947.71
194850,1948.5
194933,1949.33
195035,1950.35
195138,1951.38
195221,1952.21
195306,1953.06
195398,1953.98
195480,1954.8
195560,1955.6
195640,1956.4
195718,1957.18
195799,1957.99
195881,1958.81
195973,1959.73
196072,1960.72
196170,1961.7
196270,1962.7
196369,1963.69
196463,1964.63
196559,1965.59
196658,1966.58
196758,1967.58
196853,1968.53
196946,1969.46
197041,1970.41
197132,1971.32
197225,1972.25
197324,1973.24
197422,1974.22
197524,1975.24
197628,1976.28
197725,1977.25
197821,1978.21
197924,1979.24
198032,1980.32
198130,1981.3
198231,1982.31
198338,1983.38
198446,1984.46
198540,1985.4
198647,1986.47
198743,1987.43
198832,1988.32
198913,1989.13
198998,1989.98
199094,1990.94
199191,1991.91
199275,1992.75
199363,1993.63
199449,1994.49
199530,1995.3
199613,1996.13
199701,1997.01
199787,1997.87
199878,1998.78
199980,1999.8
200082,2000.82
200180,2001.8
200281,2002.81
200379,2003.79
200491,2004.91
200601,2006.01
200705,2007.05
200810,2008.1
200914,2009.14
201014,2010.14
201105,2011.05
201196,2011.96
201298,2012.98
201403,2014.03
201502,2015.02
201593,2015.93
201686,2016.86
201792,2017.92
201887,2018.87
201978,2019.78
202073,2020.73
202179,2021.79
202274,2022.74
202368,2023.68
202467,2024.67
202569,2025.69
202666,2026.66
202758,2027.58
202848,2028.48
202932,2029.32
203014,2030.14
203098,2030.98
203184,2031.84
203264,2032.64
203343,2033.43
203422,2034.22
203502,2035.02
203581,2035.81
203661,2036.61
203744,2037.44
203828,2038.28
203912,2039.12
204007,2040.07
204103,2041.03
204197,2041.97
204296,2042.96
204398,2043.98
204493,2044.93
204590,2045.9
204694,2046.94
204794,2047.94
204890,2048.9
204985,2049.85
205085,2050.85
205183,2051.83
205277,2052.77
205372,2053.72
205474,2054.74
205568,2055.68
205656,2056.56
205745,2057.45
205844,2058.44
205938,2059.38
206029,2060.29
206124,2061.24
206229,2062.29
206323,2063.23
206416,2064.16
206520,2065.2
206626,2066.26
206730,2067.3
206838,2068.38
206944,2069.44
207047,2070.47
207144,2071.44
207250,2072.5
207353,2073.53
207446,2074.46
207526,2075.26
207607,2076.07
207700,2077.0
207793,2077.93
207879,2078.79
207962,2079.62
208043,2080.43
208124,2081.24
208203,2082.03
208282,2082.82
208362,2083.62
208448,2084.48
208535,2085.35
208622,2086.22
208717,2087.17
208812,2088.12
208903,2089.03
208998,2089.98
209092,2090.92
209181,2091.81
209275,2092.75
209376,2093.76
209472,2094.72
209561,2095.61
209650,2096.5
209741,2097.41
209835,2098.35
209923,2099.23
210011,2100.11
210102,2101.02
210198,2101.98
210286,2102.86
210376,2103.76
210470,2104.7
210568,2105.68
210660,2106.6
210754,2107.54
210863,2108.63
210962,2109.62
211057,2110.57
211158,2111.58
211266,2112.66
211365,2113.65
211470,2114.7
211581,2115.81
211681,2116.81
211775,2117.75
211879,2118.79
211983,2119.83
212065,2120.65
212144,2121.44
212224,2122.24
212305,2123.05
212382,2123.82
212461,2124.61
212540,2125.4
212623,2126.23
212702,2127.02
212783,2127.83
212861,2128.61
212940,2129.4
213019,2130.19
213106,2131.06
213201,2132.01
213294,2132.94
213383,2133.83
213477,2134.77
213576,2135.76
213678,2136.78
213777,2137.77
213877,2138.77
213982,2139.82
214076,2140.76
214170,2141.7
214263,2142.63
214352,2143.52
214443,2144.43
214540,2145.4
214641,2146.41
214735,2147.35
214828,2148.28
214934,2149.34
215039,2150.39
215133,2151.33
215230,2152.3
215331,2153.31
215424,2154.24
215515,2155.15
215627,2156.27
215724,2157.24
215835,2158.35
215952,2159.52
216051,2160.51
216148,2161.48
216255,2162.55
216362,2163.62
216446,2164.46
216531,2165.31
216635,2166.35
216739,2167.39
216827,2168.27
216918,2169.18
217004,2170.04
217089,2170.89
217178,2171.78
217268,2172.68
217364,2173.64
217461,2174.61
217555,2175.55
217666,2176.66
217775,2177.75
217874,2178.74
217975,2179.75
218080,2180.8
218178,2181.78
218273,2182.73
218372,2183.72
218463,2184.63
218554,2185.54
218650,2186.5
218740,2187.4
218842,2188.42
218951,2189.51
219053,2190.53
219150,2191.5
219254,2192.54
219369,2193.69
219466,2194.66
219559,2195.59
219666,2196.66
219759,2197.59
219856,2198.56
219956,2199.56
220041,2200.41
220124,2201.24
220211,2202.11
220300,2203.0
220385,2203.85
220468,2204.68
220551,2205.51
220636,2206.36
220721,2207.21
220806,2208.06
220902,2209.02
220999,2209.99
221091,2210.91
221184,2211.84
221283,2212.83
221373,2213.73
221466,2214.66
221561,2215.61
221652,2216.52
221744,2217.44
221850,2218.5
221948,2219.48
222044,2220.44
222156,2221.56
222262,2222.62
222360,2223.6
222466,2224.66
222576,2225.76
222674,2226.74
222767,2227.67
222863,2228.63
222957,2229.57
223051,2230.51
223153,2231.53
223261,2232.61
223363,2233.63
223473,2234.73
223579,2235.79
223670,2236.7
223756,2237.56
223837,2238.37
223915,2239.15
224001,2240.01
224100,2241.0
224182,2241.82
224260,2242.6
224339,2243.39
224415,2244.15
224491,2244.91
224566,2245.66
224643,2246.43
224717,2247.17
224791,2247.91
224866,2248.66
224942,2249.42
225026,2250.26
225119,2251.19
225224,2252.24
225325,2253.25
225433,2254.33
225542,2255.42
225652,2256.52
225758,2257.58
225864,2258.64
225971,2259.71
226068,2260.68
226162,2261.62
226260,2262.6
226358,2263.58
226449,2264.49
226537,2265.37
226623,2266.23
226715,2267.15
226802,2268.02
226889,2268.89
226987,2269.87
227086,2270.86
227178,2271.78
227269,2272.69
227377,2273.77
227475,2274.75
227569,2275.69
227667,2276.67
227774,2277.74
227876,2278.76
227973,2279.73
228088,2280.88
228204,2282.04
228299,2282.99
228386,2283.86
228466,2284.66
228547,2285.47
228655,2286.55
228763,2287.63
228854,2288.54
228940,2289.4
229023,2290.23
229103,2291.03
229179,2291.79
229255,2292.55
229333,2293.33
229455,2294.55
229566,2295.66
229669,2296.69
229776,2297.76
229876,2298.76
229977,2299.77
230084,2300.84
230185,2301.85
230285,2302.85
230390,2303.9
230491,2304.91
230585,2305.85
230683,2306.83
230778,2307.78
230869,2308.69
230968,2309.68
231067,2310.67
231159,2311.59
231260,2312.6
231372,2313.72
231482,2314.82
231585,2315.85
231692,2316.92
231798,2317.98
231897,2318.97
232003,2320.03
232104,2321.04
232201,2322.01
232309,2323.09
232414,2324.14
232511,2325.11
232618,2326.18
232710,2327.1
232791,2327.91
232869,2328.69
232942,2329.42
233016,2330.16
233090,2330.9
233166,2331.66
233240,2332.4
233311,2333.11
233381,2333.81
233450,2334.5
233519,2335.19
233586,2335.86
233653,2336.53
233720,2337.2
233787,2337.87
233854,2338.54
233921,2339.21
233989,2339.89
234058,2340.58
234134,2341.34
234223,2342.23
234317,2343.17
234429,2344.29
234533,2345.33
234635,2346.35
234741,2347.41
234843,2348.43
234939,2349.39
235032,2350.32
235131,2351.31
235223,2352.23
235315,2353.15
235418,2354.18
235512,2355.12
235608,2356.08
235716,2357.16
235812,2358.12
235909,2359.09
236025,2360.25
236132,2361.32
236227,2362.27
236319,2363.19
236414,2364.14
236506,2365.06
236603,2366.03
236713,2367.13
236807,2368.07
236899,2368.99
236995,2369.95
237090,2370.9
237172,2371.72
237253,2372.53
237345,2373.45
237428,2374.28
237509,2375.09
237590,2375.9
237672,2376.72
237754,2377.54
237834,2378.34
237916,2379.16
237999,2379.99
238086,2380.86
238197,2381.97
238302,2383.02
238401,2384.01
238507,2385.07
238607,2386.07
238708,2387.08
238815,2388.15
238918,2389.18
239025,2390.25
239134,2391.34
239233,2392.33
239331,2393.31
239441,2394.41
239542,2395.42
239643,2396.43
239732,2397.32
239824,2398.24
239926,2399.26
240021,2400.21
240127,2401.27
240240,2402.4
240345,2403.45
240443,2404.43
240562,2405.62
240672,2406.72
240772,2407.72
240885,2408.85
240986,2409.86
241080,2410.8
241191,2411.91
241286,2412.86
241369,2413.69
241450,2414.5
241513,2415.13
241577,2415.77
241678,2416.78
241765,2417.65
241850,2418.5
241934,2419.34
242016,2420.16
242100,2421.0
242198,2421.98
242294,2422.94
242394,2423.94
242502,2425.02
242601,2426.01
242702,2427.02
242805,2428.05
242904,2429.04
243006,2430.06
243111,2431.11
243210,2432.1
243310,2433.1
243405,2434.05
243496,2434.96
243586,2435.86
243681,2436.81
243770,2437.7
243862,2438.62
243961,2439.61
244055,2440.55
244150,2441.5
244250,2442.5
244349,2443.49
244449,2444.49
244563,2445.63
244671,2446.71
244768,2447.68
244876,2448.76
244985,2449.85
245089,2450.89
245197,2451.97
245303,2453.03
245404,2454.04
245509,2455.09
245622,2456.22
245712,2457.12
245792,2457.92
245877,2458.77
245969,2459.69
246051,2460.51
246129,2461.29
246208,2462.08
246289,2462.89
246371,2463.71
246450,2464.5
246532,2465.32
246617,2466.17
246706,2467.06
246794,2467.94
246893,2468.93
246991,2469.91
247090,2470.9
247196,2471.96
247297,2472.97
247399,2473.99
247503,2475.03
247603,2476.03
247695,2476.95
247793,2477.93
247888,2478.88
247980,2479.8
248077,2480.77
248186,2481.86
248285,2482.85
248383,2483.83
248487,2484.87
248581,2485.81
248674,2486.74
248771,2487.71
248875,2488.75
248971,2489.71
249069,2490.69
249182,2491.82
249296,2492.96
249403,2494.03
249521,2495.21
249625,2496.25
249736,2497.36
249851,2498.51
249952,2499.52
250052,2500.52
250159,2501.59
250263,2502.63
250372,2503.72
250475,2504.75
250563,2505.63
250645,2506.45
250730,2507.3
250810,2508.1
250890,2508.9
250969,2509.69
251046,2510.46
251125,2511.25
251205,2512.05
251287,2512.87
251373,2513.73
251467,2514.67
251558,2515.58
251656,2516.56
251767,2517.67
251871,2518.71
251980,2519.8
252086,2520.86
252184,2521.84
252287,2522.87
252391,2523.91
252487,2524.87
252577,2525.77
252671,2526.71
252771,2527.71
252862,2528.62
252952,2529.52
253051,2530.51
253149,2531.49
253241,2532.41
253359,2533.59
253466,2534.66
253562,2535.62
253663,2536.63
253762,2537.62
253855,2538.55
253948,2539.48
254050,2540.5
254168,2541.68
254292,2542.92
254409,2544.09
254532,2545.32
254639,2546.39
254746,2547.46
254856,2548.56
254941,2549.41
255022,2550.22
255102,2551.02
255180,2551.8
255258,2552.58
255344,2553.44
255429,2554.29
255511,2555.11
255593,2555.93
255679,2556.79
255764,2557.64
255852,2558.52
255953,2559.53
256056,2560.56
256159,2561.59
256276,2562.76
256382,2563.82
256485,2564.85
256593,2565.93
256697,2566.97
256808,2568.08
256916,2569.16
257017,2570.17
257109,2571.09
257199,2571.99
257293,2572.93
257382,2573.82
257468,2574.68
257559,2575.59
257659,2576.59
257750,2577.5
257846,2578.46
257947,2579.47
258047,2580.47
258141,2581.41
258240,2582.4
258351,2583.51
258451,2584.51
258555,2585.55
258663,2586.63
258764,2587.64
258874,2588.74
258982,2589.82
259082,2590.82
259175,2591.75
259260,2592.6
259339,2593.39
259418,2594.18
259485,2594.85
259553,2595.53
259644,2596.44
259727,2597.27
259812,2598.12
259894,2598.94
259975,2599.75
260058,2600.58
260156,2601.56
260247,2602.47
260362,2603.62
260477,2604.77
260586,2605.86
260702,2607.02
260807,2608.07
260909,2609.09
261017,2610.17
261116,2611.16
261211,2612.11
261298,2612.98
261403,2614.03
261508,2615.08
261599,2615.99
261698,2616.98
261797,2617.97
261893,2618.93
261997,2619.97
262107,2621.07
262212,2622.12
262313,2623.13
262425,2624.25
262529,2625.29
262625,2626.25
262726,2627.26
262829,2628.29
262933,2629.33
263045,2630.45
263160,2631.6
263260,2632.6
263345,2633.45
263427,2634.27
263521,2635.21
263612,2636.12
263699,2636.99
263792,2637.92
263879,2638.79
263972,2639.72
264069,2640.69
264163,2641.63
264267,2642.67
264363,2643.63
264466,2644.66
264574,2645.74
264678,2646.78
264793,2647.93
264904,2649.04
265002,2650.02
265100,2651.0
265212,2652.12
265313,2653.13
265407,2654.07
265516,2655.16
265618,2656.18
265718,2657.18
265820,2658.2
265929,2659.29
266029,2660.29
266139,2661.39
266252,2662.52
266355,2663.55
266467,2664.67
266578,2665.78
266677,2666.77
266771,2667.71
266885,2668.85
266987,2669.87
267086,2670.86
267196,2671.96
267300,2673.0
267385,2673.85
267466,2674.66
267542,2675.42
267616,2676.16
267690,2676.9
267764,2677.64
267840,2678.4
267917,2679.17
267996,2679.96
268071,2680.71
268146,2681.46
268223,2682.23
268302,2683.02
268382,2683.82
268466,2684.66
268557,2685.57
268644,2686.44
268737,2687.37
268833,2688.33
268923,2689.23
269014,2690.14
269106,2691.06
269197,2691.97
269288,2692.88
269378,2693.78
269469,2694.69
269558,2695.58
269642,2696.42
269725,2697.25
269810,2698.1
269898,2698.98
269982,2699.82
270068,2700.68
270161,2701.61
270255,2702.55
270343,2703.43
270433,2704.33
270532,2705.32
270624,2706.24
270722,2707.22
270832,2708.32
270941,2709.41
271037,2710.37
271146,2711.46
271254,2712.54
271356,2713.56
271468,2714.68
271577,2715.77
271677,2716.77
271786,2717.86
271894,2718.94
271989,2719.89
272094,2720.94
272190,2721.9
272273,2722.73
272353,2723.53
272433,2724.33
272512,2725.12
272592,2725.92
272674,2726.74
272754,2727.54
272832,2728.32
272912,2729.12
272992,2729.92
273075,2730.75
273167,2731.67
273258,2732.58
273353,2733.53
273469,2734.69
273577,2735.77
273684,2736.84
273794,2737.94
273900,2739.0
274006,2740.06
274106,2741.06
274201,2742.01
274297,2742.97
274394,2743.94
274489,2744.89
274581,2745.81
274673,2746.73
274772,2747.72
274869,2748.69
274972,2749.72
275066,2750.66
275162,2751.62
275262,2752.62
275354,2753.54
275442,2754.42
275535,2755.35
275637,2756.37
275729,2757.29
275822,2758.22
275923,2759.23
276031,2760.31
276131,2761.31
276245,2762.45
276351,2763.51
276451,2764.51
276547,2765.47
276643,2766.43
276726,2767.26
276806,2768.06
276889,2768.89
276978,2769.78
277059,2770.59
277139,2771.39
277221,2772.21
277303,2773.03
277385,2773.85
277469,2774.69
277553,2775.53
277643,2776.43
277737,2777.37
277830,2778.3
277931,2779.31
278038,2780.38
278142,2781.42
278253,2782.53
278362,2783.62
278475,2784.75
278589,2785.89
278689,2786.89
278787,2787.87
278893,2788.93
278995,2789.95
279089,2790.89
279181,2791.81
279279,2792.79
279388,2793.88
279488,2794.88
279579,2795.79
279669,2796.69
279772,2797.72
279877,2798.77
279982,2799.82
280081,2800.81
280173,2801.73
280276,2802.76
280384,2803.84
280479,2804.79
280579,2805.79
280688,2806.88
280788,2807.88
280901,2809.01
281009,2810.09
281108,2811.08
281203,2812.03
281285,2812.85
281366,2813.66
281448,2814.48
281525,2815.25
281605,2816.05
281689,2816.89
281770,2817.7
281849,2818.49
281927,2819.27
282003,2820.03
282083,2820.83
282162,2821.62
282246,2822.46
282328,2823.28
282418,2824.18
282527,2825.27
282621,2826.21
282713,2827.13
282809,2828.09
282902,2829.02
282999,2829.99
283105,2831.05
283206,2832.06
283301,2833.01
283398,2833.98
283504,2835.04
283605,2836.05
283700,2837.0
283800,2838.0
283909,2839.09
284011,2840.11
284105,2841.05
284203,2842.03
284300,2843.0
284393,2843.93
284487,2844.87
284606,2846.06
284713,2847.13
284814,2848.14
284916,2849.16
285018,2850.18
285117,2851.17
285220,2852.2
285335,2853.35
285447,2854.47
285572,2855.72
285674,2856.74
285762,2857.62
285846,2858.46
285940,2859.4
286036,2860.36
286122,2861.22
286207,2862.07
286290,2862.9
286372,2863.72
286454,2864.54
286538,2865.38
286627,2866.27
286721,2867.21
286832,2868.32
286934,2869.34
287037,2870.37
287145,2871.45
287248,2872.48
287356,2873.56
287463,2874.63
287563,2875.63
287666,2876.66
287775,2877.75
287876,2878.76
287973,2879.73
288070,2880.7
288171,2881.71
288267,2882.67
288363,2883.63
288474,2884.74
288578,2885.78
288671,2886.71
288764,2887.64
288870,2888.7
288972,2889.72
289071,2890.71
289180,2891.8
289280,2892.8
289388,2893.88
289495,2894.95
289591,2895.91
289693,2896.93
289801,2898.01
289895,2898.95
289999,2899.99
290104,2901.04
290184,2901.84
290263,2902.63
290346,2903.46
290438,2904.38
290531,2905.31
290611,2906.11
290688,2906.88
290763,2907.63
290841,2908.41
290921,2909.21
291006,2910.06
291094,2910.94
291188,2911.88
291294,2912.94
291389,2913.89
291488,2914.88
291591,2915.91
291692,2916.92
291790,2917.9
291890,2918.9
291986,2919.86
292084,2920.84
292182,2921.82
292281,2922.81
292372,2923.72
292463,2924.63
292559,2925.59
292650,2926.5
292738,2927.38
292825,2928.25
292920,2929.2
293012,2930.12
293099,2930.99
293187,2931.87
293285,2932.85
293382,2933.82
293487,2934.87
293603,2936.03
293713,2937.13
293820,2938.2
293939,2939.39
294049,2940.49
294147,2941.47
294246,2942.46
294353,2943.53
294442,2944.42
294526,2945.26
294614,2946.14
294695,2946.95
294779,2947.79
294873,2948.73
294960,2949.6
295044,2950.44
295122,2951.22
295200,2952.0
295282,2952.82
295372,2953.72
295466,2954.66
295573,2955.73
295683,2956.83
295788,2957.88
295895,2958.95
295997,2959.97
296092,2960.92
296190,2961.9
296288,2962.88
296380,2963.8
296473,2964.73
296581,2965.81
296679,2966.79
296780,2967.8
296876,2968.76
296972,2969.72
297065,2970.65
297164,2971.64
297269,2972.69
297370,2973.7
297472,2974.72
297587,2975.87
297697,2976.97
297804,2978.04
297908,2979.08
298014,2980.14
298124,2981.24
298232,2982.32
298329,2983.29
298418,2984.18
298501,2985.01
298579,2985.79
298657,2986.57
298740,2987.4
298827,2988.27
298909,2989.09
298989,2989.89
299071,2990.71
299151,2991.51
299231,2992.31
299315,2993.15
299400,2994.0
299500,2995.0
299601,2996.01
299698,2996.98
299796,2997.96
299895,2998.95
299988,2999.88
300081,3000.81
300177,3001.77
300271,3002.71
300369,3003.69
300471,3004.71
300573,3005.73
300671,3006.71
300767,3007.67
300864,3008.64
300957,3009.57
301050,3010.5
301152,3011.52
301249,3012.49
301340,3013.4
301436,3014.36
301539,3015.39
301635,3016.35
301734,3017.34
301825,3018.25
301906,3019.06
301986,3019.86
302089,3020.89
302192,3021.92
302280,3022.8
302364,3023.64
302449,3024.49
302533,3025.33
302620,3026.2
302711,3027.11
302804,3028.04
302908,3029.08
303020,3030.2
303122,3031.22
303238,3032.38
303350,3033.5
303455,3034.55
303564,3035.64
303670,3036.7
303768,3037.68
303870,3038.7
303967,3039.67
304068,3040.68
304171,3041.71
304269,3042.69
304371,3043.71
304480,3044.8
304580,3045.8
304686,3046.86
304794,3047.94
304898,3048.98
305015,3050.15
305129,3051.29
305239,3052.39
305363,3053.63
305478,3054.78
305572,3055.72
305654,3056.54
305733,3057.33
305813,3058.13
305888,3058.88
305964,3059.64
306033,3060.33
306113,3061.13
306193,3061.93
306266,3062.66
306338,3063.38
306411,3064.11
306485,3064.85
306567,3065.67
306652,3066.52
306736,3067.36
306823,3068.23
306921,3069.21
307013,3070.13
307104,3071.04
307201,3072.01
307299,3072.99
307389,3073.89
307483,3074.83
307578,3075.78
307667,3076.67
307758,3077.58
307856,3078.56
307952,3079.52
308042,3080.42
308138,3081.38
308239,3082.39
308337,3083.37
308429,3084.29
308522,3085.22
308623,3086.23
308720,3087.2
308818,3088.18
308930,3089.3
309030,3090.3
309122,3091.22
309215,3092.15
309320,3093.2
309418,3094.18
309527,3095.27
309642,3096.42
309750,3097.5
309851,3098.51
309966,3099.66
310084,3100.84
310184,3101.84
310271,3102.71
310349,3103.49
310426,3104.26
310490,3104.9
310555,3105.55
310649,3106.49
310728,3107.28
310806,3108.06
310885,3108.85
310964,3109.64
311045,3110.45
311128,3111.28
311215,3112.15
311307,3113.07
311422,3114.22
311539,3115.39
311657,3116.57
311765,3117.65
311880,3118.8
311997,3119.97
312104,3121.04
312213,3122.13
312320,3123.2
312417,3124.17
312516,3125.16
312619,3126.19
312715,3127.15
312813,3128.13
312917,3129.17
313015,3130.15
313117,3131.17
313227,3132.27
313332,3133.32
313427,3134.27
313524,3135.24
313637,3136.37
313741,3137.41
313840,3138.4
313951,3139.51
314061,3140.61
314161,3141.61
314271,3142.71
314384,3143.84
314494,3144.94
314608,3146.08
314717,3147.17
314814,3148.14
314911,3149.11
315009,3150.09
315095,3150.95
315178,3151.78
315264,3152.64
315351,3153.51
315435,3154.35
315519,3155.19
315600,3156.0
315678,3156.78
315758,3157.58
315841,3158.41
315924,3159.24
316013,3160.13
316122,3161.22
316223,3162.23
316325,3163.25
316428,3164.28
316522,3165.22
316619,3166.19
316723,3167.23
316823,3168.23
316919,3169.19
317021,3170.21
317121,3171.21
317214,3172.14
317311,3173.11
317416,3174.16
317513,3175.13
317612,3176.12
317719,3177.19
317818,3178.18
317920,3179.2
318030,3180.3
318132,3181.32
318231,3182.31
318347,3183.47
318453,3184.53
318550,3185.5
318654,3186.54
318762,3187.62
318863,3188.63
318967,3189.67
319077,3190.77
319182,3191.82
319293,3192.93
319404,3194.04
319494,3194.94
319577,3195.77
319662,3196.62
319760,3197.6
319858,3198.58
319942,3199.42
320027,3200.27
320107,3201.07
320186,3201.86
320268,3202.68
320348,3203.48
320438,3204.38
320545,3205.45
320646,3206.46
320757,3207.57
320866,3208.66
320966,3209.66
321067,3210.67
321167,3211.67
321259,3212.59
321359,3213.59
321458,3214.58
321558,3215.58
321650,3216.5
321747,3217.47
321851,3218.51
321952,3219.52
322048,3220.48
322147,3221.47
322255,3222.55
322355,3223.55
322454,3224.54
322571,3225.71
322680,3226.8
322777,3227.77
322876,3228.76
322988,3229.88
323096,3230.96
323196,3231.96
323309,3233.09
323411,3234.11
323498,3234.98
323585,3235.85
323689,3236.89
323793,3237.93
323890,3238.9
323981,3239.81
324069,3240.69
324156,3241.56
324242,3242.42
324326,3243.26
324425,3244.25
324519,3245.19
324611,3246.11
324707,3247.07
324799,3247.99
324894,3248.94
324990,3249.9
325080,3250.8
325173,3251.73
325269,3252.69
325363,3253.63
325451,3254.51
325544,3255.44
325644,3256.44
325739,3257.39
325847,3258.47
325948,3259.48
326040,3260.4
326133,3261.33
326234,3262.34
326339,3263.39
326439,3264.39
326552,3265.52
326668,3266.68
326761,3267.61
326856,3268.56
326954,3269.54
327045,3270.45
327134,3271.34
327223,3272.23
327308,3273.08
327391,3273.91
327472,3274.72
327551,3275.51
327632,3276.32
327713,3277.13
327811,3278.11
327898,3278.98
327992,3279.92
328093,3280.93
328191,3281.91
328292,3282.92
328393,3283.93
328493,3284.93
328595,3285.95
328698,3286.98
328793,3287.93
328888,3288.88
328989,3289.89
329087,3290.87
329177,3291.77
329270,3292.7
329374,3293.74
329472,3294.72
329567,3295.67
329660,3296.6
329763,3297.63
329871,3298.71
329974,3299.74
330084,3300.84
330187,3301.87
330284,3302.84
330380,3303.8
330491,3304.91
330595,3305.95
330704,3307.04
330802,3308.02
330888,3308.88
330971,3309.71
331049,3310.49
331124,3311.24
331201,3312.01
331282,3312.82
331361,3313.61
331434,3314.34
331504,3315.04
331574,3315.74
331643,3316.43
331711,3317.11
331783,3317.83
331854,3318.54
331929,3319.29
332025,3320.25
332109,3321.09
332196,3321.96
332296,3322.96
332390,3323.9
332494,3324.94
332595,3325.95
332696,3326.96
332797,3327.97
332890,3328.9
332987,3329.87
333086,3330.86
333178,3331.78
333273,3332.73
333370,3333.7
333458,3334.58
333548,3335.48
333645,3336.45
333736,3337.36
333826,3338.26
333928,3339.28
334034,3340.34
334133,3341.33
334241,3342.41
334349,3343.49
334454,3344.54
334567,3345.67
334680,3346.8
334790,3347.9
334909,3349.09
335015,3350.15
335126,3351.26
335243,3352.43
335346,3353.46
335461,3354.61
335550,3355.5
335632,3356.32
335712,3357.12
335805,3358.05
335888,3358.88
335969,3359.69
336050,3360.5
336133,3361.33
336217,3362.17
336304,3363.04
336397,3363.97
336492,3364.92
336601,3366.01
336706,3367.06
336823,3368.23
336931,3369.31
337037,3370.37
337148,3371.48
337248,3372.48
337354,3373.54
337457,3374.57
337551,3375.51
337649,3376.49
337754,3377.54
337853,3378.53
337956,3379.56
338063,3380.63
338162,3381.62
338266,3382.66
338381,3383.81
338490,3384.9
338597,3385.97
338704,3387.04
338809,3388.09
338903,3389.03
338997,3389.97
339103,3391.03
339213,3392.13
339333,3393.33
339447,3394.47
339549,3395.49
339662,3396.62
339752,3397.52
339832,3398.32
339911,3399.11
339989,3399.89
340070,3400.7
340152,3401.52
340232,3402.32
340310,3403.1
340389,3403.89
340471,3404.71
340550,3405.5
340630,3406.3
340722,3407.22
340815,3408.15
340909,3409.09
341018,3410.18
341123,3411.23
341224,3412.24
341334,3413.34
341441,3414.41
341542,3415.42
341643,3416.43
341747,3417.47
341847,3418.47
341939,3419.39
342029,3420.29
342128,3421.28
342222,3422.22
342314,3423.14
342410,3424.1
342511,3425.11
342605,3426.05
342705,3427.05
342817,3428.17
342920,3429.2
343026,3430.26
343142,3431.42
343247,3432.47
343343,3433.43
343457,3434.57
343569,3435.69
343675,3436.75
343790,3437.9
343908,3439.08
344019,3440.19
344131,3441.31
344238,3442.38
344329,3443.29
344418,3444.18
344499,3444.99
344578,3445.78
344662,3446.62
344753,3447.53
344845,3448.45
344924,3449.24
345004,3450.04
345082,3450.82
345161,3451.61
345241,3452.41
345322,3453.22
345411,3454.11
345498,3454.98
345592,3455.92
345688,3456.88
345783,3457.83
345885,3458.85
345989,3459.89
346084,3460.84
346185,3461.85
346289,3462.89
346388,3463.88
346488,3464.88
346596,3465.96
346700,3467.0
346801,3468.01
346904,3469.04
347007,3470.07
347102,3471.02
347200,3472.0
347312,3473.12
347409,3474.09
347503,3475.03
347597,3475.97
347701,3477.01
347796,3477.96
347903,3479.03
348013,3480.13
348116,3481.16
348220,3482.2
348328,3483.28
348429,3484.29
348530,3485.3
348643,3486.43
348757,3487.57
348865,3488.65
348974,3489.74
349076,3490.76
349175,3491.75
349259,3492.59
349343,3493.43
349434,3494.34
349527,3495.27
349619,3496.19
349713,3497.13
349803,3498.03
349894,3498.94
349992,3499.92
350095,3500.95
350199,3501.99
350304,3503.04
350402,3504.02
350496,3504.96
350601,3506.01
350702,3507.02
350798,3507.98
350901,3509.01
351001,3510.01
351101,3511.01
351210,3512.1
351316,3513.16
351414,3514.14
351516,3515.16
351616,3516.16
351713,3517.13
351831,3518.31
351949,3519.49
352048,3520.48
352142,3521.42
352223,3522.23
352303,3523.03
352389,3523.89
352491,3524.91
352593,3525.93
352679,3526.79
352761,3527.61
352847,3528.47
352929,3529.29
353011,3530.11
353096,3530.96
353189,3531.89
353283,3532.83
353372,3533.72
353468,3534.68
353572,3535.72
353668,3536.68
353771,3537.71
353880,3538.8
353973,3539.73
354066,3540.66
354175,3541.75
354279,3542.79
354380,3543.8
354483,3544.83
354578,3545.78
354680,3546.8
354781,3547.81
354879,3548.79
354975,3549.75
355080,3550.8
355184,3551.84
355278,3552.78
355368,3553.68
355448,3554.48
355524,3555.24
355606,3556.06
355713,3557.13
355820,3558.2
355908,3559.08
355989,3559.89
356068,3560.68
356150,3561.5
356234,3562.34
356317,3563.17
356405,3564.05
356509,3565.09
356606,3566.06
356719,3567.19
356832,3568.32
356941,3569.41
357053,3570.53
357155,3571.55
357262,3572.62
357367,3573.67
357460,3574.6
357560,3575.6
357663,3576.63
357755,3577.55
357850,3578.5
357951,3579.51
358047,3580.47
358147,3581.47
358248,3582.48
358347,3583.47
358454,3584.54
358565,3585.65
358673,3586.73
358783,3587.83
358886,3588.86
358996,3589.96
359111,3591.11
359229,3592.29
359349,3593.49
359461,3594.61
359565,3595.65
359664,3596.64
359746,3597.46
359824,3598.24
359907,3599.07
359991,3599.91
360066,3600.66
360141,3601.41
360216,3602.16
360292,3602.92
360365,3603.65
360437,3604.37
360507,3605.07
360574,3605.74
360640,3606.4
360707,3607.07
360772,3607.72
360841,3608.41
360920,3609.2
361005,3610.05
361116,3611.16
361217,3612.17
361330,3613.3
361431,3614.31
361534,3615.34
361633,3616.33
361729,3617.29
361821,3618.21
361916,3619.16
362017,3620.17
362116,3621.16
362210,3622.1
362310,3623.1
362417,3624.17
362515,3625.15
362616,3626.16
362720,3627.2
362816,3628.16
362916,3629.16
363027,3630.27
363130,3631.3
363244,3632.44
363351,3633.51
363453,3634.53
363564,3635.64
363669,3636.69
363769,3637.69
363874,3638.74
363981,3639.81
364079,3640.79
364191,3641.91
364310,3643.1
364425,3644.25
364540,3645.4
364650,3646.5
364745,3647.45
364832,3648.32
364911,3649.11
364989,3649.89
365074,3650.74
365156,3651.56
365239,3652.39
365319,3653.19
365398,3653.98
365478,3654.78
365560,3655.6
365642,3656.42
365726,3657.26
365823,3658.23
365917,3659.17
366033,3660.33
366144,3661.44
366248,3662.48
366357,3663.57
366461,3664.61
366560,3665.6
366663,3666.63
366766,3667.66
366861,3668.61
366958,3669.58
367061,3670.61
367154,3671.54
367246,3672.46
367350,3673.5
367443,3674.43
367545,3675.45
367657,3676.57
367760,3677.6
367857,3678.57
367966,3679.66
368075,3680.75
368172,3681.72
368286,3682.86
368403,3684.03
368517,3685.17
368636,3686.36
368742,3687.42
368836,3688.36
368945,3689.45
369031,3690.31
369112,3691.12
369194,3691.94
369272,3692.72
369352,3693.52
369430,3694.3
369509,3695.09
369588,3695.88
369671,3696.71
369755,3697.55
369839,3698.39
369931,3699.31
370019,3700.19
370124,3701.24
370229,3702.29
370330,3703.3
370439,3704.39
370547,3705.47
370647,3706.47
370745,3707.45
370845,3708.45
370941,3709.41
371044,3710.44
371153,3711.53
371258,3712.58
371368,3713.68
371474,3714.74
371577,3715.77
371691,3716.91
371803,3718.03
371909,3719.09
372023,3720.23
372143,3721.43
372251,3722.51
372362,3723.62
372474,3724.74
372578,3725.78
372693,3726.93
372805,3728.05
372914,3729.14
373030,3730.3
373151,3731.51
373267,3732.67
373377,3733.77
373489,3734.89
373604,3736.04
373715,3737.15
373812,3738.12
373902,3739.02
373982,3739.82
374063,3740.63
374159,3741.59
374256,3742.56
374338,3743.38
374418,3744.18
374506,3745.06
374598,3745.98
374682,3746.82
374770,3747.7
374859,3748.59
374953,3749.53
375052,3750.52
375168,3751.68
375277,3752.77
375379,3753.79
375484,3754.84
375589,3755.89
375685,3756.85
375788,3757.88
375888,3758.88
375987,3759.87
376089,3760.89
376185,3761.85
376275,3762.75
376370,3763.7
376469,3764.69
376563,3765.63
376669,3766.69
376772,3767.72
376870,3768.7
376976,3769.76
377083,3770.83
377183,3771.83
377290,3772.9
377401,3774.01
377502,3775.02
377608,3776.08
377721,3777.21
377831,3778.31
377941,3779.41
378051,3780.51
378149,3781.49
378241,3782.41
378324,3783.24
378406,3784.06
378503,3785.03
378602,3786.02
378690,3786.9
378773,3787.73
378855,3788.55
378937,3789.37
379020,3790.2
379106,3791.06
379194,3791.94
379296,3792.96
379412,3794.12
379516,3795.16
379624,3796.24
379730,3797.3
379829,3798.29
379935,3799.35
380041,3800.41
380141,3801.41
380243,3802.43
380343,3803.43
380435,3804.35
380527,3805.27
380623,3806.23
380721,3807.21
380820,3808.2
380928,3809.28
381033,3810.33
381137,3811.37
381255,3812.55
381369,3813.69
381470,3814.7
381580,3815.8
381684,3816.84
381779,3817.79
381881,3818.81
381966,3819.66
382046,3820.46
382130,3821.3
382215,3822.15
382297,3822.97
382377,3823.77
382454,3824.54
382530,3825.3
382607,3826.07
382692,3826.92
382778,3827.78
382873,3828.73
382984,3829.84
383091,3830.91
383204,3832.04
383306,3833.06
383405,3834.05
383510,3835.1
383613,3836.13
383709,3837.09
383809,3838.09
383914,3839.14
384006,3840.06
384095,3840.95
384195,3841.95
384298,3842.98
384390,3843.9
384483,3844.83
384592,3845.92
384694,3846.94
384792,3847.92
384899,3848.99
385009,3850.09
385109,3851.09
385205,3852.05
385315,3853.15
385419,3854.19
385520,3855.2
385631,3856.31
385743,3857.43
385851,3858.51
385959,3859.59
386076,3860.76
386185,3861.85
386304,3863.04
386408,3864.08
386499,3864.99
386581,3865.81
386663,3866.63
386741,3867.41
386821,3868.21
386908,3869.08
386992,3869.92
387074,3870.74
387153,3871.53
387241,3872.41
387327,3873.27
387416,3874.16
387535,3875.35
387640,3876.4
387741,3877.41
387849,3878.49
387952,3879.52
388056,3880.56
388165,3881.65
388264,3882.64
388357,3883.57
388455,3884.55
388561,3885.61
388658,3886.58
388754,3887.54
388853,3888.53
388952,3889.52
389043,3890.43
389135,3891.35
389233,3892.33
389330,3893.3
389424,3894.24
389527,3895.27
389628,3896.28
389724,3897.24
389825,3898.25
389929,3899.29
390030,3900.3
390132,3901.32
390246,3902.46
390357,3903.57
390459,3904.59
390572,3905.72
390685,3906.85
390787,3907.87
390892,3908.92
390979,3909.79
391060,3910.6
391141,3911.41
391253,3912.53
391366,3913.66
391460,3914.6
391550,3915.5
391634,3916.34
391731,3917.31
391828,3918.28
391918,3919.18
392015,3920.15
392117,3921.17
392213,3922.13
392311,3923.11
392421,3924.21
392522,3925.22
392634,3926.34
392739,3927.39
392837,3928.37
392943,3929.43
393051,3930.51
393152,3931.52
393263,3932.63
393369,3933.69
393470,3934.7
393573,3935.73
393671,3936.71
393766,3937.66
393871,3938.71
393979,3939.79
394082,3940.82
394200,3942.0
394319,3943.19
394426,3944.26
394540,3945.4
394657,3946.57
394768,3947.68
394883,3948.83
394994,3949.94
395100,3951.0
395212,3952.12
395327,3953.27
395435,3954.35
395546,3955.46
395651,3956.51
395762,3957.62
395877,3958.77
395990,3959.9
396107,3961.07
396227,3962.27
396347,3963.47
396461,3964.61
396576,3965.76
396690,3966.9
396792,3967.92
396891,3968.91
396974,3969.74
397055,3970.55
397137,3971.37
397246,3972.46
397355,3973.55
397451,3974.51
397543,3975.43
397627,3976.27
397710,3977.1
397796,3977.96
397882,3978.82
397972,3979.72
398070,3980.7
398163,3981.63
398260,3982.6
398357,3983.57
398452,3984.52
398544,3985.44
398640,3986.4
398735,3987.35
398825,3988.25
398915,3989.15
399005,3990.05
399094,3990.94
399182,3991.82
399277,3992.77
399376,3993.76
399468,3994.68
399555,3995.55
399638,3996.38
399716,3997.16
399793,3997.93
399873,3998.73
399973,3999.73
400062,4000.62
400153,4001.53
400247,4002.47
400336,4003.36
400430,4004.3
400518,4005.18
400614,4006.14
400721,4007.21
400821,4008.21
400928,4009.28
401043,4010.43
401158,4011.58
401268,4012.68
401379,4013.79
401480,4014.8
401578,4015.78
401682,4016.82
401787,4017.87
401885,4018.85
401989,4019.89
402106,4021.06
402217,4022.17
402332,4023.32
402452,4024.52
402561,4025.61
402657,4026.57
402747,4027.47
402826,4028.26
402902,4029.02
402979,4029.79
403065,4030.65
403144,4031.44
403222,4032.22
403297,4032.97
403375,4033.75
403455,4034.55
403534,4035.34
403617,4036.17
403705,4037.05
403820,4038.2
403927,4039.27
404025,4040.25
404140,4041.4
404251,4042.51
404354,4043.54
404460,4044.6
404560,4045.6
404652,4046.52
404749,4047.49
404849,4048.49
404941,4049.41
405032,4050.32
405122,4051.22
405216,4052.16
405307,4053.07
405402,4054.02
405500,4055.0
405598,4055.98
405700,4057.0
405813,4058.13
405914,4059.14
406015,4060.15
406119,4061.19
406220,4062.2
406330,4063.3
406448,4064.48
406566,4065.66
406687,4066.87
406802,4068.02
406911,4069.11
407019,4070.19
407119,4071.19
407216,4072.16
407304,4073.04
407383,4073.83
407462,4074.62
407541,4075.41
407620,4076.2
407700,4077.0
407778,4077.78
407856,4078.56
407931,4079.31
408005,4080.05
408081,4080.81
408160,4081.6
408240,4082.4
408326,4083.26
408409,4084.09
408496,4084.96
408604,4086.04
408707,4087.07
408806,4088.06
408916,4089.16
409020,4090.2
409116,4091.16
409215,4092.15
409320,4093.2
409419,4094.19
409520,4095.2
409628,4096.28
409734,4097.34
409834,4098.34
409932,4099.32
410043,4100.43
410151,4101.51
410251,4102.51
410355,4103.55
410462,4104.62
410569,4105.69
410676,4106.76
410791,4107.91
410900,4109.0
411008,4110.08
411118,4111.18
411225,4112.25
411331,4113.31
411443,4114.43
411553,4115.53
411665,4116.65
411788,4117.88
411897,4118.97
412017,4120.17
412135,4121.35
412250,4122.5
412382,4123.82
412515,4125.15
412650,4126.5
412773,4127.73
412898,4128.98
413038,4130.38
413165,4131.65
413297,4132.97
413420,4134.2
413535,4135.35
413635,4136.35
413719,4137.19
413796,4137.96
413871,4138.71
413946,4139.46
414017,4140.17
414087,4140.87
414160,4141.6
414236,4142.36
414304,4143.04
414372,4143.72
414438,4144.38
414502,4145.02
414571,4145.71
414644,4146.44
414758,4147.58
414865,4148.65
414969,4149.69
415073,4150.73
415175,4151.75
415267,4152.67
415361,4153.61
415476,4154.76
415583,4155.83
415686,4156.86
415797,4157.97
415903,4159.03
416001,4160.01
416109,4161.09
416213,4162.13
416311,4163.11
416417,4164.17
416519,4165.19
416619,4166.19
416724,4167.24
416831,4168.31
416932,4169.32
417046,4170.46
417161,4171.61
417260,4172.6
417367,4173.67
417486,4174.86
417597,4175.97
417725,4177.25
417851,4178.51
417989,4179.89
418125,4181.25
418255,4182.55
418379,4183.79
418497,4184.97
418617,4186.17
418740,4187.4
418858,4188.58
418981,4189.81
419113,4191.13
419247,4192.47
419362,4193.62
419467,4194.67
419551,4195.51
419629,4196.29
419700,4197.0
419771,4197.71
419840,4198.4
419910,4199.1
419983,4199.83
420064,4200.64
420147,4201.47
420229,4202.29
420308,4203.08
420386,4203.86
420462,4204.62
420537,4205.37
420611,4206.11
420685,4206.85
420758,4207.58
420829,4208.29
420901,4209.01
420975,4209.75
421054,4210.54
421148,4211.48
421234,4212.34
421319,4213.19
421416,4214.16
421514,4215.14
421604,4216.04
421695,4216.95
421797,4217.97
421895,4218.95
421988,4219.88
422083,4220.83
422182,4221.82
422282,4222.82
422386,4223.86
422494,4224.94
422594,4225.94
422700,4227.0
422801,4228.01
422897,4228.97
423002,4230.02
423110,4231.1
423216,4232.16
423329,4233.29
423442,4234.42
423552,4235.52
423661,4236.61
423765,4237.65
423867,4238.67
423968,4239.68
424075,4240.75
424175,4241.75
424281,4242.81
424398,4243.98
424518,4245.18
424639,4246.39
424769,4247.69
424895,4248.95
424983,4249.83
425071,4250.71
425163,4251.63
425269,4252.69
425388,4253.88
425519,4255.19
425654,4256.54
425794,4257.94
425930,4259.3
426081,4260.81
426211,4262.11
426325,4263.25
426406,4264.06
426479,4264.79
426547,4265.47
426613,4266.13
426675,4266.75
426735,4267.35
426796,4267.96
426858,4268.58
426928,4269.28
427032,4270.32
427122,4271.22
427208,4272.08
427293,4272.93
427381,4273.81
427469,4274.69
427553,4275.53
427637,4276.37
427719,4277.19
427799,4277.99
427878,4278.78
427956,4279.56
428035,4280.35
428112,4281.12
428189,4281.89
428266,4282.66
428342,4283.42
428418,4284.18
428533,4285.33
428637,4286.37
428741,4287.41
428849,4288.49
428951,4289.51
429053,4290.53
429150,4291.5
429249,4292.49
429365,4293.65
429478,4294.78
429594,4295.94
429713,4297.13
429830,4298.3
429947,4299.47
430063,4300.63
430177,4301.77
430294,4302.94
430416,4304.16
430547,4305.47
430677,4306.77
430808,4308.08
430940,4309.4
431048,4310.48
431152,4311.52
431265,4312.65
431389,4313.89
431520,4315.2
431645,4316.45
431767,4317.67
431883,4318.83
432017,4320.17
432143,4321.43
432278,4322.78
432399,4323.99
432526,4325.26
432651,4326.51
432780,4327.8
432904,4329.04
433045,4330.45
433169,4331.69
433301,4333.01
433423,4334.23
433553,4335.53
433692,4336.92
433821,4338.21
433964,4339.64
434094,4340.94
434226,4342.26
434356,4343.56
434476,4344.76
434568,4345.68
434641,4346.41
434710,4347.1
434778,4347.78
434847,4348.47
434911,4349.11
434974,4349.74
435035,4350.35
435098,4350.98
435162,4351.62
435230,4352.3
435299,4352.99
435367,4353.67
435434,4354.34
435506,4355.06
435578,4355.78
435653,4356.53
435729,4357.29
435804,4358.04
435880,4358.8
435962,4359.62
436073,4360.73
436172,4361.72
436262,4362.62
436350,4363.5
436443,4364.43
436537,4365.37
436631,4366.31
436731,4367.31
436830,4368.3
436924,4369.24
437032,4370.32
437145,4371.45
437254,4372.54
437367,4373.67
437474,4374.74
437584,4375.84
437706,4377.06
437822,4378.22
437942,4379.42
438051,4380.51
438172,4381.72
438281,4382.81
438400,4384.0
438514,4385.14
438642,4386.42
438766,4387.66
438901,4389.01
439029,4390.29
439159,4391.59
439282,4392.82
439407,4394.07
439539,4395.39
439650,4396.5
439735,4397.35
439813,4398.13
439888,4398.88
439962,4399.62
440034,4400.34
440104,4401.04
440173,4401.73
440248,4402.48
440326,4403.26
440403,4404.03
440478,4404.78
440550,4405.5
440621,4406.21
440693,4406.93
440775,4407.75
440895,4408.95
441003,4410.03
441116,4411.16
441229,4412.29
441335,4413.35
441446,4414.46
441550,4415.5
441658,4416.58
441762,4417.62
441871,4418.71
441985,4419.85
442088,4420.88
442195,4421.95
442311,4423.11
442424,4424.24
442542,4425.42
442653,4426.53
442770,4427.7
442882,4428.82
442996,4429.96
443108,4431.08
443224,4432.24
443336,4433.36
443451,4434.51
443565,4435.65
443685,4436.85
443805,4438.05
443924,4439.24
444045,4440.45
444168,4441.68
444292,4442.92
444412,4444.12
444528,4445.28
444650,4446.5
444772,4447.72
444904,4449.04
445032,4450.32
445156,4451.56
445279,4452.79
445409,4454.09
445539,4455.39
445669,4456.69
445794,4457.94
445920,4459.2
446047,4460.47
446172,4461.72
446300,4463.0
446396,4463.96
446476,4464.76
446551,4465.51
446622,4466.22
446693,4466.93
446761,4467.61
446828,4468.28
446902,4469.02
446984,4469.84
447064,4470.64
447145,4471.45
447231,4472.31
447319,4473.19
447404,4474.04
447488,4474.88
447574,4475.74
447657,4476.57
447738,4477.38
447821,4478.21
447905,4479.05
447988,4479.88
448070,4480.7
448158,4481.58
448242,4482.42
448329,4483.29
448416,4484.16
448500,4485.0
448588,4485.88
448671,4486.71
448755,4487.55
448840,4488.4
448923,4489.23
449007,4490.07
449089,4490.89
449169,4491.69
449249,4492.49
449328,4493.28
449408,4494.08
449486,4494.86
449564,4495.64
449641,4496.41
449716,4497.16
449789,4497.89
449860,4498.6
449929,4499.29
449997,4499.97
450068,4500.68
450149,4501.49
450259,4502.59
450368,4503.68
450485,4504.85
450597,4505.97
450706,4507.06
450818,4508.18
450925,4509.25
451045,4510.45
451164,4511.64
451282,4512.82
451397,4513.97
451519,4515.19
451642,4516.42
451765,4517.65
451888,4518.88
452010,4520.1
452133,4521.33
452253,4522.53
452377,4523.77
452497,4524.97
452622,4526.22
452759,4527.59
452888,4528.88
453015,4530.15
453147,4531.47
453278,4532.78
453412,4534.12
453539,4535.39
453661,4536.61
453783,4537.83
453909,4539.09
454030,4540.3
454144,4541.44
454259,4542.59
454381,4543.81
454499,4544.99
454605,4546.05
454701,4547.01
454788,4547.88
454865,4548.65
454936,4549.36
455003,4550.03
455071,4550.71
455136,4551.36
455200,4552.0
455265,4552.65
455335,4553.35
455408,4554.08
455484,4554.84
455556,4555.56
455625,4556.25
455693,4556.93
455759,4557.59
455823,4558.23
455887,4558.87
455951,4559.51
456017,4560.17
456086,4560.86
456159,4561.59
456236,4562.36
456316,4563.16
456393,4563.93
456469,4564.69
456549,4565.49
456636,4566.36
456724,4567.24
456806,4568.06
456887,4568.87
456968,4569.68
457050,4570.5
457131,4571.31
457210,4572.1
457290,4572.9
457371,4573.71
457451,4574.51
457528,4575.28
457607,4576.07
457715,4577.15
457823,4578.23
457923,4579.23
458018,4580.18
458115,4581.15
458230,4582.3
458340,4583.4
458456,4584.56
458568,4585.68
458679,4586.79
458789,4587.89
458897,4588.97
459007,4590.07
459115,4591.15
459226,4592.26
459341,4593.41
459456,4594.56
459570,4595.7
459688,4596.88
459805,4598.05
459920,4599.2
460035,4600.35
460147,4601.47
460261,4602.61
460376,4603.76
460494,4604.94
460611,4606.11
460731,4607.31
460830,4608.3
460913,4609.13
460991,4609.91
461067,4610.67
461146,4611.46
461231,4612.31
461313,4613.13
461396,4613.96
461478,4614.78
461564,4615.64
461651,4616.51
461739,4617.39
461833,4618.33
461935,4619.35
462046,4620.46
462157,4621.57
462261,4622.61
462361,4623.61
462460,4624.6
462555,4625.55
462666,4626.66
462774,4627.74
462888,4628.88
463003,4630.03
463114,4631.14
463221,4632.21
463325,4633.25
463432,4634.32
463546,4635.46
463659,4636.59
463776,4637.76
463895,4638.95
464018,4640.18
464135,4641.35
464251,4642.51
464365,4643.65
464475,4644.75
464591,4645.91
464711,4647.11
464833,4648.33
464958,4649.58
465074,4650.74
465188,4651.88
465300,4653.0
465409,4654.09
465523,4655.23
465648,4656.48
465781,4657.81
465914,4659.14
466040,4660.4
466168,4661.68
466293,4662.93
466418,4664.18
466548,4665.48
466677,4666.77
466801,4668.01
466932,4669.32
467062,4670.62
467185,4671.85
467309,4673.09
467372,4673.72
467436,4674.36
467492,4674.92
467548,4675.48
467629,4676.29
467711,4677.11
467780,4677.8
467847,4678.47
467912,4679.12
467974,4679.74
468036,4680.36
468102,4681.02
468174,4681.74
468244,4682.44
468313,4683.13
468378,4683.78
468443,4684.43
468507,4685.07
468570,4685.7
468633,4686.33
468695,4686.95
468756,4687.56
468817,4688.17
468879,4688.79
468940,4689.4
469001,4690.01
469062,4690.62
469124,4691.24
469187,4691.87
469252,4692.52
469318,4693.18
469384,4693.84
469449,4694.49
469515,4695.15
469582,4695.82
469652,4696.52
469728,4697.28
469815,4698.15
469902,4699.02
469983,4699.83
470061,4700.61
470144,4701.44
470238,4702.38
470327,4703.27
470412,4704.12
470497,4704.97
470594,4705.94
470687,4706.87
470774,4707.74
470865,4708.65
470957,4709.57
471045,4710.45
471134,4711.34
471223,4712.23
471305,4713.05
471383,4713.83
471461,4714.61
471551,4715.51
471642,4716.42
471722,4717.22
471800,4718.0
471882,4718.82
471961,4719.61
472038,4720.38
472113,4721.13
472188,4721.88
472264,4722.64
472344,4723.44
472421,4724.21
472496,4724.96
472571,4725.71
472646,4726.46
472723,4727.23
472806,4728.06
472884,4728.84
472961,4729.61
473037,4730.37
473113,4731.13
473189,4731.89
473268,4732.68
473345,4733.45
473424,4734.24
473507,4735.07
473594,4735.94
473684,4736.84
473770,4737.7
473856,4738.56
473947,4739.47
474042,4740.42
474144,4741.44
474249,4742.49
474352,4743.52
474455,4744.55
474556,4745.56
474651,4746.51
474747,4747.47
474855,4748.55
474964,4749.64
475064,4750.64
475165,4751.65
475260,4752.6
475358,4753.58
475448,4754.48
475540,4755.4
475640,4756.4
475730,4757.3
475823,4758.23
475916,4759.16
475996,4759.96
476078,4760.78
476178,4761.78
476273,4762.73
476365,4763.65
476455,4764.55
476551,4765.51
476640,4766.4
476732,4767.32
476830,4768.3
476924,4769.24
477024,4770.24
477134,4771.34
477252,4772.52
477366,4773.66
477479,4774.79
477589,4775.89
477698,4776.98
477815,4778.15
477931,4779.31
478048,4780.48
478163,4781.63
478290,4782.9
478419,4784.19
478545,4785.45
478672,4786.72
478796,4787.96
478920,4789.2
479047,4790.47
479175,4791.75
479299,4792.99
479427,4794.27
479556,4795.56
479689,4796.89
479822,4798.22
479945,4799.45
480068,4800.68
480193,4801.93
480317,4803.17
480440,4804.4
480567,4805.67
480696,4806.96
480824,4808.24
480952,4809.52
481076,4810.76
481200,4812.0
481325,4813.25
481447,4814.47
481568,4815.68
481691,4816.91
481819,4818.19
481944,4819.44
482065,4820.65
482188,4821.88
482307,4823.07
482423,4824.23
482545,4825.45
482665,4826.65
482778,4827.78
482893,4828.93
482983,4829.83
483063,4830.63
483137,4831.37
483211,4832.11
483283,4832.83
483352,4833.52
483419,4834.19
483487,4834.87
483559,4835.59
483637,4836.37
483714,4837.14
483790,4837.9
483862,4838.62
483932,4839.32
484001,4840.01
484070,4840.7
484140,4841.4
484219,4842.19
484307,4843.07
484400,4844.0
484494,4844.94
484583,4845.83
484673,4846.73
484763,4847.63
484849,4848.49
484932,4849.32
485016,4850.16
485103,4851.03
485201,4852.01
485295,4852.95
485390,4853.9
485486,4854.86
485576,4855.76
485672,4856.72
485778,4857.78
485879,4858.79
485984,4859.84
486089,4860.89
486194,4861.94
486309,4863.09
486427,4864.27
486542,4865.42
486656,4866.56
486770,4867.7
486879,4868.79
486990,4869.9
487095,4870.95
487209,4872.09
487325,4873.25
487439,4874.39
487556,4875.56
487673,4876.73
487791,4877.91
487914,4879.14
488039,4880.39
488160,4881.6
488278,4882.78
488393,4883.93
488513,4885.13
488629,4886.29
488746,4887.46
488862,4888.62
488985,4889.85
489094,4890.94
489190,4891.9
489273,4892.73
489348,4893.48
489419,4894.19
489493,4894.93
489566,4895.66
489634,4896.34
489700,4897.0
489764,4897.64
489828,4898.28
489892,4898.92
489965,4899.65
490077,4900.77
490180,4901.8
490279,4902.79
490376,4903.76
490475,4904.75
490574,4905.74
490670,4906.7
490764,4907.64
490857,4908.57
490948,4909.48
491036,4910.36
491122,4911.22
491207,4912.07
491292,4912.92
491377,4913.77
491462,4914.62
491547,4915.47
491632,4916.32
491712,4917.12
491791,4917.91
491870,4918.7
491955,4919.55
492044,4920.44
492142,4921.42
492239,4922.39
492337,4923.37
492439,4924.39
492543,4925.43
492643,4926.43
492746,4927.46
492846,4928.46
492944,4929.44
493044,4930.44
493143,4931.43
493244,4932.44
493342,4933.42
493443,4934.43
493555,4935.55
493663,4936.63
493775,4937.75
493881,4938.81
493989,4939.89
494096,4940.96
494203,4942.03
494310,4943.1
494428,4944.28
494543,4945.43
494656,4946.56
494767,4947.67
494884,4948.84
494985,4949.85
495068,4950.68
495146,4951.46
495220,4952.2
495296,4952.96
495370,4953.7
495444,4954.44
495521,4955.21
495600,4956.0
495682,4956.82
495764,4957.64
495842,4958.42
495919,4959.19
495999,4959.99
496097,4960.97
496189,4961.89
496290,4962.9
496385,4963.85
496480,4964.8
496575,4965.75
496676,4966.76
496773,4967.73
496870,4968.7
496969,4969.69
497068,4970.68
497167,4971.67
497265,4972.65
497363,4973.63
497467,4974.67
497573,4975.73
497679,4976.79
497787,4977.87
497897,4978.97
498003,4980.03
498107,4981.07
498208,4982.08
498314,4983.14
498426,4984.26
498540,4985.4
498653,4986.53
498769,4987.69
498885,4988.85
499006,4990.06
499130,4991.3
499252,4992.52
499375,4993.75
499500,4995.0
499627,4996.27
499753,4997.53
499878,4998.78
500002,5000.02
500125,5001.25
500249,5002.49
500370,5003.7
500501,5005.01
500610,5006.1
500699,5006.99
500780,5007.8
500858,5008.58
500934,5009.34
501012,5010.12
501119,5011.19
501218,5012.18
501324,5013.24
501408,5014.08
501486,5014.86
501563,5015.63
501638,5016.38
501717,5017.17
501840,5018.4
501953,5019.53
502065,5020.65
502171,5021.71
502276,5022.76
502375,5023.75
502469,5024.69
502565,5025.65
502678,5026.78
502790,5027.9
502897,5028.97
503001,5030.01
503108,5031.08
503212,5032.12
503318,5033.18
503429,5034.29
503541,5035.41
503646,5036.46
503754,5037.54
503863,5038.63
503968,5039.68
504076,5040.76
504185,5041.85
504291,5042.91
504399,5043.99
504507,5045.07
504615,5046.15
504724,5047.24
504832,5048.32
504943,5049.43
505054,5050.54
505165,5051.65
505273,5052.73
505380,5053.8
505490,5054.9
505599,5055.99
505709,5057.09
505824,5058.24
505942,5059.42
506061,5060.61
506179,5061.79
506299,5062.99
506418,5064.18
506529,5065.29
506645,5066.45
506760,5067.6
506880,5068.8
507001,5070.01
507125,5071.25
507247,5072.47
507366,5073.66
507487,5074.87
507600,5076.0
507691,5076.91
507774,5077.74
507851,5078.51
507928,5079.28
508001,5080.01
508073,5080.73
508144,5081.44
508219,5082.19
508298,5082.98
508376,5083.76
508456,5084.56
508533,5085.33
508610,5086.1
508688,5086.88
508769,5087.69
508850,5088.5
508932,5089.32
509012,5090.12
509094,5090.94
509176,5091.76
509257,5092.57
509340,5093.4
509421,5094.21
509504,5095.04
509585,5095.85
509666,5096.66
509747,5097.47
509827,5098.27
509906,5099.06
509985,5099.85
510064,5100.64
510143,5101.43
510220,5102.2
510295,5102.95
510368,5103.68
510440,5104.4
510512,5105.12
510583,5105.83
510664,5106.64
510750,5107.5
510836,5108.36
510931,5109.31
511038,5110.38
511140,5111.4
511242,5112.42
511344,5113.44
511447,5114.47
511548,5115.48
511650,5116.5
511751,5117.51
511861,5118.61
511974,5119.74
512086,5120.86
512200,5122.0
512317,5123.17
512430,5124.3
512539,5125.39
512651,5126.51
512761,5127.61
512876,5128.76
512992,5129.92
513114,5131.14
513232,5132.32
513357,5133.57
513481,5134.81
513605,5136.05
513725,5137.25
513846,5138.46
513969,5139.69
514094,5140.94
514228,5142.28
514357,5143.57
514485,5144.85
514617,5146.17
514745,5147.45
514877,5148.77
515004,5150.04
515132,5151.32
515261,5152.61
515385,5153.85
515510,5155.1
515641,5156.41
515772,5157.72
515900,5159.0
516004,5160.04
516088,5160.88
516158,5161.58
516224,5162.24
516291,5162.91
516361,5163.61
516430,5164.3
516494,5164.94
516556,5165.56
516616,5166.16
516676,5166.76
516736,5167.36
516798,5167.98
516865,5168.65
516970,5169.7
517074,5170.74
517178,5171.78
517273,5172.73
517364,5173.64
517453,5174.53
517539,5175.39
517624,5176.24
517707,5177.07
517786,5177.86
517866,5178.66
517946,5179.46
518027,5180.27
518104,5181.04
518178,5181.78
518250,5182.5
518321,5183.21
518400,5184.0
518494,5184.94
518588,5185.88
518672,5186.72
518756,5187.56
518868,5188.68
518981,5189.81
519084,5190.84
519184,5191.84
519292,5192.92
519399,5193.99
519504,5195.04
519613,5196.13
519720,5197.2
519833,5198.33
519945,5199.45
520051,5200.51
520162,5201.62
520270,5202.7
520375,5203.75
520482,5204.82
520587,5205.87
520700,5207.0
520818,5208.18
520934,5209.34
521051,5210.51
521176,5211.76
521294,5212.94
521414,5214.14
521529,5215.29
521648,5216.48
521764,5217.64
521863,5218.63
521947,5219.47
522026,5220.26
522103,5221.03
522182,5221.82
522258,5222.58
522333,5223.33
522407,5224.07
522495,5224.95
522593,5225.93
522689,5226.89
522776,5227.76
522858,5228.58
522938,5229.38
523021,5230.21
523113,5231.13
523197,5231.97
523279,5232.79
523363,5233.63
523453,5234.53
523549,5235.49
523646,5236.46
523742,5237.42
523839,5238.39
523938,5239.38
524037,5240.37
524141,5241.41
524242,5242.42
524349,5243.49
524452,5244.52
524551,5245.51
524657,5246.57
524761,5247.61
524865,5248.65
524970,5249.7
525078,5250.78
525186,5251.86
525296,5252.96
525406,5254.06
525520,5255.2
525633,5256.33
525744,5257.44
525854,5258.54
525970,5259.7
526085,5260.85
526200,5262.0
526312,5263.12
526426,5264.26
526543,5265.43
526661,5266.61
526758,5267.58
526845,5268.45
526924,5269.24
527002,5270.02
527079,5270.79
527159,5271.59
527264,5272.64
527361,5273.61
527460,5274.6
527554,5275.54
527643,5276.43
527727,5277.27
527808,5278.08
527886,5278.86
527963,5279.63
528044,5280.44
528153,5281.53
528252,5282.52
528348,5283.48
528450,5284.5
528551,5285.51
528652,5286.52
528757,5287.57
528858,5288.58
528960,5289.6
529065,5290.65
529172,5291.72
529275,5292.75
529380,5293.8
529484,5294.84
529592,5295.92
529697,5296.97
529804,5298.04
529907,5299.07
530016,5300.16
530125,5301.25
530232,5302.32
530343,5303.43
530449,5304.49
530561,5305.61
530671,5306.71
530779,5307.79
530893,5308.93
531009,5310.09
531130,5311.3
531245,5312.45
531364,5313.64
531478,5314.78
531596,5315.96
531714,5317.14
531828,5318.28
531942,5319.42
532054,5320.54
532171,5321.71
532289,5322.89
532391,5323.91
532479,5324.79
532557,5325.57
532631,5326.31
532704,5327.04
532782,5327.82
532860,5328.6
532930,5329.3
532999,5329.99
533065,5330.65
533132,5331.32
533205,5332.05
533318,5333.18
533431,5334.31
533533,5335.33
533630,5336.3
533722,5337.22
533813,5338.13
533903,5339.03
533991,5339.91
534077,5340.77
534162,5341.62
534248,5342.48
534331,5343.31
534412,5344.12
534491,5344.91
534572,5345.72
534657,5346.57
534746,5347.46
534837,5348.37
534930,5349.3
535026,5350.26
535124,5351.24
535223,5352.23
535326,5353.26
535427,5354.27
535528,5355.28
535628,5356.28
535732,5357.32
535836,5358.36
535942,5359.42
536045,5360.45
536151,5361.51
536261,5362.61
536376,5363.76
536488,5364.88
536603,5366.03
536715,5367.15
536825,5368.25
536937,5369.37
537051,5370.51
537164,5371.64
537271,5372.71
537382,5373.82
537492,5374.92
537606,5376.06
537723,5377.23
537842,5378.42
537956,5379.56
538070,5380.7
538184,5381.84
538302,5383.02
538418,5384.18
538536,5385.36
538653,5386.53
538768,5387.68
538887,5388.87
539011,5390.11
539130,5391.3
539254,5392.54
539369,5393.69
539482,5394.82
539573,5395.73
539654,5396.54
539730,5397.3
539808,5398.08
539883,5398.83
539956,5399.56
540028,5400.28
540108,5401.08
540188,5401.88
540267,5402.67
540343,5403.43
540418,5404.18
540495,5404.95
540574,5405.74
540654,5406.54
540732,5407.32
540812,5408.12
540893,5408.93
540975,5409.75
541059,5410.59
541143,5411.43
541224,5412.24
541306,5413.06
541386,5413.86
541466,5414.66
541547,5415.47
541627,5416.27
541708,5417.08
541787,5417.87
541866,5418.66
541943,5419.43
542020,5420.2
542096,5420.96
542171,5421.71
542247,5422.47
542322,5423.22
542400,5424.0
542481,5424.81
542560,5425.6
542636,5426.36
542711,5427.11
542784,5427.84
542854,5428.54
542922,5429.22
542988,5429.88
543052,5430.52
543116,5431.16
543180,5431.8
543252,5432.52
543331,5433.31
543446,5434.46
543562,5435.62
543675,5436.75
543780,5437.8
543881,5438.81
543981,5439.81
544084,5440.84
544187,5441.87
544288,5442.88
544389,5443.89
544490,5444.9
544598,5445.98
544707,5447.07
544818,5448.18
544935,5449.35
545052,5450.52
545171,5451.71
545295,5452.95
545416,5454.16
545540,5455.4
545661,5456.61
545788,5457.88
545915,5459.15
546051,5460.51
546183,5461.83
546309,5463.09
546441,5464.41
546574,5465.74
546668,5466.68
546750,5467.5
546826,5468.26
546900,5469.0
546972,5469.72
547041,5470.41
547110,5471.1
547200,5472.0
547299,5472.99
547392,5473.92
547485,5474.85
547578,5475.78
547671,5476.71
547764,5477.64
547857,5478.57
547949,5479.49
548042,5480.42
548134,5481.34
548226,5482.26
548319,5483.19
548410,5484.1
548500,5485.0
548590,5485.9
548680,5486.8
548766,5487.66
548853,5488.53
548938,5489.38
549018,5490.18
549097,5490.97
549174,5491.74
549246,5492.46
549316,5493.16
549382,5493.82
549447,5494.47
549509,5495.09
549569,5495.69
549630,5496.3
549692,5496.92
549755,5497.55
549817,5498.17
549878,5498.78
549940,5499.4
550001,5500.01
550062,5500.62
550123,5501.23
550183,5501.83
550242,5502.42
550302,5503.02
550362,5503.62
550421,5504.21
550481,5504.81
550541,5505.41
550600,5506.0
550660,5506.6
550719,5507.19
550780,5507.8
550842,5508.42
550906,5509.06
550978,5509.78
551051,5510.51
551125,5511.25
551198,5511.98
551272,5512.72
551346,5513.46
551424,5514.24
551507,5515.07
551590,5515.9
551672,5516.72
551754,5517.54
551845,5518.45
551937,5519.37
552023,5520.23
552108,5521.08
552194,5521.94
552282,5522.82
552370,5523.7
552463,5524.63
552555,5525.55
552652,5526.52
552749,5527.49
552837,5528.37
552920,5529.2
553008,5530.08
553088,5530.88
553169,5531.69
553249,5532.49
553344,5533.44
553440,5534.4
553533,5535.33
553627,5536.27
553715,5537.15
553802,5538.02
553888,5538.88
553978,5539.78
554067,5540.67
554152,5541.52
554237,5542.37
554321,5543.21
554402,5544.02
554485,5544.85
554566,5545.66
554648,5546.48
554729,5547.29
554813,5548.13
554899,5548.99
554984,5549.84
555071,5550.71
555161,5551.61
555248,5552.48
555333,5553.33
555424,5554.24
555508,5555.08
555588,5555.88
555665,5556.65
555743,5557.43
555825,5558.25
555904,5559.04
555981,5559.81
556059,5560.59
556146,5561.46
556232,5562.32
556318,5563.18
556399,5563.99
556477,5564.77
556556,5565.56
556637,5566.37
556716,5567.16
556796,5567.96
556878,5568.78
556959,5569.59
557043,5570.43
557127,5571.27
557222,5572.22
557313,5573.13
557401,5574.01
557492,5574.92
557587,5575.87
557675,5576.75
557764,5577.64
557859,5578.59
557948,5579.48
558041,5580.41
558143,5581.43
558241,5582.41
558333,5583.33
558427,5584.27
558517,5585.17
558610,5586.1
558701,5587.01
558789,5587.89
558884,5588.84
558985,5589.85
559081,5590.81
559176,5591.76
559283,5592.83
559384,5593.84
559488,5594.88
559611,5596.11
559732,5597.32
559850,5598.5
559963,5599.63
560072,5600.72
560182,5601.82
560286,5602.86
560374,5603.74
560455,5604.55
560533,5605.33
560609,5606.09
560684,5606.84
560762,5607.62
560849,5608.49
560940,5609.4
561026,5610.26
561107,5611.07
561184,5611.84
561259,5612.59
561331,5613.31
561403,5614.03
561476,5614.76
561583,5615.83
561690,5616.9
561785,5617.85
561870,5618.7
561951,5619.51
562033,5620.33
562123,5621.23
562223,5622.23
562316,5623.16
562413,5624.13
562514,5625.14
562612,5626.12
562707,5627.07
562806,5628.06
562904,5629.04
563001,5630.01
563094,5630.94
563189,5631.89
563287,5632.87
563383,5633.83
563482,5634.82
563584,5635.84
563687,5636.87
563796,5637.96
563907,5639.07
564018,5640.18
564130,5641.3
564238,5642.38
564351,5643.51
564458,5644.58
564564,5645.64
564672,5646.72
564778,5647.78
564886,5648.86
564997,5649.97
565106,5651.06
565211,5652.11
565319,5653.19
565425,5654.25
565539,5655.39
565646,5656.46
565754,5657.54
565869,5658.69
565980,5659.8
566095,5660.95
566197,5661.97
566283,5662.83
566365,5663.65
566443,5664.43
566528,5665.28
566610,5666.1
566690,5666.9
566769,5667.69
566851,5668.51
566942,5669.42
567036,5670.36
567132,5671.32
567236,5672.36
567340,5673.4
567438,5674.38
567542,5675.42
567648,5676.48
567746,5677.46
567847,5678.47
567946,5679.46
568038,5680.38
568128,5681.28
568217,5682.17
568309,5683.09
568398,5683.98
568503,5685.03
568611,5686.11
568713,5687.13
568823,5688.23
568935,5689.35
569039,5690.39
569144,5691.44
569246,5692.46
569344,5693.44
569441,5694.41
569536,5695.36
569639,5696.39
569758,5697.58
569875,5698.75
569995,5699.95
570109,5701.09
570220,5702.2
570331,5703.31
570432,5704.32
570531,5705.31
570639,5706.39
570741,5707.41
570846,5708.46
570956,5709.56
571056,5710.56
571149,5711.49
571236,5712.36
571321,5713.21
571410,5714.1
571492,5714.92
571571,5715.71
571648,5716.48
571724,5717.24
571808,5718.08
571886,5718.86
571963,5719.63
572038,5720.38
572121,5721.21
572205,5722.05
572286,5722.86
572364,5723.64
572442,5724.42
572518,5725.18
572599,5725.99
572679,5726.79
572761,5727.61
572847,5728.47
572939,5729.39
573026,5730.26
573122,5731.22
573224,5732.24
573319,5733.19
573409,5734.09
573499,5734.99
573590,5735.9
573682,5736.82
573769,5737.69
573861,5738.61
573956,5739.56
574046,5740.46
574140,5741.4
574235,5742.35
574326,5743.26
574421,5744.21
574520,5745.2
574613,5746.13
574705,5747.05
574803,5748.03
574900,5749.0
574996,5749.96
575104,5751.04
575208,5752.08
575308,5753.08
575416,5754.16
575528,5755.28
575636,5756.36
575749,5757.49
575859,5758.59
575978,5759.78
576092,5760.92
576188,5761.88
576280,5762.8
576378,5763.78
576466,5764.66
576550,5765.5
576628,5766.28
576704,5767.04
576778,5767.78
576854,5768.54
576935,5769.35
577017,5770.17
577119,5771.19
577221,5772.21
577317,5773.17
577419,5774.19
577520,5775.2
577619,5776.19
577719,5777.19
577822,5778.22
577918,5779.18
578016,5780.16
578113,5781.13
578211,5782.11
578303,5783.03
578396,5783.96
578495,5784.95
578589,5785.89
578681,5786.81
578775,5787.75
578870,5788.7
578959,5789.59
579050,5790.5
579154,5791.54
579248,5792.48
579345,5793.45
579443,5794.43
579538,5795.38
579626,5796.26
579714,5797.14
579796,5797.96
579877,5798.77
579963,5799.63
580058,5800.58
580143,5801.43
580227,5802.27
580311,5803.11
580401,5804.01
580492,5804.92
580586,5805.86
580684,5806.84
580780,5807.8
580880,5808.8
580976,5809.76
581079,5810.79
581186,5811.86
581290,5812.9
581392,5813.92
581496,5814.96
581599,5815.99
581698,5816.98
581803,5818.03
581917,5819.17
582024,5820.24
582130,5821.3
582241,5822.41
582349,5823.49
582447,5824.47
582544,5825.44
582648,5826.48
582757,5827.57
582865,5828.65
582979,5829.79
583089,5830.89
583205,5832.05
583318,5833.18
583417,5834.17
583511,5835.11
583613,5836.13
583703,5837.03
583784,5837.84
583864,5838.64
583945,5839.45
584023,5840.23
584098,5840.98
584174,5841.74
584252,5842.52
584332,5843.32
584413,5844.13
584489,5844.89
584562,5845.62
584633,5846.33
584702,5847.02
584769,5847.69
584837,5848.37
584915,5849.15
585006,5850.06
585109,5851.09
585207,5852.07
585307,5853.07
585408,5854.08
585504,5855.04
585601,5856.01
585693,5856.93
585781,5857.81
585870,5858.7
585956,5859.56
586041,5860.41
586132,5861.32
586229,5862.29
586323,5863.23
586415,5864.15
586512,5865.12
586613,5866.13
586710,5867.1
586810,5868.1
586918,5869.18
587023,5870.23
587127,5871.27
587229,5872.29
587327,5873.27
587425,5874.25
587530,5875.3
587627,5876.27
587725,5877.25
587827,5878.27
587923,5879.23
588012,5880.12
588104,5881.04
588193,5881.93
588279,5882.79
588360,5883.6
588441,5884.41
588521,5885.21
588598,5885.98
588673,5886.73
588755,5887.55
588837,5888.37
588914,5889.14
588990,5889.9
589067,5890.67
589153,5891.53
589238,5892.38
589326,5893.26
589416,5894.16
589504,5895.04
589595,5895.95
589697,5896.97
589802,5898.02
589898,5898.98
589993,5899.93
590097,5900.97
590194,5901.94
590285,5902.85
590380,5903.8
590471,5904.71
590558,5905.58
590646,5906.46
590736,5907.36
590826,5908.26
590916,5909.16
591010,5910.1
591106,5911.06
591202,5912.02
591302,5913.02
591405,5914.05
591503,5915.03
591603,5916.03
591706,5917.06
591806,5918.06
591907,5919.07
592015,5920.15
592116,5921.16
592219,5922.19
592327,5923.27
592421,5924.21
592515,5925.15
592602,5926.02
592683,5926.83
592762,5927.62
592842,5928.42
592920,5929.2
592998,5929.98
593078,5930.78
593165,5931.65
593251,5932.51
593329,5933.29
593406,5934.06
593484,5934.84
593564,5935.64
593649,5936.49
593733,5937.33
593823,5938.23
593927,5939.27
594024,5940.24
594122,5941.22
594226,5942.26
594330,5943.3
594427,5944.27
594527,5945.27
594629,5946.29
594726,5947.26
594818,5948.18
594911,5949.11
595007,5950.07
595103,5951.03
595195,5951.95
595294,5952.94
595395,5953.95
595492,5954.92
595589,5955.89
595688,5956.88
595781,5957.81
595884,5958.84
595984,5959.84
596079,5960.79
596185,5961.85
596291,5962.91
596390,5963.9
596485,5964.85
596572,5965.72
596653,5966.53
596733,5967.33
596843,5968.43
596945,5969.45
597042,5970.42
597131,5971.31
597218,5972.18
597305,5973.05
597396,5973.96
597486,5974.86
597576,5975.76
597669,5976.69
597771,5977.71
597869,5978.69
597962,5979.62
598057,5980.57
598155,5981.55
598245,5982.45
598332,5983.32
598425,5984.25
598519,5985.19
598609,5986.09
598703,5987.03
598796,5987.96
598883,5988.83
598972,5989.72
599060,5990.6
599147,5991.47
599236,5992.36
599327,5993.27
599420,5994.2
599517,5995.17
599615,5996.15
599713,5997.13
599818,5998.18
599925,5999.25
600027,6000.27
600139,6001.39
600252,6002.52
600358,6003.58
600472,6004.72
600577,6005.77
600666,6006.66
600749,6007.49
600829,6008.29
600917,6009.17
600997,6009.97
601074,6010.74
601149,6011.49
601251,6012.51
601346,6013.46
601438,6014.38
601521,6015.21
601599,6015.99
601679,6016.79
601759,6017.59
601842,6018.42
601924,6019.24
602013,6020.13
602109,6021.09
602199,6021.99
602292,6022.92
602382,6023.82
602470,6024.7
602563,6025.63
602662,6026.62
602755,6027.55
602848,6028.48
602945,6029.45
603038,6030.38
603128,6031.28
603220,6032.2
603319,6033.19
603413,6034.13
603504,6035.04
603602,6036.02
603697,6036.97
603789,6037.89
603883,6038.83
603975,6039.75
604066,6040.66
604160,6041.6
604257,6042.57
604359,6043.59
604459,6044.59
604565,6045.65
604672,6046.72
604771,6047.71
604880,6048.8
604979,6049.79
605065,6050.65
605146,6051.46
605222,6052.22
605298,6052.98
605375,6053.75
605454,6054.54
605533,6055.33
605613,6056.13
605689,6056.89
605767,6057.67
605849,6058.49
605937,6059.37
606038,6060.38
606139,6061.39
606236,6062.36
606338,6063.38
606432,6064.32
606527,6065.27
606626,6066.26
606718,6067.18
606804,6068.04
606889,6068.89
606974,6069.74
607057,6070.57
607141,6071.41
607233,6072.33
607323,6073.23
607409,6074.09
607500,6075.0
607594,6075.94
607691,6076.91
607787,6077.87
607892,6078.92
607999,6079.99
608096,6080.96
608195,6081.95
608294,6082.94
608391,6083.91
608493,6084.93
608591,6085.91
608680,6086.8
608772,6087.72
608860,6088.6
608943,6089.43
609022,6090.22
609106,6091.06
609189,6091.89
609267,6092.67
609343,6093.43
609419,6094.19
609495,6094.95
609569,6095.69
609643,6096.43
609715,6097.15
609784,6097.84
609852,6098.52
609920,6099.2
609990,6099.9
610071,6100.71
610151,6101.51
610234,6102.34
610328,6103.28
610426,6104.26
610523,6105.23
610624,6106.24
610722,6107.22
610824,6108.24
610923,6109.23
611016,6110.16
611110,6111.1
611211,6112.11
611305,6113.05
611399,6113.99
611497,6114.97
611593,6115.93
611684,6116.84
611776,6117.76
611873,6118.73
611968,6119.68
612059,6120.59
612150,6121.5
612255,6122.55
612356,6123.56
612453,6124.53
612561,6125.61
612670,6126.7
612772,6127.72
612883,6128.83
612994,6129.94
613092,6130.92
613198,6131.98
613310,6133.1
613411,6134.11
613511,6135.11
613610,6136.1
613713,6137.13
613805,6138.05
613890,6138.9
613970,6139.7
614048,6140.48
614131,6141.31
614218,6142.18
614299,6142.99
614378,6143.78
614458,6144.58
614545,6145.45
614625,6146.25
614703,6147.03
614783,6147.83
614872,6148.72
614960,6149.6
615054,6150.54
615155,6151.55
615251,6152.51
615350,6153.5
615452,6154.52
615546,6155.46
615645,6156.45
615746,6157.46
615841,6158.41
615934,6159.34
616030,6160.3
616125,6161.25
616214,6162.14
616301,6163.01
616394,6163.94
616491,6164.91
616583,6165.83
616674,6166.74
616767,6167.67
616857,6168.57
616949,6169.49
617047,6170.47
617141,6171.41
617237,6172.37
617339,6173.39
617438,6174.38
617532,6175.32
617632,6176.32
617732,6177.32
617828,6178.28
617926,6179.26
618026,6180.26
618118,6181.18
618211,6182.11
618310,6183.1
618394,6183.94
618473,6184.73
618553,6185.53
618644,6186.44
618725,6187.25
618803,6188.03
618880,6188.8
618964,6189.64
619043,6190.43
619120,6191.2
619197,6191.97
619277,6192.77
619357,6193.57
619442,6194.42
619541,6195.41
619640,6196.4
619732,6197.32
619825,6198.25
619926,6199.26
620021,6200.21
620119,6201.19
620220,6202.2
620315,6203.15
620411,6204.11
620510,6205.1
620600,6206.0
620692,6206.92
620798,6207.98
620895,6208.95
620987,6209.87
621079,6210.79
621175,6211.75
621266,6212.66
621355,6213.55
621448,6214.48
621540,6215.4
621632,6216.32
621725,6217.25
621825,6218.25
621923,6219.23
622026,6220.26
622132,6221.32
622232,6222.32
622326,6223.26
622424,6224.24
622510,6225.1
622590,6225.9
622670,6226.7
622760,6227.6
622844,6228.44
622922,6229.22
622997,6229.97
623075,6230.75
623182,6231.82
623281,6232.81
623375,6233.75
623458,6234.58
623538,6235.38
623618,6236.18
623707,6237.07
623792,6237.92
623883,6238.83
623978,6239.78
624068,6240.68
624159,6241.59
624251,6242.51
624338,6243.38
624430,6244.3
624530,6245.3
624628,6246.28
624722,6247.22
624820,6248.2
624921,6249.21
625016,6250.16
625107,6251.07
625197,6251.97
625292,6252.92
625383,6253.83
625474,6254.74
625567,6255.67
625660,6256.6
625750,6257.5
625842,6258.42
625940,6259.4
626031,6260.31
626133,6261.33
626236,6262.36
626329,6263.29
626426,6264.26
626522,6265.22
626617,6266.17
626718,6267.18
626825,6268.25
626923,6269.23
627021,6270.21
627108,6271.08
627188,6271.88
627267,6272.67
627354,6273.54
627441,6274.41
627522,6275.22
627602,6276.02
627680,6276.8
627758,6277.58
627837,6278.37
627920,6279.2
628004,6280.04
628093,6280.93
628189,6281.89
628280,6282.8
628371,6283.71
628468,6284.68
628559,6285.59
628649,6286.49
628740,6287.4
628838,6288.38
628928,6289.28
629017,6290.17
629111,6291.11
629200,6292.0
629287,6292.87
629372,6293.72
629459,6294.59
629544,6295.44
629631,6296.31
629724,6297.24
629820,6298.2
629913,6299.13
630015,6300.15
630119,6301.19
630218,6302.18
630314,6303.14
630413,6304.13
630512,6305.12
630607,6306.07
630710,6307.1
630811,6308.11
630908,6309.08
631013,6310.13
631122,6311.22
631224,6312.24
631335,6313.35
631447,6314.47
631537,6315.37
631620,6316.2
631699,6316.99
631779,6317.79
631857,6318.57
631935,6319.35
632013,6320.13
632097,6320.97
632181,6321.81
632256,6322.56
632333,6323.33
632414,6324.14
632503,6325.03
632590,6325.9
632682,6326.82
632789,6327.89
632891,6328.91
632997,6329.97
633100,6331.0
633199,6331.99
633298,6332.98
633394,6333.94
633488,6334.88
633584,6335.84
633677,6336.77
633766,6337.66
633859,6338.59
633958,6339.58
634052,6340.52
634141,6341.41
634231,6342.31
634327,6343.27
634420,6344.2
634516,6345.16
634611,6346.11
634705,6347.05
634805,6348.05
634904,6349.04
634998,6349.98
635100,6351.0
635199,6351.99
635295,6352.95
635391,6353.91
635490,6354.9
635585,6355.85
635689,6356.89
635798,6357.98
635898,6358.98
635991,6359.91
636083,6360.83
636164,6361.64
636243,6362.43
636324,6363.24
636408,6364.08
636487,6364.87
636564,6365.64
636638,6366.38
636713,6367.13
636786,6367.86
636859,6368.59
636932,6369.32
637011,6370.11
637092,6370.92
637174,6371.74
637264,6372.64
637355,6373.55
637450,6374.5
637550,6375.5
637646,6376.46
637738,6377.38
637832,6378.32
637932,6379.32
638031,6380.31
638123,6381.23
638215,6382.15
638314,6383.14
638408,6384.08
638500,6385.0
638600,6386.0
638703,6387.03
638800,6388.0
638889,6388.89
638977,6389.77
639070,6390.7
639161,6391.61
639253,6392.53
639354,6393.54
639449,6394.49
639550,6395.5
639654,6396.54
639753,6397.53
639853,6398.53
639956,6399.56
640059,6400.59
640155,6401.55
640259,6402.59
640349,6403.49
640439,6404.39
640526,6405.26
640607,6406.07
640687,6406.87
640765,6407.65
640845,6408.45
640922,6409.22
640998,6409.98
641079,6410.79
641162,6411.62
641243,6412.43
641326,6413.26
641414,6414.14
641501,6415.01
641593,6415.93
641694,6416.94
641796,6417.96
641892,6418.92
641994,6419.94
642090,6420.9
642188,6421.88
642296,6422.96
642395,6423.95
642494,6424.94
642604,6426.04
642705,6427.05
642798,6427.98
642887,6428.87
642979,6429.79
643071,6430.71
643161,6431.61
643250,6432.5
643353,6433.53
643453,6434.53
643547,6435.47
643642,6436.42
643739,6437.39
643832,6438.32
643926,6439.26
644018,6440.18
644100,6441.0
644177,6441.77
644255,6442.55
644356,6443.56
644458,6444.58
644545,6445.45
644630,6446.3
644712,6447.12
644795,6447.95
644877,6448.77
644962,6449.62
645055,6450.55
645152,6451.52
645247,6452.47
645345,6453.45
645442,6454.42
645537,6455.37
645640,6456.4
645739,6457.39
645834,6458.34
645929,6459.29
646025,6460.25
646117,6461.17
646215,6462.15
646317,6463.17
646413,6464.13
646512,6465.12
646609,6466.09
646703,6467.03
646784,6467.84
646865,6468.65
646973,6469.73
647069,6470.69
647171,6471.71
647267,6472.67
647359,6473.59
647457,6474.57
647552,6475.52
647647,6476.47
647732,6477.32
647812,6478.12
647888,6478.88
647965,6479.65
648042,6480.42
648123,6481.23
648202,6482.02
648278,6482.78
648352,6483.52
648424,6484.24
648497,6484.97
648571,6485.71
648651,6486.51
648741,6487.41
648828,6488.28
648923,6489.23
649027,6490.27
649123,6491.23
649224,6492.24
649325,6493.25
649419,6494.19
649516,6495.16
649615,6496.15
649709,6497.09
649804,6498.04
649900,6499.0
649989,6499.89
650083,6500.83
650179,6501.79
650271,6502.71
650363,6503.63
650456,6504.56
650548,6505.48
650637,6506.37
650732,6507.32
650828,6508.28
650924,6509.24
651022,6510.22
651127,6511.27
651228,6512.28
651324,6513.24
651422,6514.22
651529,6515.29
651625,6516.25
651722,6517.22
651824,6518.24
651917,6519.17
652012,6520.12
652100,6521.0
652179,6521.79
652259,6522.59
652337,6523.37
652412,6524.12
652488,6524.88
652564,6525.64
652643,6526.43
652719,6527.19
652794,6527.94
652869,6528.69
652944,6529.44
653022,6530.22
653104,6531.04
653196,6531.96
653298,6532.98
653397,6533.97
653504,6535.04
653606,6536.06
653708,6537.08
653811,6538.11
653912,6539.12
654005,6540.05
654102,6541.02
654200,6542.0
654294,6542.94
654388,6543.88
654483,6544.83
654572,6545.72
654663,6546.63
654764,6547.64
654854,6548.54
654946,6549.46
655044,6550.44
655135,6551.35
655227,6552.27
655325,6553.25
655419,6554.19
655516,6555.16
655619,6556.19
655716,6557.16
655823,6558.23
655930,6559.3
656026,6560.26
656134,6561.34
656243,6562.43
656337,6563.37
656429,6564.29
656513,6565.13
656592,6565.92
656669,6566.69
656751,6567.51
656834,6568.34
656915,6569.15
656992,6569.92
657067,6570.67
657142,6571.42
657216,6572.16
657295,6572.95
657375,6573.75
657453,6574.53
657531,6575.31
657613,6576.13
657694,6576.94
657775,6577.75
657858,6578.58
657944,6579.44
658030,6580.3
658120,6581.2
658213,6582.13
658298,6582.98
658383,6583.83
658470,6584.7
658557,6585.57
658649,6586.49
658741,6587.41
658828,6588.28
658918,6589.18
659009,6590.09
659098,6590.98
659194,6591.94
659292,6592.92
659385,6593.85
659479,6594.79
659576,6595.76
659670,6596.7
659763,6597.63
659862,6598.62
659961,6599.61
660057,6600.57
660160,6601.6
660268,6602.68
660373,6603.73
660488,6604.88
660589,6605.89
660683,6606.83
660787,6607.87
660901,6609.01
661005,6610.05
661109,6611.09
661205,6612.05
661287,6612.87
661367,6613.67
661444,6614.44
661520,6615.2
661596,6615.96
661674,6616.74
661752,6617.52
661830,6618.3
661906,6619.06
661986,6619.86
662070,6620.7
662162,6621.62
662260,6622.6
662358,6623.58
662466,6624.66
662573,6625.73
662677,6626.77
662781,6627.81
662882,6628.82
662975,6629.75
663071,6630.71
663172,6631.72
663267,6632.67
663364,6633.64
663469,6634.69
663565,6635.65
663662,6636.62
663757,6637.57
663851,6638.51
663947,6639.47
664049,6640.49
664144,6641.44
664243,6642.43
664348,6643.48
664449,6644.49
664552,6645.52
664657,6646.57
664758,6647.58
664865,6648.65
664970,6649.7
665069,6650.69
665174,6651.74
665281,6652.81
665373,6653.73
665469,6654.69
665556,6655.56
665634,6656.34
665711,6657.11
665783,6657.83
665862,6658.62
665941,6659.41
666015,6660.15
666087,6660.87
666156,6661.56
666224,6662.24
666293,6662.93
666364,6663.64
666443,6664.43
666526,6665.26
666607,6666.07
666693,6666.93
666789,6667.89
666880,6668.8
666970,6669.7
667059,6670.59
667151,6671.51
667242,6672.42
667337,6673.37
667439,6674.39
667534,6675.34
667631,6676.31
667734,6677.34
667832,6678.32
667928,6679.28
668024,6680.24
668119,6681.19
668208,6682.08
668294,6682.94
668382,6683.82
668467,6684.67
668561,6685.61
668656,6686.56
668752,6687.52
668858,6688.58
668964,6689.64
669065,6690.65
669172,6691.72
669280,6692.8
669375,6693.75
669476,6694.76
669578,6695.78
669671,6696.71
669767,6697.67
669853,6698.53
669933,6699.33
670011,6700.11
670097,6700.97
670179,6701.79
670262,6702.62
670344,6703.44
670428,6704.28
670511,6705.11
670592,6705.92
670678,6706.78
670775,6707.75
670864,6708.64
670961,6709.61
671056,6710.56
671148,6711.48
671242,6712.42
671341,6713.41
671433,6714.33
671528,6715.28
671624,6716.24
671723,6717.23
671819,6718.19
671910,6719.1
672002,6720.02
672103,6721.03
672200,6722.0
672300,6723.0
672406,6724.06
672502,6725.02
672596,6725.96
672694,6726.94
672790,6727.9
672882,6728.82
672979,6729.79
673074,6730.74
673168,6731.68
673274,6732.74
673380,6733.8
673483,6734.83
673589,6735.89
673686,6736.86
673773,6737.73
673854,6738.54
673933,6739.33
674009,6740.09
674085,6740.85
674164,6741.64
674241,6742.41
674318,6743.18
674394,6743.94
674471,6744.71
674548,6745.48
674626,6746.26
674705,6747.05
674787,6747.87
674877,6748.77
674975,6749.75
675068,6750.68
675172,6751.72
675277,6752.77
675375,6753.75
675480,6754.8
675586,6755.86
675685,6756.85
675784,6757.84
675884,6758.84
675978,6759.78
676070,6760.7
676169,6761.69
676261,6762.61
676354,6763.54
676451,6764.51
676545,6765.45
676640,6766.4
676735,6767.35
676831,6768.31
676928,6769.28
677034,6770.34
677141,6771.41
677241,6772.41
677351,6773.51
677457,6774.57
677557,6775.57
677664,6776.64
677775,6777.75
677874,6778.74
677973,6779.73
678073,6780.73
678165,6781.65
678247,6782.47
678326,6783.26
678409,6784.09
678489,6784.89
678567,6785.67
678647,6786.47
678727,6787.27
678806,6788.06
678883,6788.83
678962,6789.62
679043,6790.43
679135,6791.35
679240,6792.4
679344,6793.44
679447,6794.47
679546,6795.46
679640,6796.4
679730,6797.3
679827,6798.27
679926,6799.26
680017,6800.17
680108,6801.08
680204,6802.04
680300,6803.0
680392,6803.92
680488,6804.88
680590,6805.9
680687,6806.87
680791,6807.91
680904,6809.04
681007,6810.07
681106,6811.06
681214,6812.14
681314,6813.14
681412,6814.12
681515,6815.15
681619,6816.19
681716,6817.16
681814,6818.14
681913,6819.13
682004,6820.04
682092,6820.92
682174,6821.74
682250,6822.5
682326,6823.26
682403,6824.03
682479,6824.79
682553,6825.53
682628,6826.28
682702,6827.02
682776,6827.76
682848,6828.48
682921,6829.21
682998,6829.98
683078,6830.78
683165,6831.65
683260,6832.6
683350,6833.5
683453,6834.53
683553,6835.53
683650,6836.5
683756,6837.56
683857,6838.57
683964,6839.64
684072,6840.72
684172,6841.72
684267,6842.67
684363,6843.63
684462,6844.62
684553,6845.53
684645,6846.45
684739,6847.39
684830,6848.3
684926,6849.26
685023,6850.23
685113,6851.13
685205,6852.05
685306,6853.06
685400,6854.0
685492,6854.92
685597,6855.97
685697,6856.97
685789,6857.89
685882,6858.82
685973,6859.73
686066,6860.66
686162,6861.62
686262,6862.62
686360,6863.6
686465,6864.65
686571,6865.71
686656,6866.56
686736,6867.36
686813,6868.13
686889,6868.89
686963,6869.63
687035,6870.35
687111,6871.11
687194,6871.94
687274,6872.74
687349,6873.49
687425,6874.25
687501,6875.01
687582,6875.82
687673,6876.73
687771,6877.71
687865,6878.65
687953,6879.53
688045,6880.45
688143,6881.43
688238,6882.38
688330,6883.3
688429,6884.29
688526,6885.26
688615,6886.15
688706,6887.06
688798,6887.98
688887,6888.87
688971,6889.71
689056,6890.56
689143,6891.43
689230,6892.3
689321,6893.21
689420,6894.2
689513,6895.13
689614,6896.14
689721,6897.21
689819,6898.19
689918,6899.18
690016,6900.16
690113,6901.13
690216,6902.16
690312,6903.12
690416,6904.16
690523,6905.23
690628,6906.28
690719,6907.19
690806,6908.06
690886,6908.86
690964,6909.64
691045,6910.45
691125,6911.25
691204,6912.04
691281,6912.81
691359,6913.59
691437,6914.37
691515,6915.15
691593,6915.93
691676,6916.76
691772,6917.72
691877,6918.77
691976,6919.76
692081,6920.81
692177,6921.77
692269,6922.69
692366,6923.66
692462,6924.62
692550,6925.5
692637,6926.37
692731,6927.31
692818,6928.18
692911,6929.11
693011,6930.11
693105,6931.05
693201,6932.01
693306,6933.06
693403,6934.03
693499,6934.99
693602,6936.02
693704,6937.04
693799,6937.99
693901,6939.01
694000,6940.0
694096,6940.96
694201,6942.01
694308,6943.08
694405,6944.05
694502,6945.02
694599,6945.99
694692,6946.92
694792,6947.92
694887,6948.87
694974,6949.74
695055,6950.55
695129,6951.29
695202,6952.02
695274,6952.74
695344,6953.44
695411,6954.11
695477,6954.77
695541,6955.41
695604,6956.04
695668,6956.68
695738,6957.38
695843,6958.43
695948,6959.48
696035,6960.35
696133,6961.33
696233,6962.33
696331,6963.31
696430,6964.3
696532,6965.32
696627,6966.27
696727,6967.27
696827,6968.27
696920,6969.2
697016,6970.16
697118,6971.18
697218,6972.18
697311,6973.11
697402,6974.02
697495,6974.95
697586,6975.86
697676,6976.76
697763,6977.63
697856,6978.56
697944,6979.44
698037,6980.37
698144,6981.44
698245,6982.45
698339,6983.39
698433,6984.33
698527,6985.27
698619,6986.19
698718,6987.18
698810,6988.1
698900,6989.0
698998,6989.98
699090,6990.9
699180,6991.8
699276,6992.76
699360,6993.6
699440,6994.4
699518,6995.18
699594,6995.94
699669,6996.69
699742,6997.42
699816,6998.16
699889,6998.89
699960,6999.6
700030,7000.3
700098,7000.98
700164,7001.64
700230,7002.3
700294,7002.94
700357,7003.57
700419,7004.19
700487,7004.87
700579,7005.79
700669,7006.69
700752,7007.52
700835,7008.35
700922,7009.22
701012,7010.12
701105,7011.05
701208,7012.08
701310,7013.1
701405,7014.05
701506,7015.06
701610,7016.1
701705,7017.05
701799,7017.99
701894,7018.94
701983,7019.83
702071,7020.71
702175,7021.75
702269,7022.69
702357,7023.57
702451,7024.51
702550,7025.5
702643,7026.43
702747,7027.47
702850,7028.5
702948,7029.48
703048,7030.48
703153,7031.53
703254,7032.54
703364,7033.64
703468,7034.68
703561,7035.61
703648,7036.48
703728,7037.28
703807,7038.07
703887,7038.87
703967,7039.67
704046,7040.46
704127,7041.27
704212,7042.12
704293,7042.93
704372,7043.72
704452,7044.52
704535,7045.35
704619,7046.19
704714,7047.14
704807,7048.07
704900,7049.0
705003,7050.03
705102,7051.02
705193,7051.93
705289,7052.89
705392,7053.92
705485,7054.85
705585,7055.85
705687,7056.87
705781,7057.81
705878,7058.78
705968,7059.68
706054,7060.54
706143,7061.43
706240,7062.4
706335,7063.35
706425,7064.25
706524,7065.24
706622,7066.22
706718,7067.18
706825,7068.25
706928,7069.28
707024,7070.24
707130,7071.3
707233,7072.33
707326,7073.26
707422,7074.22
707508,7075.08
707588,7075.88
707668,7076.68
707765,7077.65
707862,7078.62
707945,7079.45
708028,7080.28
708111,7081.11
708192,7081.92
708271,7082.71
708352,7083.52
708435,7084.35
708526,7085.26
708625,7086.25
708718,7087.18
708822,7088.22
708932,7089.32
709029,7090.29
709125,7091.25
709228,7092.28
709324,7093.24
709425,7094.25
709528,7095.28
709624,7096.24
709723,7097.23
709829,7098.29
709929,7099.29
710022,7100.22
710116,7101.16
710219,7102.19
710314,7103.14
710403,7104.03
710497,7104.97
710595,7105.95
710688,7106.88
710782,7107.82
710886,7108.86
710986,7109.86
711088,7110.88
711197,7111.97
711304,7113.04
711406,7114.06
711515,7115.15
711622,7116.22
711727,7117.27
711839,7118.39
711946,7119.46
712042,7120.42
712146,7121.46
712245,7122.45
712328,7123.28
712409,7124.09
712487,7124.87
712565,7125.65
712641,7126.41
712717,7127.17
712797,7127.97
712878,7128.78
712959,7129.59
713038,7130.38
713113,7131.13
713185,7131.85
713259,7132.59
713332,7133.32
713408,7134.08
713491,7134.91
713582,7135.82
713682,7136.82
713777,7137.77
713882,7138.82
713986,7139.86
714085,7140.85
714177,7141.77
714274,7142.74
714380,7143.8
714476,7144.76
714568,7145.68
714662,7146.62
714762,7147.62
714854,7148.54
714945,7149.45
715042,7150.42
715131,7151.31
715222,7152.22
715318,7153.18
715410,7154.1
715505,7155.05
715615,7156.15
715715,7157.15
715810,7158.1
715910,7159.1
716011,7160.11
716112,7161.12
716223,7162.23
716327,7163.27
716423,7164.23
716527,7165.27
716631,7166.31
716721,7167.21
716806,7168.06
716885,7168.85
716963,7169.63
717040,7170.4
717115,7171.15
717190,7171.9
717264,7172.64
717336,7173.36
717405,7174.05
717474,7174.74
717542,7175.42
717613,7176.13
717689,7176.89
717767,7177.67
717848,7178.48
717932,7179.32
718038,7180.38
718143,7181.43
718243,7182.43
718346,7183.46
718442,7184.42
718538,7185.38
718642,7186.42
718740,7187.4
718835,7188.35
718934,7189.34
719032,7190.32
719122,7191.22
719216,7192.16
719310,7193.1
719399,7193.99
719494,7194.94
719596,7195.96
719688,7196.88
719782,7197.82
719882,7198.82
719978,7199.78
720074,7200.74
720176,7201.76
720275,7202.75
720370,7203.7
720468,7204.68
720565,7205.65
720665,7206.65
720754,7207.54
720833,7208.33
720912,7209.12
720996,7209.96
721079,7210.79
721159,7211.59
721241,7212.41
721320,7213.2
721398,7213.98
721471,7214.71
721545,7215.45
721623,7216.23
721710,7217.1
721799,7217.99
721892,7218.92
721994,7219.94
722087,7220.87
722177,7221.77
722274,7222.74
722368,7223.68
722464,7224.64
722562,7225.62
722660,7226.6
722760,7227.6
722859,7228.59
722950,7229.5
723040,7230.4
723128,7231.28
723216,7232.16
723310,7233.1
723412,7234.12
723507,7235.07
723607,7236.07
723713,7237.13
723814,7238.14
723924,7239.24
724035,7240.35
724136,7241.36
724237,7242.37
724339,7243.39
724440,7244.4
724545,7245.45
724645,7246.45
724753,7247.53
724859,7248.59
724957,7249.57
725063,7250.63
725158,7251.58
725239,7252.39
725318,7253.18
725394,7253.94
725468,7254.68
725541,7255.41
725615,7256.15
725693,7256.93
725769,7257.69
725844,7258.44
725918,7259.18
725989,7259.89
726064,7260.64
726141,7261.41
726223,7262.23
726305,7263.05
726397,7263.97
726493,7264.93
726585,7265.85
726679,7266.79
726773,7267.73
726863,7268.63
726954,7269.54
727049,7270.49
727141,7271.41
727231,7272.31
727328,7273.28
727427,7274.27
727519,7275.19
727613,7276.13
727719,7277.19
727818,7278.18
727912,7279.12
728008,7280.08
728107,7281.07
728199,7281.99
728292,7282.92
728386,7283.86
728474,7284.74
728564,7285.64
728678,7286.78
728784,7287.84
728897,7288.97
729007,7290.07
729107,7291.07
729209,7292.09
729308,7293.08
729401,7294.01
729500,7295.0
729598,7295.98
729691,7296.91
729790,7297.9
729878,7298.78
729962,7299.62
730040,7300.4
730114,7301.14
730187,7301.87
730261,7302.61
730334,7303.34
730406,7304.06
730477,7304.77
730550,7305.5
730627,7306.27
730701,7307.01
730775,7307.75
730849,7308.49
730925,7309.25
731004,7310.04
731089,7310.89
731181,7311.81
731268,7312.68
731364,7313.64
731463,7314.63
731554,7315.54
731648,7316.48
731749,7317.49
731843,7318.43
731946,7319.46
732048,7320.48
732143,7321.43
732247,7322.47
732353,7323.53
732455,7324.55
732558,7325.58
732666,7326.66
732762,7327.62
732852,7328.52
732941,7329.41
733038,7330.38
733135,7331.35
733238,7332.38
733342,7333.42
733438,7334.38
733537,7335.37
733636,7336.36
733730,7337.3
733830,7338.3
733922,7339.22
734003,7340.03
734083,7340.83
734167,7341.67
734247,7342.47
734323,7343.23
734396,7343.96
734468,7344.68
734538,7345.38
734609,7346.09
734683,7346.83
734760,7347.6
734839,7348.39
734925,7349.25
735012,7350.12
735101,7351.01
735197,7351.97
735293,7352.93
735390,7353.9
735487,7354.87
735584,7355.84
735685,7356.85
735783,7357.83
735881,7358.81
735970,7359.7
736054,7360.54
736140,7361.4
736231,7362.31
736318,7363.18
736401,7364.01
736490,7364.9
736582,7365.82
736674,7366.74
736773,7367.73
736878,7368.78
736974,7369.74
737078,7370.78
737183,7371.83
737282,7372.82
737382,7373.82
737486,7374.86
737587,7375.87
737682,7376.82
737786,7377.86
737890,7378.9
737986,7379.86
738087,7380.87
738185,7381.85
738273,7382.73
738357,7383.57
738437,7384.37
738513,7385.13
738591,7385.91
738668,7386.68
738743,7387.43
738818,7388.18
738891,7388.91
738963,7389.63
739036,7390.36
739106,7391.06
739178,7391.78
739252,7392.52
739329,7393.29
739414,7394.14
739496,7394.96
739582,7395.82
739680,7396.8
739773,7397.73
739874,7398.74
739974,7399.74
740071,7400.71
740169,7401.69
740263,7402.63
740357,7403.57
740456,7404.56
740551,7405.51
740641,7406.41
740731,7407.31
740831,7408.31
740925,7409.25
741020,7410.2
741118,7411.18
741208,7412.08
741298,7412.98
741394,7413.94
741490,7414.9
741581,7415.81
741673,7416.73
741770,7417.7
741863,7418.63
741965,7419.65
742074,7420.74
742176,7421.76
742278,7422.78
742386,7423.86
742486,7424.86
742592,7425.92
742691,7426.91
742786,7427.86
742882,7428.82
742986,7429.86
743079,7430.79
743179,7431.79
743265,7432.65
743343,7433.43
743419,7434.19
743496,7434.96
743571,7435.71
743645,7436.45
743719,7437.19
743794,7437.94
743868,7438.68
743937,7439.37
744005,7440.05
744074,7440.74
744142,7441.42
744212,7442.12
744286,7442.86
744362,7443.62
744448,7444.48
744534,7445.34
744631,7446.31
744734,7447.34
744829,7448.29
744929,7449.29
745026,7450.26
745116,7451.16
745209,7452.09
745302,7453.02
745391,7453.91
745480,7454.8
745581,7455.81
745674,7456.74
745758,7457.58
745844,7458.44
745933,7459.33
746021,7460.21
746119,7461.19
746221,7462.21
746315,7463.15
746411,7464.11
746520,7465.2
746621,7466.21
746720,7467.2
746821,7468.21
746917,7469.17
747023,7470.23
747119,7471.19
747204,7472.04
747286,7472.86
747364,7473.64
747442,7474.42
747518,7475.18
747600,7476.0
747680,7476.8
747756,7477.56
747832,7478.32
747908,7479.08
747987,7479.87
748067,7480.67
748152,7481.52
748240,7482.4
748345,7483.45
748438,7484.38
748539,7485.39
748644,7486.44
748743,7487.43
748849,7488.49
748951,7489.51
749044,7490.44
749140,7491.4
749237,7492.37
749327,7493.27
749420,7494.2
749512,7495.12
749604,7496.04
749699,7496.99
749799,7497.99
749899,7498.99
750001,7500.01
750105,7501.05
750204,7502.04
750312,7503.12
750416,7504.16
750514,7505.14
750617,7506.17
750720,7507.2
750814,7508.14
750912,7509.12
751009,7510.09
751102,7511.02
751193,7511.93
751277,7512.77
751359,7513.59
751438,7514.38
751517,7515.17
751597,7515.97
751676,7516.76
751751,7517.51
751826,7518.26
751899,7518.99
751976,7519.76
752054,7520.54
752135,7521.35
752224,7522.24
752313,7523.13
752414,7524.14
752509,7525.09
752607,7526.07
752708,7527.08
752805,7528.05
752906,7529.06
753008,7530.08
753105,7531.05
753208,7532.08
753309,7533.09
753407,7534.07
753504,7535.04
753594,7535.94
753684,7536.84
753777,7537.77
753870,7538.7
753960,7539.6
754049,7540.49
754140,7541.4
754229,7542.29
754319,7543.19
754419,7544.19
754519,7545.19
754617,7546.17
754720,7547.2
754820,7548.2
754928,7549.28
755037,7550.37
755136,7551.36
755233,7552.33
755331,7553.31
755422,7554.22
755515,7555.15
755596,7555.96
755675,7556.75
755754,7557.54
755832,7558.32
755907,7559.07
755984,7559.84
756061,7560.61
756136,7561.36
756206,7562.06
756277,7562.77
756346,7563.46
756418,7564.18
756495,7564.95
756576,7565.76
756666,7566.66
756759,7567.59
756856,7568.56
756961,7569.61
757063,7570.63
757176,7571.76
757283,7572.83
757391,7573.91
757497,7574.97
757592,7575.92
757686,7576.86
757782,7577.82
757873,7578.73
757971,7579.71
758080,7580.8
758179,7581.79
758274,7582.74
758371,7583.71
758465,7584.65
758566,7585.66
758669,7586.69
758766,7587.66
758871,7588.71
758979,7589.79
759077,7590.77
759181,7591.81
759286,7592.86
759378,7593.78
759475,7594.75
759572,7595.72
759663,7596.63
759759,7597.59
759847,7598.47
759929,7599.29
760008,7600.08
760085,7600.85
760160,7601.6
760233,7602.33
760305,7603.05
760377,7603.77
760448,7604.48
760519,7605.19
760590,7605.9
760660,7606.6
760728,7607.28
760796,7607.96
760866,7608.66
760943,7609.43
761021,7610.21
761093,7610.93
761162,7611.62
761229,7612.29
761295,7612.95
761359,7613.59
761421,7614.21
761484,7614.84
761548,7615.48
761612,7616.12
761675,7616.75
761739,7617.39
761803,7618.03
761872,7618.72
761943,7619.43
762012,7620.12
762082,7620.82
762154,7621.54
762240,7622.4
762321,7623.21
762399,7623.99
762479,7624.79
762563,7625.63
762645,7626.45
762735,7627.35
762837,7628.37
762933,7629.33
763034,7630.34
763138,7631.38
763235,7632.35
763339,7633.39
763438,7634.38
763532,7635.32
763629,7636.29
763727,7637.27
763820,7638.2
763920,7639.2
764024,7640.24
764113,7641.13
764204,7642.04
764296,7642.96
764390,7643.9
764490,7644.9
764588,7645.88
764680,7646.8
764769,7647.69
764863,7648.63
