rr_interval_sec
0.74
0.75
0.74
0.74
0.74
0.74
0.74
0.74
0.75
0.74
0.75
0.75
0.76
0.75
0.77
0.77
0.77
0.76
0.77
0.76
0.75
0.75
0.75
0.74
0.74
0.73
0.73
0.74
0.73
0.73
0.73
0.73
0.74
0.76
0.77
0.76
0.76
0.77
0.75
0.76
0.75
0.75
0.74
0.74
0.74
0.75
0.75
0.75
0.76
0.77
0.77
0.77
0.78
0.78
0.77
0.77
0.77
0.77
0.75
0.75
0.77
0.76
0.75
0.76
0.75
0.75
0.75
0.76
0.74
0.75
0.74
0.75
0.74
0.74
0.74
0.74
0.74
0.73
0.74
0.75
0.74
0.75
0.75
0.75
0.75
0.74
0.75
0.74
0.74
0.74
0.74
0.74
0.73
0.74
0.74
0.74
0.74
0.75
0.74
0.75
0.75
0.76
0.75
0.75
0.75
0.74
0.75
0.75
0.76
0.76
0.76
0.78
0.78
0.77
0.78
0.8
0.77
0.78
0.76
0.77
0.77
0.75
0.75
0.75
0.76
0.75
0.75
0.77
0.76
0.76
0.76
0.76
0.76
0.75
0.76
0.75
0.75
0.75
0.75
0.76
0.75
0.75
0.76
0.76
0.75
0.75
0.74
0.75
0.73
0.74
0.74
0.73
0.72
0.72
0.73
0.72
0.72
0.72
0.72
0.72
0.71
0.73
0.71
0.73
0.73
0.74
0.75
0.74
0.74
0.74
0.73
0.73
0.72
0.73
0.72
0.72
0.73
0.73
0.73
0.73
0.73
0.74
0.73
0.73
0.72
0.73
0.72
0.72
0.71
0.72
0.71
0.72
0.72
0.72
0.73
0.73
0.74
0.73
0.74
0.75
0.75
0.74
0.75
0.75
0.75
0.76
0.75
0.76
0.75
0.74
0.75
0.74
0.75
0.74
0.74
0.74
0.73
0.74
0.73
0.73
0.72
0.73
0.71
0.73
0.73
0.74
0.73
0.75
0.75
0.76
0.76
0.77
0.78
0.77
0.78
0.77
0.76
0.76
0.76
0.75
0.75
0.73
0.74
0.72
0.73
0.72
0.72
0.71
0.71
0.72
0.72
0.72
0.72
0.73
0.74
0.74
0.73
0.74
0.74
0.73
0.72
0.72
0.71
0.7
0.7
0.7
0.69
0.7
0.71
0.7
0.71
0.71
0.7
0.71
0.72
0.71
0.71
0.71
0.7
0.69
0.7
0.7
0.7
0.73
0.76
0.76
0.76
0.75
0.77
0.78
0.77
0.75
0.75
0.73
0.73
0.73
0.72
0.71
0.71
0.7
0.69
0.68
0.68
0.68
0.68
0.68
0.7
0.71
0.72
0.72
0.74
0.73
0.75
0.77
0.76
0.73
0.73
0.71
0.72
0.71
0.71
0.73
0.71
0.72
0.71
0.71
0.7
0.69
0.7
0.7
0.7
0.69
0.7
0.69
0.7
0.7
0.74
0.73
0.74
0.74
0.75
0.75
0.77
0.76
0.75
0.75
0.73
0.73
0.72
0.71
0.7
0.7
0.7
0.71
0.71
0.73
0.72
0.72
0.73
0.72
0.72
0.73
0.72
0.74
0.72
0.72
0.71
0.7
0.7
0.7
0.73
0.74
0.74
0.76
0.77
0.79
0.77
0.77
0.76
0.75
0.73
0.73
0.72
0.7
0.7
0.7
0.72
0.73
0.76
0.77
0.77
0.77
0.76
0.76
0.74
0.73
0.72
0.71
0.72
0.7
0.7
0.7
0.68
0.67
0.67
0.71
0.78
0.85
0.89
0.93
0.93
0.91
0.92
0.92
0.88
0.86
0.86
0.87
0.86
0.84
0.84
0.84
0.84
0.82
0.8
0.8
0.79
0.79
0.77
0.77
0.75
0.75
0.75
0.73
0.71
0.71
0.71
0.71
0.72
0.71
0.72
0.71
0.73
0.72
0.73
0.71
0.73
0.72
0.73
0.74
0.73
0.73
0.74
0.73
0.74
0.74
0.73
0.72
0.71
0.71
0.73
0.72
0.72
0.73
0.73
0.72
0.71
0.7
0.7
0.71
0.71
0.7
0.72
0.7
0.72
0.72
0.73
0.72
0.73
0.74
0.75
0.76
0.79
0.77
0.79
0.83
0.83
0.83
0.83
0.82
0.8
0.82
0.78
0.78
0.76
0.78
0.78
0.79
0.8
0.78
0.77
0.78
0.78
0.78
0.79
0.8
0.79
0.8
0.82
0.82
0.82
0.82
0.8
0.8
0.79
0.78
0.76
0.74
0.73
0.71
0.72
0.7
0.69
0.7
0.71
0.72
0.75
0.73
0.74
0.75
0.68
0.77
0.68
0.72
0.69
0.66
0.65
0.65
0.64
0.66
0.69
0.79
0.83
0.92
1.02
1.03
0.99
0.98
0.98
0.94
0.93
0.92
0.86
0.88
0.83
0.8
0.8
0.79
0.79
0.78
0.79
0.76
0.77
0.76
0.78
0.78
0.79
0.79
0.8
0.81
0.8
0.81
0.81
0.8
0.8
0.8
0.79
0.78
0.77
0.76
0.76
0.76
0.76
0.76
0.76
0.77
0.78
0.78
0.79
0.77
0.79
0.78
0.79
0.77
0.76
0.77
0.77
0.76
0.77
0.76
0.75
0.73
0.73
0.72
0.73
0.73
0.74
0.74
0.74
0.76
0.76
0.76
0.76
0.76
0.75
0.75
0.76
0.75
0.76
0.75
0.74
0.74
0.74
0.72
0.72
0.72
0.72
0.74
0.76
0.78
0.79
0.79
0.81
0.8
0.8
0.81
0.81
0.79
0.8
0.79
0.78
0.77
0.75
0.75
0.72
0.73
0.71
0.72
0.73
0.96
1.14
0.8
0.97
0.64
0.62
0.65
0.69
0.76
0.78
0.83
0.84
0.77
0.77
1.15
0.78
1.14
0.76
0.73
0.73
0.71
0.71
0.68
0.65
0.47
0.48
0.52
0.53
0.65
0.65
0.65
0.66
0.67
0.69
0.71
0.74
0.77
0.77
0.77
0.76
0.75
0.75
0.74
0.74
0.73
0.73
0.71
0.72
0.71
0.71
0.69
0.69
0.69
0.69
0.69
0.68
0.71
0.74
0.77
0.76
0.77
0.78
0.8
0.81
0.79
0.82
0.83
0.82
0.82
0.83
0.82
0.84
0.86
0.84
0.84
0.81
0.82
0.83
0.83
0.8
0.83
0.82
0.79
0.79
0.8
0.8
0.78
0.79
0.79
0.8
0.79
0.79
0.8
0.81
0.81
0.8
0.81
0.82
0.83
0.81
0.82
0.82
0.82
0.81
0.82
0.81
0.79
0.79
0.8
0.8
0.78
0.79
0.78
0.79
0.77
0.79
0.79
0.77
0.79
0.78
0.78
0.79
0.77
0.79
0.78
0.79
0.79
0.79
0.78
0.79
0.79
0.79
0.79
0.79
0.78
0.78
0.77
0.78
0.77
0.78
0.78
0.78
0.78
0.78
0.78
0.76
0.77
0.78
0.78
0.77
0.77
0.78
0.79
0.77
0.77
0.78
0.77
0.76
0.76
0.77
0.76
0.76
0.76
0.75
0.74
0.76
0.75
0.74
0.76
0.75
0.75
0.76
0.77
0.76
0.77
0.77
0.79
0.78
0.78
0.78
0.78
0.76
0.77
0.76
0.75
0.75
0.76
0.76
0.76
0.76
0.78
0.78
0.77
0.78
0.79
0.77
0.77
0.77
0.78
0.76
0.76
0.76
0.76
0.76
0.77
0.77
0.78
0.76
0.78
0.79
0.77
0.77
0.78
0.77
0.77
0.77
0.76
0.76
0.76
0.76
0.77
0.76
0.8
0.85
0.83
0.82
0.83
0.81
0.78
0.79
0.78
0.76
0.77
0.77
0.76
0.76
0.76
0.77
0.76
0.75
0.76
0.77
0.79
0.78
0.76
0.75
0.75
0.74
0.74
0.73
0.71
0.71
0.69
0.68
0.68
0.68
0.69
0.76
0.79
0.79
0.83
0.91
0.9
0.9
0.88
0.89
0.9
0.91
0.89
0.88
0.84
0.8
0.82
0.8
0.77
0.77
0.77
0.77
0.75
0.77
0.78
0.79
0.78
0.78
0.79
0.8
0.78
0.8
0.81
0.8
0.8
0.82
0.81
0.81
0.81
0.82
0.82
0.8
0.81
0.81
0.82
0.79
0.81
0.83
0.83
0.82
0.84
0.86
0.82
0.81
0.81
0.81
0.79
0.8
0.81
0.79
0.79
0.82
0.82
0.8
0.79
0.81
0.82
0.8
0.82
0.82
0.81
0.82
0.82
0.82
0.82
0.82
0.81
0.81
0.82
0.85
0.8
0.81
0.82
0.8
0.8
0.79
0.78
0.78
0.78
0.8
0.82
0.81
0.79
0.8
0.79
0.78
0.77
0.78
0.78
0.78
0.77
0.79
0.77
0.78
0.78
0.79
0.78
0.77
0.79
0.79
0.79
0.78
0.77
0.78
0.77
0.76
0.77
0.77
0.77
0.76
0.78
0.78
0.82
0.82
0.79
0.81
0.81
0.78
0.78
0.78
0.78
0.76
0.78
0.78
0.77
0.77
0.76
0.78
0.77
0.76
0.76
0.76
0.76
0.75
0.76
0.76
0.76
0.75
0.77
0.75
0.76
0.76
0.75
0.75
0.74
0.74
0.74
0.74
0.73
0.74
0.74
0.73
0.74
0.74
0.73
0.75
0.75
0.75
0.75
0.74
0.74
0.75
0.74
0.73
0.73
0.74
0.73
0.74
0.73
0.74
0.73
0.74
0.76
0.77
0.76
0.77
0.76
0.76
0.75
0.75
0.75
0.74
0.74
0.75
0.75
0.75
0.74
0.74
0.72
0.72
0.71
0.7
0.71
0.71
0.71
0.72
0.72
0.73
0.74
0.75
0.74
0.76
0.76
0.77
0.77
0.78
0.78
0.79
0.78
0.78
0.79
0.78
0.77
0.79
0.78
0.79
0.78
0.78
0.78
0.78
0.78
0.79
0.81
0.79
0.78
0.8
0.79
0.78
0.77
0.78
0.77
0.77
0.77
0.78
0.78
0.77
0.78
0.78
0.77
0.78
0.78
0.79
0.78
0.78
0.78
0.79
0.79
0.78
0.8
0.79
0.78
0.79
0.79
0.78
0.78
0.79
0.78
0.77
0.78
0.78
0.78
0.77
0.78
0.78
0.77
0.77
0.76
0.78
0.77
0.78
0.78
0.79
0.79
0.79
0.81
0.8
0.79
0.78
0.79
0.78
0.77
0.76
0.76
0.77
0.76
0.75
0.76
0.77
0.77
0.76
0.78
0.78
0.78
0.77
0.78
0.79
0.77
0.77
0.77
0.78
0.77
0.77
0.79
0.77
0.78
0.78
0.78
0.77
0.77
0.78
0.78
0.76
0.78
0.77
0.79
0.76
0.75
0.75
0.75
0.75
0.77
0.78
0.77
0.76
0.78
0.76
0.77
0.76
0.76
0.73
0.74
0.7
0.69
0.53
0.47
0.5
0.63
0.59
0.65
0.74
0.6
0.72
0.66
0.66
0.65
0.64
0.65
0.64
0.64
0.64
0.65
0.68
0.75
0.84
0.87
0.87
0.86
0.85
0.85
0.84
0.82
0.81
0.79
0.76
0.77
0.75
0.77
0.75
0.77
0.78
0.8
0.8
0.82
0.82
0.82
0.81
0.82
0.83
0.82
0.83
0.82
0.82
0.82
0.8
0.81
0.8
0.79
0.8
0.79
0.79
0.77
0.78
0.77
0.78
0.77
0.78
0.78
0.79
0.8
0.78
0.79
0.79
0.76
0.77
0.77
0.77
0.76
0.78
0.79
0.78
0.79
0.79
0.78
0.78
0.79
0.78
0.78
0.78
0.78
0.79
0.79
0.79
0.79
0.79
0.78
0.8
0.8
0.78
0.78
0.79
0.78
0.78
0.79
0.79
0.79
0.79
0.79
0.8
0.79
0.79
0.8
0.81
0.8
0.8
0.8
0.78
0.78
0.79
0.77
0.76
0.77
0.76
0.76
0.75
0.78
0.8
0.78
0.77
0.79
0.77
0.77
0.78
0.78
0.77
0.77
0.77
0.77
0.78
0.76
0.77
0.77
0.77
0.77
0.76
0.77
0.76
0.76
0.76
0.76
0.76
0.77
0.76
0.76
0.77
0.76
0.76
0.76
0.75
0.75
0.74
0.76
0.75
0.76
0.75
0.75
0.77
0.75
0.75
0.75
0.77
0.76
0.76
0.78
0.79
0.78
0.78
0.78
0.79
0.78
0.77
0.78
0.77
0.77
0.77
0.78
0.77
0.77
0.78
0.77
0.76
0.77
0.78
0.78
0.78
0.78
0.78
0.77
0.77
0.77
0.76
0.76
0.76
0.77
0.75
0.76
0.77
0.77
0.76
0.77
0.77
0.79
0.79
0.78
0.78
0.8
0.78
0.8
0.8
0.79
0.79
0.8
0.8
0.79
0.79
0.79
0.78
0.78
0.78
0.79
0.77
0.77
0.78
0.8
0.82
0.83
0.81
0.83
0.81
0.81
0.82
0.82
0.78
0.79
0.79
0.8
0.79
0.78
0.8
0.81
0.79
0.8
0.81
0.8
0.79
0.8
0.8
0.78
0.79
0.79
0.79
0.79
0.8
0.8
0.79
0.78
0.79
0.79
0.79
0.8
0.79
0.78
0.8
0.78
0.78
0.78
0.78
0.77
0.76
0.77
0.77
0.78
0.76
0.76
0.78
0.78
0.76
0.77
0.78
0.8
0.78
0.79
0.81
0.8
0.8
0.81
0.8
0.79
0.77
0.78
0.76
0.76
0.76
0.75
0.75
0.75
0.76
0.78
0.77
0.78
0.79
0.79
0.78
0.78
0.77
0.77
0.76
0.75
0.75
0.76
0.78
0.78
0.78
0.78
0.8
0.82
0.79
0.79
0.8
0.78
0.76
0.77
0.77
0.75
0.77
0.77
0.79
0.81
0.78
0.79
0.8
0.8
0.79
0.8
0.82
0.83
0.81
0.82
0.84
0.82
0.82
0.83
0.81
0.83
0.82
0.81
0.81
0.82
0.83
0.81
0.82
0.84
0.83
0.83
0.85
0.83
0.83
0.83
0.84
0.85
0.86
0.89
0.88
0.91
0.92
0.93
0.93
0.95
0.93
0.88
0.89
0.83
0.82
0.8
0.78
0.78
0.8
0.79
0.82
0.84
0.84
0.85
0.85
0.88
0.89
0.87
0.91
0.92
0.89
0.9
0.91
0.89
0.9
0.88
0.86
0.87
0.86
0.84
0.84
0.84
0.82
0.81
0.82
0.81
0.79
0.78
0.77
0.77
0.77
0.78
0.78
0.79
0.81
0.78
0.79
0.81
0.83
0.82
0.83
0.84
0.82
0.83
0.84
0.81
0.81
0.81
0.83
0.8
0.8
0.81
0.82
0.83
0.82
0.85
0.86
0.87
0.88
0.86
0.88
0.88
0.86
0.88
0.87
0.88
0.88
0.86
0.84
0.83
0.81
0.79
0.79
0.79
0.8
0.81
0.81
0.82
0.8
0.82
0.82
0.83
0.82
0.84
0.85
0.83
0.84
0.87
0.89
0.87
0.89
0.89
0.89
0.88
0.88
0.86
0.88
0.86
0.85
0.84
0.83
0.82
0.81
0.82
0.82
0.83
0.83
0.85
0.87
0.86
0.85
0.87
0.86
0.85
0.84
0.87
0.88
0.88
0.91
0.91
0.94
0.93
0.91
0.93
0.9
0.91
0.89
0.89
0.86
0.88
0.9
0.87
0.88
0.89
0.88
0.88
0.89
0.87
0.85
0.86
0.84
0.83
0.84
0.82
0.8
0.81
0.78
0.77
0.77
0.77
0.75
0.77
0.77
0.77
0.78
0.77
0.78
0.77
0.78
0.78
0.79
0.77
0.79
0.79
0.78
0.77
0.77
0.77
0.78
0.76
0.75
0.76
0.77
0.76
0.76
0.77
0.76
0.77
0.75
0.76
0.76
0.77
0.77
0.78
0.8
0.82
0.83
0.85
0.86
0.87
0.86
0.86
0.86
0.85
0.84
0.85
0.84
0.82
0.84
0.84
0.82
0.81
0.84
0.81
0.79
0.8
0.78
0.78
0.77
0.78
0.77
0.77
0.77
0.77
0.77
0.77
0.79
0.79
0.78
0.78
0.79
0.79
0.8
0.8
0.8
0.82
0.82
0.8
0.83
0.84
0.84
0.83
0.84
0.86
0.85
0.85
0.85
0.83
0.86
0.85
0.87
0.84
0.84
0.86
0.85
0.85
0.87
0.85
0.84
0.84
0.85
0.84
0.83
0.84
0.84
0.82
0.82
0.81
0.81
0.8
0.78
0.79
0.81
0.8
0.8
0.83
0.82
0.82
0.82
0.81
0.83
0.81
0.81
0.82
0.81
0.82
0.82
0.83
0.81
0.82
0.82
0.82
0.8
0.81
0.81
0.81
0.8
0.81
0.82
0.8
0.8
0.82
0.83
0.81
0.81
0.82
0.81
0.8
0.8
0.81
0.84
0.86
0.85
0.88
0.87
0.89
0.86
0.86
0.83
0.85
0.84
0.83
0.83
0.84
0.82
0.81
0.82
0.79
0.78
0.77
0.78
0.76
0.74
0.74
0.77
0.77
0.76
0.76
0.78
0.77
0.78
0.78
0.79
0.77
0.79
0.78
0.78
0.77
0.77
0.77
0.78
0.76
0.78
0.78
0.77
0.78
0.78
0.78
0.81
0.81
0.81
0.8
0.82
0.8
0.8
0.81
0.8
0.8
0.83
0.85
0.86
0.9
0.88
0.9
0.9
0.89
0.9
0.9
0.91
0.89
0.92
0.89
0.88
0.89
0.84
0.85
0.82
0.8
0.79
0.8
0.78
0.78
0.79
0.78
0.78
0.79
0.8
0.79
0.8
0.79
0.8
0.81
0.8
0.81
0.82
0.83
0.83
0.85
0.84
0.84
0.85
0.82
0.8
0.8
0.8
0.78
0.8
0.83
0.82
0.85
0.84
0.84
0.85
0.83
0.85
0.85
0.84
0.84
0.86
0.85
0.84
0.84
0.84
0.82
0.82
0.82
0.79
0.78
0.79
0.79
0.77
0.76
0.77
0.76
0.76
0.77
0.77
0.77
0.79
0.79
0.82
0.8
0.82
0.83
0.82
0.82
0.82
0.82
0.82
0.82
0.83
0.81
0.83
0.83
0.79
0.79
0.78
0.76
0.77
0.78
0.77
0.8
0.84
0.8
0.81
0.85
0.86
0.88
0.86
0.86
0.84
0.83
0.85
0.85
0.84
0.84
0.84
0.84
0.87
0.86
0.85
0.85
0.86
0.83
0.83
0.82
0.8
0.8
0.8
0.8
0.79
0.79
0.79
0.78
0.78
0.77
0.8
0.79
0.79
0.79
0.82
0.82
0.82
0.85
0.86
0.87
0.85
0.88
0.85
0.87
0.85
0.87
0.82
0.85
0.82
0.85
0.85
0.84
0.87
0.85
0.85
0.86
0.83
0.82
0.83
0.8
0.8
0.81
0.8
0.8
0.8
0.77
0.77
0.77
0.76
0.74
0.74
0.74
0.73
0.75
0.74
0.76
0.76
0.76
0.76
0.78
0.79
0.79
0.8
0.81
0.8
0.79
0.81
0.8
0.79
0.78
0.78
0.76
0.75
0.75
0.74
0.74
0.73
0.75
0.76
0.75
0.77
0.78
0.8
0.79
0.82
0.83
0.83
0.83
0.84
0.81
0.82
0.83
0.82
0.81
0.81
0.83
0.84
0.81
0.84
0.82
0.8
0.81
0.79
0.78
0.76
0.78
0.8
0.81
0.81
0.8
0.82
0.81
0.81
0.82
0.83
0.82
0.82
0.81
0.8
0.79
0.81
0.8
0.79
0.79
0.79
0.8
0.8
0.79
0.8
0.8
0.81
0.81
0.79
0.83
0.83
0.84
0.84
0.86
0.86
0.86
0.88
0.88
0.88
0.88
0.88
0.9
0.89
0.86
0.85
0.87
0.84
0.83
0.84
0.83
0.83
0.82
0.83
0.82
0.81
0.81
0.81
0.82
0.81
0.83
0.83
0.81
0.8
0.82
0.79
0.78
0.79
0.79
0.79
0.79
0.8
0.77
0.77
0.77
0.78
0.76
0.74
0.75
0.75
0.73
0.74
0.74
0.73
0.73
0.82
0.82
0.67
0.68
0.73
0.73
0.71
0.7
0.68
0.68
0.68
0.67
0.66
0.66
0.66
0.66
0.65
0.64
0.63
0.65
0.63
0.66
0.72
0.73
0.7
0.71
0.73
0.74
0.73
0.74
0.73
0.74
0.77
0.79
0.79
0.79
0.81
0.79
0.8
0.81
0.8
0.78
0.78
0.78
0.75
0.75
0.76
0.75
0.74
0.76
0.76
0.75
0.78
0.79
0.8
0.78
0.79
0.8
0.81
0.79
0.81
0.82
0.83
0.82
0.82
0.8
0.82
0.82
0.81
0.81
0.8
0.81
0.81
0.81
0.81
0.8
0.79
0.81
0.79
0.78
0.78
0.78
0.77
0.77
0.77
0.76
0.77
0.75
0.75
0.76
0.74
0.74
0.76
0.73
0.76
0.76
0.77
0.76
0.78
0.79
0.78
0.79
0.81
0.81
0.8
0.81
0.82
0.82
0.81
0.81
0.81
0.82
0.8
0.8
0.82
0.81
0.81
0.79
0.79
0.78
0.76
0.76
0.76
0.74
0.74
0.75
0.75
0.76
0.79
0.79
0.82
0.82
0.84
0.83
0.86
0.85
0.86
0.93
0.91
0.93
0.93
0.92
0.94
0.94
0.92
0.95
0.95
0.91
0.89
0.85
0.82
0.8
0.78
0.78
0.78
0.76
0.76
0.78
0.78
0.77
0.78
0.79
0.81
0.8
0.81
0.82
0.82
0.81
0.82
0.82
0.83
0.81
0.81
0.82
0.81
0.8
0.79
0.8
0.81
0.82
0.8
0.82
0.81
0.82
0.81
0.8
0.81
0.81
0.79
0.79
0.8
0.8
0.79
0.79
0.79
0.78
0.79
0.79
0.79
0.82
0.81
0.81
0.79
0.8
0.82
0.83
0.84
0.86
0.84
0.84
0.83
0.84
0.81
0.8
0.82
0.79
0.78
0.76
0.74
0.74
0.74
0.72
0.74
0.74
0.72
0.72
0.73
0.74
0.74
0.77
0.78
0.76
0.76
0.76
1.04
1.05
0.86
0.86
0.71
0.71
0.71
0.68
0.69
0.67
0.66
0.64
0.65
0.64
0.63
1.34
1.35
0.87
0.87
0.64
0.64
0.63
0.65
0.65
0.65
0.67
0.67
0.69
0.7
0.72
0.71
0.73
0.73
0.73
0.73
0.74
0.73
0.71
0.71
0.7
0.7
0.7
0.72
0.76
0.75
0.76
0.77
0.77
0.76
0.75
0.76
0.77
0.77
0.76
0.75
0.77
0.76
0.76
0.77
0.77
0.77
0.78
0.78
0.78
0.77
0.79
0.79
0.79
0.79
0.8
0.8
0.78
0.78
0.78
0.77
0.77
0.78
0.78
0.76
0.76
0.76
0.74
0.72
0.71
0.72
0.71
0.71
0.7
0.72
0.72
0.74
0.75
0.77
0.78
0.78
0.8
0.81
0.83
0.84
0.86
0.84
0.84
0.82
0.81
0.82
0.8
0.8
0.81
0.82
0.79
0.79
0.79
0.79
0.78
0.79
0.77
0.77
0.77
0.76
0.75
0.76
0.74
0.74
0.74
0.73
0.73
0.74
0.76
0.75
0.76
0.78
0.75
0.74
0.74
0.72
0.71
0.7
0.7
0.71
0.71
0.72
0.75
0.74
0.76
0.77
0.79
0.81
0.79
0.83
0.82
0.81
0.8
0.78
0.78
0.78
0.8
0.8
0.81
0.8
0.83
0.84
0.85
0.85
0.84
0.8
0.79
0.79
0.77
0.77
0.76
0.76
0.76
0.75
0.75
0.75
0.74
0.75
0.74
0.73
0.73
0.73
0.76
0.77
0.76
0.76
0.78
0.75
0.76
0.76
0.77
0.75
0.72
0.73
0.73
0.71
0.72
0.72
0.72
0.71
0.72
0.72
0.72
0.74
0.74
0.77
0.78
0.79
0.8
0.79
0.8
0.81
0.8
0.79
0.79
0.78
0.77
0.77
0.76
0.76
0.75
0.76
0.74
0.75
0.73
0.74
0.73
0.72
0.71
0.7
0.7
0.69
0.7
0.72
0.72
0.74
0.73
0.74
0.75
0.77
0.74
0.74
0.76
0.76
0.74
0.78
0.78
0.75
0.73
0.75
0.74
0.74
0.73
0.73
0.72
0.72
0.74
0.74
0.75
0.76
0.79
0.78
0.82
0.83
0.82
0.83
0.85
0.85
0.86
0.84
0.85
0.84
0.81
0.8
0.78
0.77
0.77
0.75
0.75
0.76
0.75
0.75
0.74
0.74
0.74
0.73
0.75
0.75
0.76
0.74
0.75
0.76
0.76
0.76
0.76
0.77
0.8
0.75
0.75
0.74
0.73
0.71
0.72
0.73
0.72
0.73
0.73
0.73
0.73
0.74
0.75
0.78
0.77
0.79
0.8
0.82
0.84
0.86
0.83
0.84
0.85
0.83
0.82
0.81
0.81
0.8
0.78
0.78
0.77
0.76
0.75
0.76
0.77
0.76
0.76
0.76
0.78
0.78
0.76
0.77
0.78
0.76
0.74
0.76
0.78
0.78
0.78
0.77
0.8
0.75
0.76
0.74
0.74
0.72
0.71
0.72
0.71
0.72
0.72
0.72
0.74
0.75
0.75
0.78
0.78
0.8
0.8
0.82
0.82
0.8
0.82
0.81
0.81
0.81
0.81
0.8
0.78
0.78
0.76
0.77
0.75
0.76
0.76
0.77
0.79
0.78
0.77
0.78
0.77
0.77
0.78
0.75
0.76
0.77
0.77
0.77
0.77
0.75
0.8
0.81
0.76
0.76
0.76
0.74
0.75
0.74
0.75
0.77
0.75
0.76
0.77
0.76
0.78
0.79
0.81
0.82
0.83
0.82
0.84
0.85
0.84
0.83
0.81
0.8
0.8
0.81
0.81
0.8
0.79
0.8
0.78
0.78
0.76
0.76
0.75
0.75
0.73
0.74
0.73
0.73
0.73
0.75
0.75
0.81
0.79
0.82
0.8
0.82
0.82
0.81
0.82
0.83
0.79
0.78
0.76
0.75
0.75
0.74
0.74
0.74
0.74
0.75
0.74
0.77
0.78
0.82
0.82
0.83
0.84
0.85
0.85
0.84
0.86
0.86
0.82
0.82
0.8
0.82
0.8
0.8
0.83
0.83
0.84
0.83
0.83
0.83
0.82
0.81
0.8
0.79
0.78
0.78
0.79
0.78
0.77
0.77
0.78
0.81
0.81
0.77
0.8
0.82
0.77
0.75
0.75
0.72
0.72
0.72
0.72
0.73
0.72
0.73
0.74
0.74
0.74
0.75
0.77
0.76
0.77
0.8
0.83
0.83
0.86
0.89
0.9
0.88
0.91
0.91
0.9
0.92
0.91
0.89
0.87
0.85
0.84
0.83
0.82
0.8
0.79
0.78
0.77
0.77
0.78
0.79
0.78
0.8
0.8
0.81
0.79
0.8
0.79
0.8
0.79
0.82
0.83
0.8
0.79
0.81
0.77
0.76
0.75
0.72
0.72
0.73
0.73
0.71
0.72
0.74
0.75
0.76
0.78
0.79
0.8
0.82
0.87
0.9
0.88
0.91
0.91
0.92
0.92
0.89
0.85
0.86
0.84
0.82
0.82
0.79
0.79
0.78
0.78
0.78
0.79
0.79
0.78
0.81
0.83
0.81
0.81
0.84
0.84
0.8
0.79
0.77
0.77
0.76
0.75
0.77
0.77
0.76
0.79
0.79
0.79
0.81
0.83
0.86
0.84
0.87
0.88
0.89
0.91
0.9
0.9
0.92
0.94
0.94
0.9
0.9
0.88
0.87
0.85
0.84
0.83
0.8
0.78
0.79
0.8
0.78
0.8
0.8
0.79
0.82
0.83
0.81
0.83
0.84
0.84
0.82
0.83
0.79
0.8
0.8
0.8
0.78
0.75
0.74
0.74
0.74
0.73
0.74
0.75
0.75
0.76
0.78
0.77
0.8
0.82
0.85
0.83
0.89
0.88
0.88
0.91
0.91
0.89
0.9
0.93
0.91
0.9
0.89
0.87
0.87
0.86
0.86
0.84
0.84
0.84
0.85
0.83
0.85
0.86
0.85
0.83
0.84
0.85
0.82
0.82
0.84
0.8
0.81
0.81
0.8
0.84
0.82
0.81
0.82
0.79
0.79
0.76
0.77
0.76
0.75
0.75
0.74
0.74
0.75
0.74
0.74
0.76
0.76
0.81
0.81
0.85
0.88
0.92
0.88
0.94
0.94
0.88
0.93
0.92
0.89
0.91
0.91
0.85
0.84
0.84
0.85
0.82
0.84
0.84
0.84
0.84
0.82
0.8
0.77
0.77
0.82
0.81
0.79
0.83
0.85
0.82
0.83
0.82
0.81
0.84
0.79
0.81
0.84
0.81
0.84
0.84
0.8
0.8
0.77
0.76
0.74
0.73
0.73
0.72
0.73
0.72
0.73
0.74
0.74
0.76
0.82
0.85
0.87
0.86
0.92
0.95
0.94
0.88
0.9
0.87
0.88
0.9
0.88
0.88
0.87
0.83
0.85
0.84
0.8
0.8
0.8
0.82
0.8
0.84
0.83
0.82
0.82
0.86
0.81
0.81
0.83
0.78
0.84
0.85
0.82
0.85
0.84
0.81
0.83
0.84
0.82
0.85
0.82
0.84
0.85
0.8
0.78
0.76
0.75
0.74
0.73
0.73
0.72
0.72
0.72
0.72
0.74
0.74
0.76
0.82
0.83
0.89
0.87
0.94
0.94
0.94
0.89
0.94
0.92
0.95
0.92
0.91
0.89
0.88
0.85
0.82
0.79
0.76
0.78
0.79
0.77
0.79
0.84
0.88
0.82
0.83
0.84
0.81
0.82
0.86
0.82
0.82
0.86
0.81
0.82
0.89
0.82
0.82
0.85
0.81
0.8
0.77
0.76
0.75
0.74
0.72
0.72
0.73
0.71
0.72
0.73
0.74
0.75
0.77
0.81
0.83
0.88
0.87
0.86
0.9
0.9
0.86
0.89
0.9
0.88
0.85
0.86
0.93
0.89
0.88
0.84
0.85
0.86
0.85
0.83
0.85
0.83
0.81
0.88
0.83
0.81
0.87
0.81
0.88
0.82
0.86
0.87
0.84
0.89
0.87
0.84
0.9
0.83
0.88
0.81
0.8
0.79
0.76
0.75
0.75
0.74
0.74
0.74
0.74
0.73
0.74
0.72
0.72
0.73
0.72
0.74
0.76
0.83
0.83
0.84
0.85
0.83
0.87
0.83
0.89
0.85
0.82
0.82
0.81
0.83
0.81
0.82
0.8
0.8
0.82
0.79
0.79
0.78
0.81
0.79
0.79
0.81
0.84
0.8
0.86
0.87
0.82
0.86
0.82
0.83
0.9
0.86
0.86
0.89
0.84
0.81
0.81
0.78
0.75
0.75
0.73
0.73
0.72
0.72
0.73
0.74
0.79
0.81
0.81
0.84
0.91
0.94
0.9
0.95
0.96
0.91
0.91
0.87
0.87
0.9
0.9
0.9
0.89
0.88
0.83
0.87
0.81
0.79
0.78
0.8
0.81
0.82
0.79
0.87
0.87
0.83
0.9
0.9
0.87
0.87
0.91
0.85
0.86
0.83
0.83
0.85
0.82
0.79
0.76
0.76
0.73
0.73
0.73
0.71
0.7
0.72
0.73
0.75
0.77
0.77
0.84
0.82
0.85
0.84
0.87
0.89
0.86
0.88
0.87
0.9
0.9
0.91
0.92
0.92
0.89
0.88
0.84
0.85
0.84
0.84
0.84
0.84
0.8
0.82
0.78
0.76
0.79
0.81
0.81
0.82
0.83
0.83
0.79
0.82
0.82
0.77
0.81
0.86
0.8
0.78
0.76
0.75
0.74
0.73
0.72
0.71
0.71
0.72
0.72
0.72
0.73
0.73
0.75
0.76
0.75
0.76
0.76
0.76
0.8
0.84
0.9
0.77
0.95
0.71
0.78
0.67
0.66
0.65
0.64
0.64
0.63
0.63
0.62
0.62
0.64
0.64
0.65
0.65
0.65
0.65
0.67
0.69
0.73
0.75
0.78
0.79
0.78
0.78
0.84
0.86
0.82
0.8
0.77
0.75
0.73
0.74
0.79
0.88
0.88
0.86
0.83
0.81
0.8
0.78
0.77
0.74
0.72
0.72
0.72
0.73
0.75
0.78
0.81
0.8
0.83
0.86
0.85
0.87
0.88
0.86
0.89
0.88
0.9
0.87
0.86
0.85
0.84
0.85
0.86
0.81
0.82
0.82
0.79
0.79
0.81
0.78
0.78
0.81
0.83
0.78
0.77
0.75
0.77
0.75
0.73
0.74
0.74
0.73
0.74
0.72
0.73
0.72
0.72
0.73
0.71
0.72
0.72
0.72
0.75
0.76
0.79
0.82
0.84
0.85
0.86
0.87
0.88
0.88
0.88
0.91
0.91
0.92
0.91
0.88
0.86
0.87
0.84
0.84
0.81
0.82
0.81
0.82
0.82
0.8
0.82
0.83
0.84
0.82
0.83
0.81
0.8
0.82
0.81
0.8
0.81
0.81
0.78
0.77
0.76
0.75
0.75
0.74
0.74
0.73
0.72
0.72
0.73
0.72
0.74
0.75
0.76
0.79
0.8
0.82
0.82
0.86
0.88
0.86
0.88
0.88
0.86
0.85
0.86
0.85
0.84
0.82
0.83
0.82
0.79
0.78
0.78
0.77
0.77
0.77
0.78
0.78
0.78
0.78
0.77
0.78
0.81
0.79
0.77
0.79
0.79
0.8
0.78
0.79
0.8
0.77
0.77
0.76
0.75
0.74
0.72
0.72
0.73
0.72
0.72
0.73
0.74
0.74
0.76
0.78
0.8
0.84
0.86
0.84
0.89
0.89
0.88
0.91
0.91
0.89
0.88
0.89
0.88
0.89
0.85
0.85
0.84
0.82
0.82
0.81
0.77
0.77
0.77
0.78
0.79
0.78
0.8
0.81
0.82
0.8
0.81
0.83
0.8
0.8
0.79
0.78
0.81
0.82
0.8
0.82
0.82
0.8
0.81
0.82
0.79
0.78
0.75
0.73
0.73
0.73
0.72
0.73
0.72
0.72
0.72
0.72
0.74
0.74
0.75
0.78
0.77
0.79
0.78
0.8
0.81
0.81
0.81
0.83
0.85
0.86
0.87
0.89
0.88
0.89
0.84
0.82
0.81
0.82
0.82
0.8
0.82
0.81
0.81
0.79
0.77
0.78
0.77
0.77
0.76
0.77
0.79
0.79
0.81
0.83
0.8
0.8
0.82
0.78
0.78
0.8
0.77
0.77
0.79
0.79
0.76
0.75
0.74
0.73
0.74
0.73
0.73
0.72
0.73
0.73
0.74
0.75
0.76
0.77
0.78
0.8
0.81
0.82
0.8
0.8
0.84
0.82
0.88
0.88
0.87
0.87
0.92
0.92
0.86
0.84
0.8
0.8
0.76
0.77
0.76
0.75
0.74
0.76
0.76
0.76
0.78
0.81
0.82
0.83
0.81
0.81
0.83
0.82
0.84
0.82
0.8
0.85
0.83
0.85
0.8
0.83
0.78
0.77
0.74
0.75
0.73
0.75
0.74
0.74
0.75
0.73
0.76
0.76
0.76
0.78
0.78
0.79
0.78
0.79
0.79
0.79
0.79
0.79
0.81
0.79
0.79
0.79
0.8
0.8
0.82
0.81
0.82
0.83
0.83
0.85
0.83
0.83
0.82
0.82
0.81
0.8
0.78
0.78
0.78
0.77
0.77
0.8
0.79
0.78
0.8
0.83
0.84
0.8
0.81
0.81
0.79
0.81
0.83
0.83
0.8
0.8
0.82
0.78
0.76
0.78
0.77
0.79
0.8
0.78
0.79
0.78
0.79
0.79
0.8
0.84
0.87
0.86
0.88
0.89
0.89
0.87
0.89
0.87
0.86
0.89
0.88
0.89
0.85
0.86
0.85
0.84
0.86
0.83
0.81
0.81
0.79
0.83
0.79
0.8
0.83
0.84
0.8
0.83
0.84
0.8
0.85
0.84
0.82
0.85
0.86
0.83
0.87
0.83
0.84
0.84
0.83
0.85
0.86
0.8
0.77
0.77
0.74
0.72
0.72
0.7
0.68
0.7
0.69
0.73
0.73
0.74
0.78
0.79
0.86
0.88
0.86
0.91
0.92
0.86
0.9
0.91
0.9
0.88
0.86
0.88
0.85
0.86
0.86
0.85
0.83
0.82
0.82
0.8
0.77
0.78
0.81
0.83
0.83
0.86
0.83
0.83
0.87
0.82
0.82
0.91
0.88
0.92
0.91
0.87
0.92
0.88
0.93
0.84
0.82
0.81
0.78
0.77
0.76
0.75
0.75
0.77
0.76
0.75
0.77
0.78
0.8
0.83
0.85
0.86
0.9
0.92
0.9
0.95
0.94
0.91
0.92
0.94
0.94
0.89
0.92
0.91
0.86
0.89
0.85
0.86
0.84
0.83
0.82
0.79
0.79
0.8
0.79
0.81
0.84
0.81
0.84
0.8
0.82
0.86
0.86
0.85
0.82
0.83
0.87
0.81
0.81
0.79
0.77
0.76
0.73
0.75
0.74
0.75
0.75
0.75
0.76
0.76
0.77
0.78
0.8
0.81
0.82
0.82
0.83
0.82
0.83
0.81
0.83
0.85
0.84
0.87
0.87
0.9
0.87
0.88
0.85
0.84
0.84
0.82
0.82
0.79
0.8
0.8
0.8
0.78
0.78
0.8
0.79
0.78
0.81
0.81
0.8
0.79
0.84
0.78
0.79
0.84
0.79
0.81
0.82
0.83
0.8
0.76
0.74
0.73
0.71
0.7
0.69
0.69
0.69
0.68
0.68
0.75
0.76
0.6
0.61
0.68
0.67
0.66
0.66
0.66
0.71
0.6
0.56
0.68
0.6
0.66
0.62
0.62
0.61
0.62
0.62
0.61
0.63
0.63
0.64
0.64
0.65
0.7
0.79
0.8
0.82
0.83
0.85
0.86
0.82
0.82
0.85
0.83
0.85
0.81
0.82
0.81
0.78
0.79
0.8
0.78
0.81
0.82
0.79
0.81
0.76
0.75
0.75
0.73
0.71
0.7
0.7
0.71
0.7
0.71
0.71
0.72
0.73
0.73
0.74
0.74
0.75
0.74
0.77
0.76
0.77
0.78
0.79
0.82
0.83
0.86
0.88
0.89
0.88
0.87
0.86
0.86
0.84
0.83
0.79
0.79
0.77
0.77
0.77
0.77
0.76
0.79
0.81
0.77
0.75
0.79
0.74
0.71
0.71
0.7
0.7
0.68
0.68
0.69
0.67
0.67
0.67
0.67
0.66
0.67
0.67
0.67
0.67
0.67
0.67
0.67
0.66
0.66
0.67
0.67
0.68
0.71
0.75
0.76
0.8
0.8
0.82
0.8
0.82
0.79
0.79
0.76
0.76
0.75
0.75
0.74
0.74
0.76
0.77
0.77
0.77
0.78
0.76
0.78
0.78
0.76
0.76
0.75
0.74
0.75
0.73
0.74
0.71
0.72
0.72
0.71
0.71
0.72
0.73
0.75
0.74
0.77
0.78
0.82
0.81
0.82
0.82
0.86
0.85
0.82
0.83
0.81
0.82
0.82
0.78
0.77
0.77
0.74
0.75
0.74
0.74
0.72
0.74
0.74
0.76
0.73
0.77
0.79
0.74
0.76
0.74
0.74
0.73
0.72
0.7
0.72
0.72
0.72
0.75
0.76
0.78
0.81
0.81
0.84
0.84
0.84
0.84
0.82
0.85
0.83
0.82
0.82
0.82
0.8
0.82
0.81
0.81
0.83
0.81
0.81
0.79
0.79
0.78
0.76
0.76
0.75
0.74
0.76
0.75
0.75
0.78
0.76
0.76
0.78
0.75
0.77
0.76
0.76
0.75
0.75
0.75
0.75
0.75
0.75
0.75
0.76
0.76
0.76
0.76
0.79
0.78
0.77
0.77
0.77
0.79
0.77
0.8
0.83
0.81
0.85
0.87
0.86
0.85
0.89
0.86
0.82
0.81
0.83
0.81
0.78
0.76
0.77
0.75
0.73
0.75
0.75
0.75
0.74
0.74
0.74
0.74
0.74
0.74
0.73
0.75
0.75
0.75
0.74
0.76
0.78
0.79
0.83
0.84
0.85
0.88
0.86
0.85
0.86
0.84
0.83
0.82
0.8
0.79
0.78
0.78
0.79
0.78
0.77
0.78
0.79
0.77
0.78
0.79
0.79
0.78
0.79
0.79
0.78
0.81
0.83
0.83
0.8
0.75
0.74
0.71
0.72
0.72
0.72
0.73
0.75
0.77
0.76
0.76
0.78
0.78
0.78
0.78
0.79
0.78
0.78
0.79
0.76
0.77
0.77
0.77
0.77
0.78
0.79
0.79
0.79
0.8
0.81
0.78
0.8
0.8
0.8
0.8
0.81
0.82
0.82
0.85
0.83
0.83
0.79
0.79
0.77
0.78
0.79
0.78
0.79
0.79
0.77
0.79
0.78
0.75
0.74
0.74
0.72
0.73
0.73
0.72
0.73
0.73
0.72
0.73
0.73
0.73
0.72
0.72
0.74
0.73
0.76
0.75
0.77
0.78
0.8
0.81
0.83
0.86
0.84
0.88
0.89
0.89
0.91
0.9
0.9
0.88
0.88
0.88
0.86
0.86
0.85
0.84
0.83
0.83
0.82
0.82
0.8
0.77
0.78
0.8
0.8
0.79
0.81
0.83
0.79
0.79
0.81
0.8
0.78
0.83
0.78
0.79
0.83
0.78
0.81
0.78
0.76
0.75
0.74
0.73
0.72
0.71
0.7
0.71
0.7
0.71
0.7
0.72
0.73
0.75
0.78
0.78
0.81
0.79
0.81
0.8
0.81
0.79
0.8
0.82
0.82
0.79
0.82
0.8
0.8
0.77
0.74
0.71
0.67
0.78
0.78
0.7
0.68
0.68
0.67
0.69
0.71
0.74
0.75
0.78
0.83
0.87
0.91
0.9
0.88
0.9
0.86
0.83
0.82
0.81
0.78
0.79
0.77
0.76
0.77
0.79
0.8
0.79
0.82
0.82
0.79
0.81
0.77
0.76
0.76
0.74
0.74
0.74
0.74
0.75
0.75
0.74
0.76
0.75
0.75
0.75
0.75
0.75
0.76
0.77
0.78
0.8
0.79
0.83
0.84
0.84
0.79
0.8
0.93
0.94
0.87
0.88
0.86
0.82
0.83
0.83
0.82
0.82
0.82
0.83
0.79
0.79
0.78
0.77
0.77
0.74
0.76
0.77
0.77
0.77
0.78
0.8
0.8
0.78
0.81
0.77
0.77
0.8
0.84
0.77
0.79
0.76
0.76
0.74
0.74
0.72
0.72
0.72
0.72
0.71
0.72
0.72
0.72
0.72
0.74
0.73
0.76
0.77
0.82
0.79
0.83
0.86
0.84
0.95
0.9
0.94
0.86
0.84
0.85
0.82
0.81
0.81
0.8
0.8
0.79
0.8
0.78
0.77
0.77
0.79
0.85
0.8
0.8
0.8
0.79
0.8
0.79
0.86
0.82
0.81
0.86
0.89
0.83
0.83
0.83
0.78
0.82
0.84
0.79
0.78
0.77
0.78
0.72
0.73
0.72
0.72
0.72
0.72
0.73
0.74
0.73
0.74
0.74
0.76
0.77
0.78
0.79
0.8
0.8
0.8
0.82
0.8
0.82
0.85
0.82
0.86
0.84
0.84
0.83
0.83
0.82
0.8
0.8
0.79
0.78
0.78
0.76
0.76
0.77
0.76
0.78
0.77
0.79
0.79
0.77
0.79
0.79
0.8
0.81
0.79
0.81
0.81
0.82
0.8
0.82
0.79
0.81
0.84
0.78
0.77
0.75
0.74
0.72
0.73
0.74
0.72
0.72
0.73
0.72
0.73
0.72
0.72
0.72
0.73
0.73
0.73
0.73
0.73
0.74
0.76
0.78
0.83
0.86
0.86
0.94
0.92
0.94
0.87
0.87
0.83
0.82
0.81
0.79
0.77
0.75
0.74
0.74
0.74
0.74
0.75
0.74
0.75
0.75
0.76
0.77
0.79
0.76
0.77
0.79
0.78
0.76
0.8
0.82
0.8
0.8
0.79
0.77
0.78
0.83
0.79
0.82
0.83
0.8
0.81
0.76
0.76
0.75
0.74
0.74
0.72
0.7
0.71
0.71
0.71
0.71
0.72
0.72
0.75
0.76
0.76
0.76
0.79
0.78
0.79
0.8
0.88
0.87
0.89
0.88
0.89
0.87
0.86
0.82
0.83
0.82
0.81
0.81
0.78
0.77
0.76
0.76
0.76
0.76
0.76
0.75
0.77
0.79
0.79
0.77
0.79
0.79
0.77
0.79
0.81
0.8
0.8
0.81
0.78
0.78
0.79
0.79
0.77
0.8
0.81
0.79
0.75
0.75
0.72
0.71
0.71
0.7
0.7
0.71
0.71
0.7
0.71
0.7
0.71
0.71
0.72
0.72
0.77
0.75
0.74
0.75
0.76
0.79
0.78
0.79
0.82
0.83
0.81
0.84
0.86
0.85
0.85
0.84
0.81
0.8
0.79
0.78
0.78
0.8
0.77
0.76
0.76
0.77
0.76
0.79
0.84
0.82
0.8
0.81
0.83
0.82
0.8
0.78
0.8
0.8
0.79
0.81
0.78
0.79
0.81
0.82
0.78
0.82
0.77
0.76
0.74
0.73
0.7
0.69
0.69
0.69
0.68
0.7
0.69
0.71
0.71
0.73
0.75
0.76
0.78
0.79
0.81
0.83
0.8
0.87
0.9
0.88
0.86
0.86
0.86
0.82
0.83
0.84
0.83
0.82
0.8
0.79
0.79
0.76
0.76
0.86
0.82
0.84
0.86
0.8
0.8
0.83
0.8
0.81
0.84
0.88
0.82
0.82
0.83
0.79
0.84
0.87
0.84
0.79
0.83
0.77
0.75
0.74
0.72
0.72
0.71
0.7
0.7
0.7
0.7
0.7
0.7
0.72
0.73
0.75
0.76
0.78
0.8
0.77
0.79
0.8
0.79
0.77
0.82
0.85
0.88
0.84
0.86
0.89
0.86
0.84
0.85
0.84
0.86
0.82
0.8
0.81
0.79
0.79
0.82
0.8
0.78
0.8
0.84
0.84
0.79
0.79
0.8
0.78
0.78
0.81
0.82
0.8
0.8
0.79
0.77
0.79
0.76
0.75
0.73
0.73
0.72
0.73
0.71
0.72
0.72
0.72
0.74
0.75
0.75
0.75
0.76
0.76
0.76
0.74
0.75
0.76
0.78
0.77
0.8
0.81
0.83
0.83
0.84
0.82
0.82
0.81
0.81
0.79
0.79
0.77
0.75
0.74
0.76
0.76
0.76
0.78
0.79
0.81
0.79
0.81
0.82
0.8
0.81
0.83
0.81
0.79
0.82
0.77
0.78
0.82
0.82
0.77
0.76
0.71
0.71
0.7
0.69
0.7
0.69
0.71
0.71
0.71
0.71
0.72
0.72
0.73
0.75
0.75
0.79
0.8
0.84
0.81
0.84
0.87
0.89
0.87
0.97
0.92
0.88
0.9
0.87
0.82
0.82
0.81
0.79
0.78
0.79
0.78
0.77
0.77
0.78
0.8
0.77
0.81
0.8
0.82
0.81
0.84
0.81
0.82
0.85
0.81
0.81
0.79
0.78
0.81
0.76
0.81
0.82
0.79
0.79
0.75
0.75
0.73
0.72
0.72
0.72
0.71
0.72
0.71
0.71
0.72
0.72
0.73
0.72
0.74
0.74
0.75
0.75
0.75
0.76
0.76
0.78
0.77
0.78
0.81
0.84
0.8
0.84
0.91
0.95
0.9
0.84
0.81
0.79
0.77
0.77
0.77
0.75
0.74
0.74
0.74
0.74
0.78
0.74
0.77
0.77
0.78
0.77
0.8
0.8
0.78
0.81
0.78
0.79
0.84
0.78
0.79
0.76
0.73
0.73
0.74
0.64
0.68
0.68
0.66
0.64
0.65
0.63
0.62
0.62
0.61
0.62
0.61
0.61
0.61
0.63
0.72
0.73
0.77
0.79
0.85
0.89
0.91
0.91
0.93
0.96
0.93
0.94
0.93
0.91
0.92
0.9
0.88
0.87
0.86
0.85
0.84
0.83
0.82
0.81
0.81
0.8
0.77
0.79
0.77
0.75
0.73
0.73
0.74
0.73
0.74
0.72
0.73
0.72
0.71
0.71
0.71
0.72
0.73
0.76
0.77
0.77
0.82
0.84
0.86
0.84
0.85
0.84
0.81
0.81
0.81
0.82
0.8
0.79
0.78
0.76
0.75
0.75
0.74
0.75
0.78
0.78
0.76
0.76
0.78
0.78
0.77
0.81
0.81
0.78
0.82
0.78
0.76
0.75
0.75
0.73
0.73
0.73
0.72
0.74
0.73
0.73
0.74
0.74
0.73
0.73
0.73
0.72
0.72
0.73
0.73
0.73
0.74
0.75
0.76
0.76
0.77
0.77
0.78
0.76
0.74
0.73
0.72
0.71
0.69
0.68
0.67
0.67
0.65
0.65
0.65
0.64
0.64
0.65
0.65
0.66
0.66
0.68
0.68
0.7
0.68
0.7
0.69
0.69
0.68
0.69
0.67
0.68
0.67
0.67
0.68
0.68
0.7
0.73
0.75
0.77
0.79
0.8
0.8
0.8
0.79
0.77
0.75
0.75
0.72
0.71
0.7
0.7
0.7
0.7
0.7
0.69
0.7
0.69
0.71
0.7
0.72
0.72
0.73
0.73
0.73
0.73
0.73
0.75
0.76
0.76
0.77
0.76
0.76
0.77
0.76
0.75
0.73
0.75
0.73
0.74
0.72
0.73
0.73
0.72
0.72
0.71
0.72
0.7
0.69
0.7
0.69
0.71
0.72
0.72
0.75
0.74
0.74
0.74
0.74
0.73
0.7
0.71
0.72
0.71
0.71
0.71
0.71
0.72
0.72
0.73
0.73
0.75
0.74
0.75
0.76
0.77
0.78
0.77
0.78
0.77
0.79
0.77
0.79
0.8
0.78
0.8
0.78
0.78
0.77
0.77
0.76
0.77
0.77
0.79
0.78
0.8
0.79
0.8
0.78
0.78
0.76
0.74
0.74
0.73
0.72
0.71
0.72
0.73
0.75
0.74
0.76
0.76
0.75
0.73
0.73
0.7
0.71
0.71
0.74
0.77
0.77
0.78
0.79
0.81
0.8
0.8
0.81
0.81
0.81
0.81
0.79
0.81
0.81
0.79
0.8
0.84
0.82
0.88
0.9
0.88
0.89
0.88
0.87
0.87
0.85
0.84
0.83
0.78
0.76
0.75
0.73
0.74
0.74
0.72
0.73
0.76
0.73
0.78
0.8
0.75
0.73
0.72
0.73
0.73
0.73
0.73
0.73
0.73
0.73
0.74
0.74
0.77
0.77
0.78
0.79
0.8
0.81
0.8
0.82
0.82
0.81
0.82
0.83
0.79
0.81
0.8
0.8
0.82
0.82
0.85
0.84
0.84
0.83
0.85
0.82
0.79
0.78
0.78
0.76
0.75
0.75
0.75
0.73
0.75
0.74
0.74
0.77
0.75
0.76
0.78
0.77
0.76
0.76
0.78
0.75
0.75
0.77
0.74
0.75
0.74
0.71
0.7
0.7
0.7
0.7
0.71
0.71
0.71
0.72
0.73
0.73
0.73
0.74
0.74
0.76
0.78
0.77
0.76
0.78
0.78
0.76
0.79
0.8
0.78
0.85
0.87
0.85
0.83
0.81
0.8
0.79
0.78
0.76
0.76
0.75
0.73
0.75
0.74
0.73
0.73
0.74
0.74
0.75
0.73
0.76
0.76
0.74
0.75
0.78
0.77
0.77
0.83
0.81
0.83
0.81
0.81
0.76
0.77
0.74
0.73
0.73
0.72
0.71
0.7
0.71
0.69
0.69
0.7
0.69
0.71
0.71
0.72
0.73
0.75
0.76
0.77
0.78
0.8
0.79
0.8
0.78
0.78
0.76
0.75
0.75
0.73
0.74
0.73
0.72
0.72
0.74
0.74
0.73
0.74
0.74
0.76
0.76
0.76
0.75
0.74
0.75
0.76
0.78
0.76
0.77
0.77
0.76
0.76
0.78
0.75
0.75
0.77
0.75
0.76
0.79
0.79
0.77
0.79
0.76
0.77
0.78
0.78
0.76
0.74
0.7
0.7
0.7
0.7
0.69
0.7
0.7
0.69
0.7
0.7
0.71
0.71
0.71
0.73
0.72
0.75
0.77
0.75
0.77
0.77
0.79
0.77
0.77
0.77
0.79
0.78
0.81
0.82
0.86
0.84
0.84
0.82
0.82
0.81
0.79
0.78
0.77
0.74
0.74
0.72
0.73
0.74
0.76
0.75
0.76
0.79
0.78
0.78
0.79
0.78
0.78
0.77
0.79
0.74
0.77
0.74
0.74
0.73
0.71
0.71
0.7
0.69
0.69
0.69
0.7
0.69
0.71
0.71
0.73
0.75
0.77
0.77
0.82
0.82
0.8
0.85
0.85
0.83
0.85
0.83
0.82
0.82
0.85
0.83
0.8
0.8
0.8
0.78
0.78
0.76
0.76
0.77
0.76
0.76
0.78
0.8
0.8
0.79
0.8
0.78
0.77
0.79
0.78
0.76
0.78
0.8
0.76
0.77
0.79
0.77
0.79
0.79
0.75
0.74
0.72
0.71
0.7
0.7
0.7
0.7
0.69
0.7
0.7
0.71
0.69
0.72
0.71
0.72
0.72
0.72
0.73
0.73
0.75
0.75
0.76
0.76
0.77
0.78
0.78
0.78
0.8
0.78
0.79
0.8
0.8
0.79
0.79
0.79
0.78
0.78
0.79
0.77
0.77
0.76
0.76
0.75
0.75
0.75
0.76
0.74
0.74
0.77
0.76
0.75
0.79
0.79
0.8
0.78
0.82
0.78
0.79
0.79
0.75
0.78
0.79
0.75
0.74
0.74
0.73
0.73
0.72
0.72
0.72
0.72
0.72
0.71
0.71
0.72
0.74
0.72
0.74
0.74
0.75
0.76
0.78
0.8
0.81
0.78
0.82
0.82
0.85
0.81
0.84
0.86
0.85
0.83
0.84
0.82
0.83
0.82
0.79
0.78
0.78
0.78
0.75
0.75
0.76
0.76
0.76
0.76
0.79
0.79
0.79
0.78
0.81
0.79
0.76
0.8
0.76
0.8
0.84
0.78
0.83
0.88
0.79
0.78
0.75
0.74
0.72
0.7
0.71
0.69
0.69
0.69
0.69
0.7
0.7
0.7
0.73
0.72
0.74
0.74
0.77
0.75
0.75
0.78
0.78
0.75
0.76
0.77
0.76
0.76
0.78
0.8
0.81
0.79
0.77
0.76
0.77
0.77
0.75
0.75
0.75
0.75
0.73
0.75
0.75
0.75
0.74
0.75
0.78
0.78
0.76
0.77
0.78
0.77
0.78
0.81
0.82
0.8
0.82
0.76
0.77
0.76
0.77
0.71
0.7
0.69
0.7
0.69
0.68
0.69
0.7
0.69
0.71
0.72
0.71
0.72
0.72
0.73
0.74
0.73
0.74
0.76
0.74
0.73
0.75
0.73
0.76
0.76
0.79
0.78
0.79
0.8
0.79
0.81
0.81
0.83
0.8
0.78
0.78
0.79
0.77
0.75
0.74
0.77
0.78
0.79
0.8
0.79
0.77
0.77
0.8
0.81
0.81
0.79
0.82
0.86
0.85
0.86
0.78
0.78
0.74
0.71
0.71
0.71
0.69
0.69
0.69
0.69
0.69
0.69
0.7
0.71
0.72
0.72
0.73
0.75
0.75
0.76
0.77
0.81
0.79
0.8
0.8
0.79
0.8
0.82
0.83
0.84
0.8
0.8
0.79
0.77
0.79
0.8
0.81
0.78
0.76
0.78
0.78
0.76
0.77
0.79
0.78
0.78
0.77
0.79
0.77
0.76
0.8
0.81
0.79
0.81
0.75
0.76
0.77
0.78
0.76
0.78
0.74
0.73
0.65
0.65
0.7
0.73
0.73
0.69
0.69
0.69
0.69
0.7
0.69
0.7
0.7
0.71
0.7
0.72
0.71
0.72
0.72
0.72
0.73
0.74
0.72
0.74
0.71
0.72
0.71
0.7
0.68
0.69
0.7
0.69
0.68
0.69
0.68
0.68
0.68
0.67
0.67
0.67
0.67
0.65
0.66
0.66
0.66
0.65
0.66
0.65
0.66
0.67
0.68
0.7
0.71
0.75
0.82
0.84
0.82
0.88
0.88
0.84
0.84
0.86
0.83
0.81
0.79
0.77
0.78
0.75
0.76
0.75
0.76
0.74
0.76
0.75
0.77
0.74
0.75
0.77
0.78
0.76
0.79
0.79
0.8
0.82
0.78
0.77
0.78
0.72
0.71
0.71
0.71
0.69
0.69
0.69
0.69
0.69
0.7
0.71
0.67
0.68
0.69
0.69
0.69
0.7
0.7
0.7
0.7
0.71
0.71
0.72
0.74
0.75
0.74
0.76
0.77
0.79
0.8
0.82
0.82
0.82
0.84
0.82
0.82
0.83
0.84
0.81
0.79
0.81
0.8
0.82
0.8
0.82
0.8
0.79
0.81
0.86
0.86
0.85
0.83
0.8
0.78
0.76
0.75
0.73
0.74
0.72
0.74
0.73
0.73
0.73
0.74
0.73
0.75
0.75
0.76
0.75
0.77
0.77
0.78
0.81
0.82
0.81
0.84
0.84
0.84
0.83
0.85
0.84
0.83
0.85
0.85
0.82
0.82
0.79
0.81
0.78
0.78
0.77
0.76
0.76
0.75
0.76
0.78
0.78
0.76
0.76
0.76
0.74
0.77
0.77
0.78
0.79
0.81
0.8
0.8
0.8
0.77
0.75
0.73
0.73
0.72
0.7
0.7
0.7
0.7
0.69
0.68
0.69
0.68
0.7
0.7
0.74
0.78
0.82
0.89
0.87
0.89
0.86
0.84
0.82
0.81
0.78
0.79
0.8
0.81
0.79
0.81
0.8
0.78
0.76
0.74
0.72
0.72
0.71
0.74
0.76
0.79
0.8
0.83
0.82
0.81
0.83
0.81
0.82
0.81
0.81
0.8
0.79
0.76
0.77
0.78
0.77
0.78
0.76
0.75
0.72
0.72
0.71
0.7
0.7
0.71
0.71
0.7
0.72
0.73
0.74
0.76
0.76
0.77
0.78
0.79
0.77
0.79
0.79
0.8
0.83
0.83
0.82
0.85
0.86
0.83
0.85
0.87
0.85
0.84
0.84
0.82
0.81
0.81
0.81
0.81
0.8
0.77
0.79
0.79
0.79
0.78
0.8
0.8
0.8
0.8
0.82
0.81
0.79
0.8
0.84
0.82
0.83
0.81
0.8
0.8
0.8
0.75
0.74
0.72
0.71
0.71
0.71
0.7
0.71
0.71
0.71
0.72
0.73
0.73
0.72
0.73
0.74
0.74
0.75
0.76
0.78
0.76
0.79
0.79
0.78
0.84
0.83
0.81
0.83
0.8
0.78
0.77
0.76
0.76
0.74
0.76
0.76
0.77
0.78
0.81
0.8
0.79
0.81
0.8
0.78
0.79
0.78
0.75
0.77
0.77
0.78
0.76
0.78
0.77
0.77
0.81
0.79
0.79
0.81
0.78
0.75
0.75
0.74
0.72
0.73
0.72
0.72
0.71
0.7
0.7
0.7
0.7
0.71
0.74
0.77
0.78
0.85
0.85
0.83
0.84
0.86
0.85
0.84
0.86
0.86
0.85
0.88
0.88
0.88
0.83
0.85
0.85
0.8
0.82
0.82
0.78
0.8
0.8
0.78
0.78
0.79
0.79
0.78
0.79
0.79
0.79
0.79
0.81
0.8
0.78
0.77
0.74
0.73
0.73
0.74
0.72
0.72
0.73
0.72
0.72
0.73
0.73
0.74
0.74
0.75
0.79
0.79
0.81
0.81
0.84
0.84
0.84
0.82
0.81
0.8
0.77
0.76
0.77
0.77
0.76
0.76
0.78
0.79
0.82
0.82
0.8
0.83
0.85
0.86
0.83
0.83
0.83
0.81
0.8
0.8
0.78
0.8
0.82
0.8
0.84
0.85
0.8
0.78
0.76
0.74
0.73
0.72
0.71
0.72
0.71
0.71
0.72
0.73
0.72
0.74
0.75
0.74
0.76
0.75
0.76
0.74
0.77
0.78
0.82
0.8
0.88
0.88
0.87
0.88
0.85
0.85
0.85
0.84
0.83
0.84
0.79
0.79
0.78
0.77
0.77
0.78
0.77
0.75
0.78
0.79
0.79
0.8
0.84
0.84
0.8
0.82
0.83
0.8
0.79
0.81
0.77
0.78
0.81
0.82
0.8
0.77
0.75
0.73
0.73
0.72
0.73
0.72
0.73
0.73
0.73
0.73
0.74
0.74
0.73
0.75
0.75
0.77
0.76
0.78
0.82
0.82
0.84
0.86
0.85
0.84
0.84
0.85
0.82
0.79
0.81
0.8
0.8
0.78
0.78
0.77
0.78
0.78
0.79
0.8
0.81
0.82
0.81
0.79
0.82
0.84
0.82
0.83
0.83
0.82
0.79
0.8
0.8
0.78
0.8
0.8
0.8
0.82
0.77
0.81
0.82
0.78
0.75
0.74
0.74
0.73
0.74
0.73
0.72
0.74
0.72
0.73
0.72
0.71
0.71
0.72
0.71
0.72
0.73
0.72
0.73
0.73
0.74
0.74
0.75
0.75
0.75
0.75
0.76
0.76
0.78
0.78
0.78
0.78
0.79
0.78
0.78
0.77
0.76
0.76
0.76
0.75
0.75
0.74
0.75
0.74
0.74
0.74
0.75
0.76
0.74
0.76
0.77
0.78
0.76
0.79
0.8
0.78
0.78
0.8
0.79
0.78
0.78
0.81
0.79
0.77
0.74
0.73
0.72
0.71
0.71
0.71
0.71
0.7
0.72
0.72
0.73
0.74
0.74
0.74
0.76
0.77
0.76
0.77
0.77
0.78
0.78
0.81
0.8
0.79
0.8
0.82
0.82
0.8
0.78
0.78
0.78
0.77
0.76
0.76
0.76
0.78
0.76
0.76
0.77
0.75
0.78
0.78
0.76
0.78
0.8
0.83
0.8
0.8
0.8
0.76
0.76
0.75
0.74
0.73
0.74
0.73
0.74
0.73
0.73
0.73
0.74
0.74
0.73
0.74
0.74
0.74
0.75
0.75
0.76
0.76
0.8
0.78
0.82
0.82
0.79
0.81
0.8
0.81
0.79
0.79
0.8
0.82
0.81
0.79
0.8
0.79
0.77
0.78
0.79
0.76
0.78
0.78
0.76
0.77
0.81
0.81
0.8
0.82
0.83
0.81
0.83
0.81
0.81
0.83
0.83
0.84
0.86
0.87
0.83
0.82
0.84
0.82
0.78
0.76
0.76
0.74
0.73
0.72
0.71
0.69
0.7
0.71
0.7
0.71
0.72
0.72
0.72
0.74
0.74
0.74
0.76
0.76
0.76
0.76
0.77
0.8
0.78
0.8
0.81
0.79
0.81
0.78
0.78
0.76
0.75
0.74
0.74
0.73
0.74
0.74
0.76
0.75
0.76
0.75
0.74
0.76
0.78
0.77
0.77
0.81
0.81
0.8
0.82
0.83
0.8
0.82
0.84
0.84
0.8
0.83
0.78
0.81
0.81
0.82
0.78
0.76
0.76
0.69
0.7
0.71
0.7
0.71
0.71
0.71
0.71
0.72
0.71
0.72
0.74
0.73
0.74
0.77
0.77
0.78
0.78
0.79
0.8
0.78
0.82
0.82
0.83
0.83
0.85
0.85
0.84
0.85
0.84
0.82
0.81
0.81
0.8
0.78
0.79
0.81
0.81
0.78
0.81
0.81
0.81
0.79
0.8
0.81
0.79
0.78
0.8
0.79
0.79
0.81
0.79
0.79
0.83
0.84
0.79
0.77
0.75
0.75
0.75
0.73
0.74
0.73
0.73
0.74
0.73
0.73
0.75
0.74
0.75
0.77
0.77
0.78
0.77
0.78
0.76
0.79
0.78
0.8
0.8
0.8
0.83
0.83
0.82
0.83
0.83
0.84
0.83
0.83
0.81
0.81
0.79
0.8
0.79
0.78
0.8
0.8
0.79
0.79
0.78
0.8
0.82
0.79
0.84
0.85
0.83
0.85
0.82
0.81
0.79
0.83
0.83
0.79
0.8
0.76
0.74
0.74
0.72
0.71
0.71
0.71
0.71
0.7
0.72
0.71
0.72
0.71
0.72
0.73
0.73
0.74
0.75
0.76
0.79
0.78
0.78
0.81
0.81
0.82
0.8
0.83
0.83
0.8
0.81
0.82
0.81
0.79
0.8
0.78
0.77
0.78
0.77
0.77
0.78
0.78
0.77
0.8
0.8
0.78
0.79
0.83
0.83
0.8
0.81
0.81
0.79
0.84
0.85
0.83
0.8
0.77
0.76
0.75
0.74
0.75
0.73
0.73
0.73
0.72
0.72
0.73
0.75
0.75
0.77
0.76
0.78
0.8
0.8
0.8
0.84
0.85
0.84
0.85
0.87
0.87
0.83
0.8
0.8
0.79
0.79
0.78
0.76
0.77
0.77
0.78
0.77
0.78
0.79
0.8
0.78
0.8
0.81
0.8
0.79
0.81
0.82
0.8
0.82
0.82
0.8
0.81
0.83
0.78
0.77
0.75
0.73
0.71
0.71
0.72
0.69
0.7
0.71
0.7
0.71
0.71
0.73
0.75
0.75
0.78
0.79
0.81
0.81
0.8
0.81
0.81
0.8
0.78
0.78
0.78
0.76
0.78
0.76
0.77
0.75
0.76
0.79
0.79
0.79
0.81
0.82
0.82
0.81
0.83
0.84
0.81
0.81
0.81
0.8
0.79
0.81
0.82
0.8
0.81
0.82
0.82
0.82
0.82
0.8
0.8
0.78
0.76
0.75
0.74
0.73
0.73
0.73
0.72
0.73
0.72
0.73
0.74
0.74
0.76
0.76
0.75
0.76
0.76
0.78
0.76
0.76
0.75
0.77
0.77
0.78
0.8
0.83
0.86
0.84
0.87
0.87
0.83
0.82
0.82
0.79
0.79
0.78
0.77
0.75
0.77
0.75
0.75
0.74
0.75
0.76
0.75
0.76
0.79
0.81
0.83
0.82
0.83
0.82
0.83
0.84
0.85
0.81
0.79
0.81
0.79
0.79
0.75
0.76
0.73
0.71
0.72
0.72
0.72
0.72
0.73
0.73
0.75
0.73
0.77
0.77
0.79
0.8
0.79
0.8
0.8
0.83
0.82
0.82
0.84
0.84
0.82
0.85
0.84
0.83
0.8
0.81
0.8
0.79
0.79
0.79
0.79
0.79
0.77
0.78
0.78
0.79
0.77
0.81
0.81
0.8
0.82
0.82
0.8
0.78
0.8
0.8
0.78
0.79
0.81
0.8
0.8
0.83
0.77
0.77
0.76
0.75
0.73
0.75
0.74
0.74
0.74
0.74
0.74
0.74
0.74
0.74
0.75
0.76
0.76
0.76
0.76
0.76
0.77
0.77
0.77
0.81
0.84
0.83
0.89
0.86
0.85
0.87
0.87
0.85
0.83
0.8
0.8
0.81
0.78
0.8
0.78
0.78
0.76
0.77
0.77
0.79
0.8
0.8
0.79
0.83
0.77
0.78
0.79
0.76
0.74
0.73
0.73
0.72
0.71
0.67
0.68
0.84
0.93
0.88
0.88
0.67
0.67
0.66
0.65
0.64
0.63
0.63
0.63
0.63
0.62
0.67
0.74
0.82
0.87
0.9
0.9
0.88
0.88
0.87
0.87
0.84
0.87
0.85
0.84
0.84
0.84
0.81
0.81
0.8
0.74
0.75
0.75
0.74
0.73
0.73
0.73
0.72
0.73
0.73
0.75
0.73
0.74
0.73
0.73
0.72
0.71
0.72
0.71
0.7
0.71
0.7
0.72
0.74
0.75
0.76
0.79
0.79
0.79
0.79
0.78
0.79
0.77
0.76
0.75
0.76
0.77
0.77
0.79
0.8
0.83
0.82
0.81
0.81
0.79
0.79
0.78
0.76
0.78
0.75
0.76
0.76
0.74
0.78
0.79
0.75
0.75
0.74
0.74
0.73
0.73
0.72
0.73
0.72
0.72
0.73
0.72
0.73
0.73
0.74
0.73
0.75
0.74
0.75
0.75
0.77
0.77
0.78
0.8
0.82
0.82
0.84
0.83
0.85
0.81
0.8
0.79
0.77
0.76
0.74
0.74
0.73
0.73
0.74
0.72
0.73
0.74
0.76
0.76
0.76
0.77
0.76
0.77
0.76
0.76
0.76
0.76
0.73
0.74
0.73
0.71
0.71
0.7
0.73
0.73
0.74
0.73
0.73
0.73
0.73
0.73
0.73
0.74
0.74
0.73
0.75
0.76
0.75
0.77
0.77
0.78
0.79
0.79
0.79
0.8
0.79
0.79
0.79
0.79
0.8
0.8
0.81
0.8
0.81
0.8
0.8
0.79
0.78
0.77
0.76
0.75
0.73
0.74
0.74
0.73
0.73
0.74
0.73
0.75
0.73
0.72
0.73
0.75
0.74
0.74
0.75
0.76
0.77
0.77
0.78
0.76
0.75
0.75
0.75
0.73
0.72
0.72
0.71
0.7
0.7
0.71
0.71
0.72
0.73
0.73
0.74
0.75
0.77
0.76
0.79
0.8
0.8
0.8
0.82
0.81
0.8
0.8
0.79
0.8
0.78
0.79
0.77
0.77
0.75
0.76
0.76
0.75
0.74
0.73
0.74
0.75
0.75
0.74
0.75
0.75
0.77
0.75
0.75
0.76
0.75
0.73
0.73
0.74
0.75
0.74
0.76
0.75
0.74
0.78
0.79
0.77
0.81
0.81
0.79
0.81
0.82
0.8
0.8
0.78
0.76
0.78
0.75
0.74
0.73
0.72
0.71
0.73
0.72
0.72
0.73
0.73
0.72
0.73
0.73
0.72
0.73
0.74
0.74
0.74
0.76
0.76
0.77
0.79
0.81
0.79
0.81
0.82
0.81
0.8
0.83
0.84
0.81
0.8
0.79
0.79
0.8
0.79
0.76
0.76
0.77
0.75
0.75
0.76
0.76
0.75
0.74
0.77
0.77
0.75
0.8
0.79
0.8
0.82
0.92
0.93
0.89
0.9
0.88
0.95
0.94
1.11
1.11
1.01
1.0
0.97
0.96
0.98
0.93
0.91
0.93
0.81
0.8
0.79
0.78
0.77
0.77
0.76
0.76
0.76
0.77
0.76
0.77
0.77
0.81
0.82
0.83
0.87
0.86
0.84
0.86
0.85
0.84
0.84
0.84
0.82
0.8
0.81
0.81
0.81
0.81
0.8
0.79
0.78
0.78
0.79
0.79
0.79
0.83
0.85
0.83
0.85
0.86
0.84
0.83
0.84
0.87
0.86
0.87
0.89
0.9
0.87
0.9
0.9
0.9
0.84
0.86
0.84
0.86
0.86
0.83
0.85
0.82
0.81
0.82
0.8
0.8
0.8
0.79
0.79
0.79
0.76
0.75
0.74
0.72
0.73
0.71
0.72
0.72
0.71
0.71
0.7
0.71
0.72
0.72
0.74
0.76
0.75
0.77
0.77
0.77
0.78
0.76
0.76
0.76
0.74
0.72
0.72
0.71
0.72
0.71
0.71
0.73
0.73
0.74
0.74
0.75
0.78
0.78
0.76
0.78
0.77
0.77
0.8
0.79
0.8
0.79
0.8
0.81
0.8
0.78
0.76
0.81
0.81
0.9
0.9
0.84
0.84
0.8
0.79
0.81
0.8
0.78
0.8
0.79
0.75
0.73
0.73
0.71
0.7
0.71
0.7
0.71
0.7
0.7
0.71
0.72
0.73
0.76
0.79
0.82
0.83
0.82
0.85
0.86
0.86
0.86
0.84
0.84
0.83
0.82
0.8
0.79
0.79
0.78
0.78
0.77
0.77
0.76
0.75
0.77
0.77
0.77
0.79
0.8
0.79
0.77
0.79
0.8
0.78
0.79
0.8
0.76
0.77
0.79
0.8
0.78
0.79
0.75
0.74
0.76
0.76
0.74
0.73
0.73
0.71
0.75
0.74
0.74
0.75
0.77
0.76
0.79
0.79
0.8
0.82
0.83
0.81
0.85
0.84
0.82
0.82
0.82
0.8
0.77
0.77
0.75
0.74
0.72
0.7
0.7
0.7
0.77
0.77
0.75
0.75
0.75
0.75
0.77
0.77
0.8
0.79
0.83
0.83
0.82
0.81
0.83
0.82
0.81
0.81
0.81
0.79
0.78
0.76
0.78
0.78
0.82
0.79
0.79
0.78
0.78
0.79
0.76
0.77
0.77
0.75
0.73
0.76
0.74
0.78
0.79
0.77
0.77
0.78
0.76
0.75
0.74
0.72
0.7
0.71
0.7
0.7
0.7
0.71
0.74
0.74
0.76
0.77
0.83
0.83
0.84
0.83
0.85
0.85
0.87
0.84
0.84
0.87
0.86
0.85
0.85
0.82
0.84
0.82
0.8
0.81
0.81
0.76
0.76
0.76
0.76
0.78
0.77
0.78
0.81
0.79
0.8
0.82
0.81
0.84
0.85
0.86
0.8
0.8
0.85
0.81
0.83
0.82
0.79
0.8
0.8
0.79
0.81
0.76
0.78
0.84
0.82
0.85
0.84
0.84
0.86
0.83
0.85
0.8
0.83
0.8
0.79
0.84
0.83
0.83
0.83
0.81
0.82
0.8
0.8
0.82
0.78
0.78
0.74
0.74
0.69
0.68
0.68
0.68
0.68
0.68
0.68
0.69
0.69
0.7
0.73
0.75
0.77
0.78
0.81
0.83
0.83
0.8
0.81
0.8
0.8
0.81
0.78
0.8
0.8
0.81
0.78
0.79
0.77
0.79
0.77
0.78
0.78
0.77
0.78
0.78
0.75
0.78
0.83
0.82
0.82
0.78
0.78
0.81
0.78
0.75
0.78
0.76
0.77
0.79
0.75
0.75
0.73
0.73
0.72
0.72
0.72
0.71
0.7
0.7
0.71
0.72
0.73
0.78
0.8
0.81
0.85
0.85
0.81
0.83
0.82
0.84
0.83
0.81
0.81
0.82
0.82
0.79
0.81
0.8
0.8
0.78
0.79
0.8
0.78
0.8
0.79
0.79
0.8
0.8
0.79
0.81
0.8
0.79
0.8
0.78
0.78
0.79
0.77
0.78
0.77
0.76
0.76
0.74
0.73
0.72
0.72
0.7
0.71
0.7
0.69
0.69
0.7
0.69
0.71
0.74
0.75
0.76
0.77
0.79
0.81
0.79
0.79
0.82
0.83
0.83
0.8
0.8
0.81
0.79
0.78
0.77
0.76
0.76
0.75
0.76
0.75
0.75
0.78
0.77
0.77
0.79
0.79
0.77
0.79
0.79
0.77
0.8
0.77
0.78
0.79
0.8
0.84
0.87
0.95
0.99
0.94
0.89
0.9
0.86
0.9
0.88
0.92
0.9
0.87
0.92
0.89
0.9
0.84
0.81
0.86
0.84
0.85
0.87
0.83
0.85
0.83
0.83
0.87
0.82
0.87
0.87
0.9
0.86
0.87
0.82
0.79
0.81
0.77
0.8
0.78
0.78
0.79
0.75
0.74
0.74
0.7
0.71
0.7
0.68
0.68
0.67
0.68
0.7
0.72
0.73
0.76
0.78
0.78
0.79
0.77
0.78
0.79
0.78
0.78
0.76
0.76
0.75
0.73
0.74
0.72
0.72
0.7
0.7
0.7
0.69
0.69
0.69
0.69
0.69
0.69
0.68
0.69
0.69
0.68
0.69
0.69
0.71
0.73
0.73
0.77
0.79
0.82
0.81
0.87
0.86
0.84
0.82
0.84
0.86
0.84
0.82
0.83
0.83
0.82
0.8
0.81
0.81
0.8
0.82
0.8
0.8
0.82
0.81
0.82
0.83
0.8
0.81
0.82
0.8
0.78
0.79
0.76
0.76
0.76
0.75
0.73
0.75
0.75
0.72
0.72
0.7
0.7
0.69
0.69
0.68
0.68
0.66
0.69
0.7
0.71
0.73
0.77
0.81
0.81
0.84
0.85
0.84
0.84
0.86
0.86
0.82
0.82
0.83
0.81
0.8
0.78
0.78
0.77
0.76
0.73
0.75
0.73
0.74
0.76
0.77
0.79
0.79
0.8
0.8
0.82
0.82
0.8
0.8
0.76
0.77
0.79
0.81
0.8
0.81
0.79
0.78
0.8
0.77
0.77
0.78
0.75
0.75
0.76
0.73
0.72
0.72
0.7
0.71
0.7
0.69
0.67
0.69
0.69
0.7
0.69
0.71
0.71
0.73
0.75
0.74
0.77
0.77
0.78
0.78
0.76
0.77
0.77
0.77
0.75
0.75
0.74
0.73
0.74
0.72
0.73
0.72
0.72
0.72
0.72
0.73
0.74
0.75
0.74
0.76
0.74
0.76
0.77
0.78
0.77
0.78
0.8
0.79
0.79
0.78
0.77
0.75
0.78
0.75
0.77
0.76
0.76
0.78
0.74
0.72
0.72
0.71
0.7
0.71
0.7
0.7
0.71
0.71
0.71
0.74
0.74
0.75
0.78
0.76
0.78
0.79
0.78
0.77
0.78
0.78
0.77
0.77
0.75
0.76
0.75
0.75
0.75
0.77
0.75
0.75
0.76
0.74
0.74
0.74
0.74
0.76
0.73
0.73
0.75
0.74
0.77
0.75
0.75
0.79
0.77
0.79
0.8
0.79
0.83
0.82
0.81
0.83
0.8
0.85
0.84
0.82
0.85
0.81
0.84
0.82
0.82
0.82
0.79
0.82
0.78
0.79
0.78
0.76
0.79
0.75
0.73
0.73
0.71
0.7
0.7
0.69
0.68
0.68
0.68
0.68
0.7
0.7
0.72
0.71
0.74
0.74
0.75
0.75
0.73
0.72
0.73
0.71
0.71
0.71
0.71
0.71
0.7
0.71
0.73
0.7
0.72
0.72
0.73
0.72
0.73
0.73
0.74
0.75
0.78
0.75
0.8
0.8
0.83
0.8
0.81
0.8
0.86
0.82
0.87
0.84
0.83
0.83
0.83
0.8
0.83
0.79
0.8
0.75
0.72
0.71
0.7
0.69
0.69
0.69
0.68
0.69
0.68
0.69
0.69
0.7
0.71
0.74
0.75
0.77
0.78
0.78
0.81
0.81
0.79
0.8
0.82
0.81
0.8
0.78
0.78
0.77
0.75
0.75
0.74
0.74
0.73
0.73
0.72
0.73
0.73
0.76
0.77
0.78
0.78
0.8
0.79
0.79
0.78
0.8
0.8
0.79
0.82
0.85
0.83
0.87
0.87
0.9
0.91
0.89
0.88
0.87
0.9
0.82
0.88
0.8
0.86
0.8
0.83
0.8
0.78
0.73
0.73
0.74
0.72
0.73
0.71
0.7
0.69
0.68
0.68
0.67
0.67
0.67
0.67
0.68
0.68
0.69
0.7
0.69
0.71
0.7
0.72
0.74
0.74
0.73
0.75
0.77
0.76
0.75
0.75
0.77
0.76
0.75
0.74
0.74
0.73
0.74
0.73
0.71
0.73
0.73
0.73
0.73
0.74
0.75
0.75
0.77
0.79
0.79
0.81
0.81
0.8
0.83
0.8
0.82
0.79
0.79
0.78
0.79
0.8
0.78
0.78
0.74
0.74
0.73
0.72
0.7
0.7
0.68
0.68
0.69
0.67
0.67
0.66
0.67
0.67
0.67
0.67
0.68
0.67
0.66
0.66
0.65
0.65
0.64
0.63
0.62
0.62
0.61
0.63
0.74
0.87
0.87
0.89
0.9
0.99
1.01
0.99
0.91
0.92
0.94
0.91
0.9
0.87
0.89
0.87
0.84
0.84
0.83
0.81
0.79
0.79
0.8
0.77
0.78
0.8
0.77
0.75
0.74
0.73
0.73
0.71
0.71
0.71
0.7
0.72
0.73
0.74
0.77
0.77
0.81
0.84
0.83
0.83
0.82
0.83
0.83
0.82
0.83
0.81
0.83
0.82
0.8
0.79
0.77
0.77
0.73
0.73
0.73
0.72
0.73
0.74
0.76
0.75
0.74
0.75
0.75
0.77
0.77
0.8
0.78
0.82
0.81
0.81
0.83
0.81
0.79
0.79
0.76
0.78
0.76
0.74
0.77
0.75
0.74
0.76
0.73
0.72
0.72
0.72
0.7
0.7
0.7
0.69
0.7
0.7
0.7
0.69
0.7
0.71
0.71
0.74
0.75
0.78
0.76
0.79
0.79
0.77
0.79
0.79
0.78
0.76
0.76
0.75
0.75
0.72
0.74
0.72
0.74
0.74
0.73
0.74
0.74
0.76
0.77
0.78
0.79
0.78
0.77
0.8
0.79
0.8
0.81
0.83
0.85
0.82
0.86
0.83
0.87
0.86
0.84
0.86
0.81
0.85
0.82
0.8
0.84
0.84
0.85
0.82
0.84
0.83
0.8
0.83
0.79
0.8
0.82
0.8
0.84
0.81
0.84
0.86
0.82
0.84
0.8
0.82
0.79
0.75
0.79
0.78
0.79
0.79
0.78
0.82
0.8
0.79
0.78
0.78
0.77
0.76
0.73
0.72
0.71
0.7
0.7
0.7
0.69
0.68
0.69
0.68
0.69
0.69
0.7
0.71
0.72
0.71
0.71
0.72
0.71
0.73
0.71
0.71
0.72
0.72
0.72
0.72
0.71
0.7
0.7
0.72
0.74
0.74
0.73
0.74
0.74
0.74
0.77
0.77
0.78
0.8
0.77
0.81
0.78
0.78
0.79
0.76
0.77
0.74
0.72
0.72
0.7
0.69
0.7
0.68
0.68
0.68
0.68
0.69
0.69
0.72
0.76
0.76
0.78
0.8
0.79
0.83
0.84
0.81
0.82
0.82
0.82
0.81
0.81
0.8
0.8
0.8
0.77
0.79
0.76
0.77
0.74
0.76
0.75
0.75
0.73
0.77
0.73
0.74
0.77
0.79
0.75
0.76
0.74
0.74
0.73
0.73
0.72
0.68
0.73
0.72
0.73
0.74
0.76
0.79
0.8
0.79
0.79
0.79
0.81
0.79
0.78
0.78
0.77
0.77
0.76
0.75
0.75
0.73
0.73
0.73
0.72
0.71
0.71
0.71
0.7
0.7
0.71
0.7
0.71
0.74
0.73
0.73
0.76
0.77
0.73
0.73
0.73
0.71
0.7
0.69
0.68
0.67
0.66
0.67
0.68
0.7
0.71
0.71
0.7
0.69
0.71
0.71
0.73
0.76
0.75
0.76
0.77
0.79
0.78
0.78
0.78
0.77
0.75
0.75
0.77
0.75
0.73
0.74
0.73
0.73
0.72
0.73
0.72
0.71
0.72
0.71
0.71
0.75
0.75
0.76
0.82
0.8
0.82
0.82
0.83
0.8
0.81
0.79
0.81
0.8
0.81
0.82
0.81
0.82
0.84
0.81
0.81
0.8
0.8
0.77
0.76
0.75
0.75
0.74
0.72
0.72
0.71
0.72
0.7
0.7
0.73
0.73
0.74
0.75
0.79
0.79
0.78
0.79
0.8
0.79
0.8
0.79
0.77
0.76
0.77
0.74
0.72
0.72
0.71
0.71
0.72
0.72
0.7
0.72
0.72
0.72
0.71
0.73
0.72
0.71
0.73
0.74
0.72
0.73
0.76
0.74
0.74
0.75
0.76
0.75
0.73
0.76
0.73
0.73
0.77
0.73
0.72
0.72
0.7
0.72
0.72
0.71
0.7
0.71
0.72
0.72
0.73
0.72
0.74
0.72
0.75
0.75
0.75
0.76
0.78
0.77
0.77
0.78
0.77
0.76
0.76
0.75
0.77
0.77
0.76
0.76
0.76
0.75
0.75
0.75
0.73
0.76
0.77
0.77
0.75
0.76
0.77
0.77
0.74
0.75
0.76
0.74
0.76
0.79
0.79
0.8
0.79
0.81
0.79
0.79
0.76
0.77
0.74
0.72
0.73
0.71
0.69
0.69
0.68
0.67
0.68
0.67
0.68
0.69
0.7
0.73
0.74
0.77
0.78
0.78
0.78
0.8
0.8
0.79
0.8
0.8
0.79
0.76
0.77
0.75
0.77
0.78
0.79
0.78
0.78
0.78
0.78
0.77
0.76
0.75
0.76
0.77
0.78
0.76
0.76
0.75
0.75
0.74
0.74
0.76
0.74
0.73
0.73
0.75
0.74
0.74
0.77
0.78
0.76
0.76
0.77
0.75
0.78
0.78
0.76
0.77
0.75
0.73
0.72
0.71
0.71
0.69
0.69
0.7
0.69
0.69
0.69
0.69
0.69
0.71
0.7
0.72
0.71
0.73
0.73
0.74
0.74
0.75
0.76
0.76
0.75
0.76
0.75
0.74
0.74
0.74
0.74
0.73
0.73
0.72
0.72
0.7
0.7
0.7
0.7
0.69
0.69
0.69
0.71
0.71
0.7
0.72
0.72
0.71
0.72
0.72
0.71
0.72
0.74
0.72
0.71
0.72
0.73
0.72
0.72
0.76
0.73
0.73
0.77
0.73
0.77
0.77
0.75
0.73
0.73
0.72
0.71
0.72
0.71
0.72
0.73
0.74
0.75
0.77
0.78
0.78
0.8
0.81
0.78
0.79
0.8
0.78
0.77
0.79
0.8
0.79
0.76
0.78
0.8
0.78
0.77
0.77
0.77
0.77
0.76
0.77
0.76
0.75
0.75
0.74
0.73
0.73
0.76
0.77
0.76
0.79
0.8
0.78
0.8
0.81
0.8
0.79
0.8
0.75
0.76
0.73
0.72
0.71
0.71
0.69
0.68
0.69
0.68
0.69
0.68
0.68
0.69
0.7
0.71
0.71
0.73
0.72
0.73
0.74
0.75
0.75
0.74
0.75
0.75
0.76
0.75
0.76
0.76
0.74
0.73
0.74
0.73
0.74
0.74
0.73
0.72
0.73
0.71
0.72
0.73
0.72
0.72
0.72
0.73
0.71
0.72
0.72
0.71
0.72
0.72
0.72
0.72
0.74
0.73
0.74
0.74
0.75
0.73
0.72
0.75
0.77
0.78
0.75
0.76
0.73
0.73
0.71
0.71
0.7
0.68
0.7
0.68
0.68
0.69
0.68
0.69
0.69
0.69
0.7
0.68
0.69
0.69
0.7
0.7
0.71
0.71
0.73
0.74
0.75
0.75
0.76
0.75
0.76
0.75
0.75
0.75
0.76
0.74
0.74
0.73
0.73
0.73
0.73
0.75
0.73
0.72
0.72
0.72
0.75
0.73
0.74
0.75
0.78
0.75
0.74
0.76
0.73
0.75
0.74
0.77
0.78
0.75
0.73
0.71
0.72
0.7
0.69
0.68
0.68
0.68
0.67
0.68
0.68
0.71
0.73
0.76
0.76
0.79
0.86
0.84
0.84
0.85
0.84
0.82
0.81
0.8
0.78
0.78
0.77
0.77
0.76
0.74
0.75
0.75
0.75
0.75
0.74
0.74
0.75
0.75
0.73
0.75
0.74
0.73
0.74
0.75
0.74
0.74
0.75
0.74
0.74
0.77
0.74
0.74
0.76
0.73
0.73
0.8
0.78
0.75
0.8
0.75
0.73
0.72
0.7
0.7
0.7
0.68
0.69
0.67
0.68
0.68
0.68
0.67
0.67
0.68
0.67
0.66
0.67
0.67
0.66
0.67
0.68
0.67
0.67
0.69
0.71
0.72
0.71
0.76
0.77
0.79
0.79
0.78
0.77
0.78
0.76
0.76
0.74
0.74
0.74
0.73
0.73
0.72
0.72
0.71
0.72
0.72
0.72
0.72
0.74
0.78
0.75
0.76
0.8
0.76
0.76
0.78
0.8
0.78
0.78
0.81
0.75
0.76
0.75
0.77
0.77
0.75
0.72
0.72
0.7
0.69
0.69
0.68
0.67
0.69
0.7
0.66
0.67
0.68
0.62
0.63
0.78
0.68
0.68
0.69
0.69
0.69
0.7
0.72
0.72
0.72
0.73
0.72
0.72
0.72
0.71
0.7
0.7
0.69
0.7
0.7
0.72
0.73
0.77
0.79
0.76
0.78
0.78
0.78
0.78
0.79
0.77
0.8
0.79
0.77
0.77
0.76
0.77
0.75
0.75
0.76
0.75
0.75
0.76
0.77
0.76
0.77
0.8
0.8
0.78
0.82
0.81
0.81
0.84
0.84
0.82
0.83
0.83
0.81
0.81
0.81
0.82
0.79
0.78
0.8
0.78
0.78
0.79
0.77
0.78
0.8
0.77
0.77
0.79
0.78
0.76
0.78
0.8
0.78
0.78
0.79
0.8
0.8
0.78
0.78
0.79
0.75
0.79
0.78
0.76
0.78
0.81
0.78
0.78
0.79
0.78
0.76
0.77
0.75
0.73
0.75
0.74
0.73
0.75
0.76
0.74
0.72
0.7
0.71
0.71
0.69
0.71
0.69
0.69
0.69
0.69
0.69
0.69
0.7
0.71
0.72
0.73
0.74
0.75
0.78
0.78
0.76
0.77
0.77
0.78
0.78
0.78
0.8
0.81
0.81
0.81
0.82
0.82
0.81
0.81
0.79
0.77
0.75
0.76
0.75
0.76
0.75
0.74
0.75
0.73
0.74
0.73
0.71
0.72
0.74
0.74
0.72
0.74
0.77
0.74
0.74
0.73
0.73
0.71
0.7
0.69
0.69
0.7
0.71
0.71
0.72
0.84
0.84
0.82
0.83
0.83
0.85
0.86
0.84
0.86
0.87
0.85
0.83
0.83
0.83
0.81
0.78
0.77
0.79
0.79
0.77
0.78
0.79
0.78
0.79
0.84
0.84
0.81
0.8
0.82
0.79
0.79
0.8
0.79
0.77
0.78
0.78
0.79
0.77
0.76
0.77
0.78
0.76
0.78
0.8
0.8
0.78
0.79
0.78
0.76
0.76
0.77
0.78
0.75
0.74
0.75
0.74
0.74
0.73
0.73
0.74
0.73
0.73
0.75
0.77
0.75
0.78
0.78
0.79
0.76
0.78
0.78
0.79
0.77
0.77
0.76
0.77
0.74
0.75
0.74
0.72
0.72
0.72
0.73
0.73
0.73
0.74
0.75
0.76
0.74
0.75
0.75
0.77
0.77
0.75
0.76
0.78
0.76
0.76
0.77
0.79
0.77
0.77
0.78
0.79
0.79
0.76
0.76
0.76
0.78
0.75
0.75
0.77
0.78
0.75
0.75
0.75
0.75
0.74
0.76
0.77
0.76
0.75
0.76
0.76
0.76
0.75
0.75
0.74
0.76
0.74
0.74
0.74
0.75
0.76
0.74
0.73
0.74
0.74
0.73
0.74
0.73
0.75
0.72
0.74
0.75
0.76
0.74
0.74
0.75
0.78
0.76
0.74
0.75
0.75
0.73
0.74
0.73
0.73
0.71
0.72
0.72
0.71
0.71
0.72
0.72
0.73
0.72
0.73
0.73
0.75
0.72
0.72
0.73
0.73
0.73
0.72
0.72
0.72
0.73
0.72
0.72
0.73
0.73
0.71
0.73
0.74
0.75
0.73
0.74
0.74
0.76
0.72
0.74
0.73
0.73
0.75
0.73
0.72
0.74
0.74
0.73
0.72
0.76
0.74
0.74
0.73
0.74
0.74
0.74
0.74
0.75
0.74
0.77
0.74
0.77
0.75
0.73
0.72
0.74
0.73
0.75
0.73
0.73
0.75
0.76
0.77
0.75
0.76
0.76
0.76
0.74
0.75
0.74
0.75
0.73
0.74
0.74
0.73
0.71
0.72
0.72
0.73
0.72
0.73
0.73
0.73
0.75
0.72
0.74
0.74
0.74
0.73
0.72
0.72
0.72
0.72
0.71
0.72
0.72
0.72
0.72
0.72
0.72
0.73
0.72
0.73
0.73
0.74
0.73
0.72
0.74
0.74
0.73
0.73
0.73
0.73
0.72
0.72
0.72
0.73
0.73
0.71
0.73
0.73
0.72
0.71
0.73
0.71
0.73
0.72
0.73
0.73
0.73
0.72
0.72
0.73
0.74
0.73
0.72
0.75
0.75
0.76
0.75
0.76
0.74
0.75
0.72
0.73
0.73
0.73
0.71
0.71
0.73
0.73
0.74
0.73
0.74
0.75
0.77
0.75
0.75
0.76
0.75
0.74
0.74
0.73
0.73
0.73
0.72
0.73
0.72
0.73
0.72
0.72
0.73
0.73
0.72
0.72
0.73
0.73
0.74
0.72
0.73
0.73
0.72
0.72
0.73
0.72
0.73
0.72
0.72
0.73
0.72
0.73
0.71
0.73
0.72
0.74
0.72
0.74
0.74
0.74
0.74
0.74
0.74
0.72
0.73
0.74
0.74
0.75
0.73
0.73
0.73
0.72
0.72
0.72
0.73
0.72
0.72
0.72
0.75
0.74
0.73
0.73
0.73
0.74
0.72
0.74
0.73
0.74
0.73
0.73
0.74
0.74
0.73
0.73
0.73
0.73
0.72
0.72
0.73
0.73
0.72
0.72
0.73
0.73
0.72
0.73
0.73
0.75
0.74
0.74
0.74
0.75
0.73
0.74
0.73
0.73
0.72
0.71
0.72
0.72
0.73
0.71
0.72
0.71
0.73
0.73
0.71
0.72
0.73
0.72
0.72
0.72
0.73
0.72
0.72
0.73
0.73
0.75
0.73
0.74
0.75
0.77
0.74
0.74
0.75
0.74
0.74
0.73
0.75
0.75
0.74
0.73
0.75
0.74
0.72
0.73
0.74
0.73
0.72
0.72
0.71
0.72
0.72
0.71
0.72
0.72
0.71
0.71
0.72
0.71
0.71
0.71
0.71
0.72
0.73
0.71
0.73
0.72
0.73
0.71
0.71
0.72
0.71
0.7
0.7
0.7
0.72
0.71
0.7
0.71
0.7
0.71
0.71
0.7
0.7
0.71
0.71
0.71
0.71
0.71
0.72
0.71
0.71
0.72
0.71
0.71
0.71
0.71
0.71
0.71
0.7
0.71
0.71
0.71
0.72
0.71
0.72
0.71
0.73
0.71
0.71
0.72
0.73
0.72
0.72
0.72
0.73
0.73
0.72
0.72
0.72
0.72
0.73
0.71
0.72
0.73
0.73
0.73
0.72
0.73
0.72
0.73
0.72
0.72
0.72
0.72
0.72
0.71
0.71
0.72
0.7
0.72
0.71
0.71
0.71
0.73
0.72
0.74
0.72
0.72
0.73
0.73
0.71
0.73
0.72
0.72
0.71
0.71
0.71
0.73
0.72
0.72
0.73
0.74
0.73
0.72
0.73
0.72
0.74
0.71
0.72
0.72
0.72
0.71
0.72
0.72
0.73
0.73
0.72
0.72
0.73
0.72
0.71
0.71
0.73
0.72
0.72
0.72
0.72
0.74
0.74
0.72
0.73
0.73
0.73
0.72
0.72
0.72
0.73
0.73
0.71
0.72
0.73
0.73
0.72
0.72
0.73
0.73
0.71
0.72
0.73
0.74
0.71
0.72
0.73
0.73
0.73
0.72
0.73
0.73
0.74
0.72
0.73
0.73
0.73
0.71
0.72
0.72
0.73
0.71
0.71
0.71
0.72
0.72
0.7
0.7
0.71
0.71
0.71
0.7
0.72
0.72
0.73
0.72
0.75
0.75
0.75
0.72
0.73
0.74
0.73
0.74
0.72
0.74
0.74
0.74
0.74
0.72
0.74
0.74
0.75
0.72
0.73
0.73
0.73
0.72
0.72
0.71
0.72
0.71
0.71
0.71
0.71
0.72
0.71
0.71
0.71
0.71
0.72
0.7
0.71
0.7
0.71
0.72
0.71
0.72
0.71
0.73
0.71
0.72
0.72
0.75
0.73
0.72
0.74
0.75
0.76
0.73
0.74
0.75
0.76
0.75
0.72
0.73
0.73
0.73
0.72
0.72
0.73
0.73
0.73
0.72
0.72
0.75
0.74
0.73
0.72
0.73
0.74
0.75
0.72
0.73
0.74
0.74
0.72
0.72
0.73
0.74
0.73
0.72
0.73
0.73
0.72
0.71
0.73
0.72
0.72
0.71
0.72
0.71
0.71
0.71
0.71
0.71
0.71
0.72
0.7
0.71
0.72
0.71
0.71
0.71
0.73
0.73
0.73
0.73
0.73
0.72
0.72
0.71
0.7
0.71
0.71
0.72
0.7
0.72
0.71
0.72
0.72
0.72
0.73
0.74
0.72
0.73
0.74
0.74
0.72
0.73
0.72
0.73
0.71
0.71
0.71
0.71
0.71
0.7
0.7
0.7
0.69
0.7
0.7
0.7
0.7
0.7
0.71
0.73
0.72
0.72
0.72
0.73
0.73
0.71
0.72
0.72
0.72
0.71
0.73
0.72
0.72
0.73
0.72
0.72
0.72
0.72
0.71
0.7
0.72
0.73
0.73
0.72
0.71
0.73
0.73
0.71
0.71
0.73
0.72
0.73
0.71
0.71
0.71
0.73
0.71
0.72
0.73
0.73
0.72
0.71
0.71
0.71
0.7
0.71
0.71
0.72
0.7
0.71
0.72
0.72
0.73
0.71
0.72
0.72
0.72
0.71
0.72
0.72
0.72
0.71
0.7
0.71
0.72
0.71
0.71
0.71
0.73
0.72
0.73
0.72
0.74
0.72
0.74
0.75
0.72
0.72
0.71
0.72
0.72
0.71
0.73
0.72
0.73
0.72
0.73
0.73
0.74
0.71
0.72
0.72
0.73
0.73
0.72
0.72
0.73
0.72
0.72
0.73
0.72
0.71
0.71
0.72
0.72
0.73
0.71
0.72
0.72
0.72
0.71
0.72
0.72
0.71
0.72
0.7
0.72
0.72
0.74
0.72
0.72
0.74
0.75
0.76
0.73
0.74
0.74
0.73
0.72
0.72
0.71
0.72
0.72
0.71
0.71
0.71
0.7
0.71
0.71
0.71
0.71
0.7
0.72
0.72
0.71
0.73
0.73
0.74
0.72
0.71
0.72
0.73
0.71
0.71
0.74
0.73
0.72
0.71
0.72
0.72
0.72
0.72
0.72
0.71
0.73
0.7
0.71
0.72
0.72
0.71
0.71
0.71
0.72
0.71
0.71
0.71
0.72
0.72
0.71
0.71
0.7
0.72
0.69
0.7
0.71
0.72
0.72
0.7
0.72
0.71
0.71
0.7
0.71
0.72
0.71
0.7
0.71
0.7
0.71
0.7
0.71
0.71
0.7
0.7
0.71
0.71
0.71
0.7
0.71
0.7
0.71
0.7
0.71
0.71
0.72
0.75
0.73
0.74
0.73
0.75
0.72
0.73
0.73
0.74
0.72
0.72
0.73
0.73
0.74
0.72
0.73
0.73
0.72
0.71
0.73
0.73
0.71
0.71
0.73
0.72
0.71
0.71
0.72
0.72
0.74
0.73
0.73
0.74
0.73
0.73
0.71
0.73
0.72
0.71
0.71
0.7
0.7
0.69
0.69
0.69
0.7
0.7
0.69
0.72
0.72
0.73
0.72
0.72
0.73
0.72
0.71
0.71
0.71
0.71
0.69
0.7
0.71
0.71
0.7
0.71
0.72
0.72
0.71
0.71
0.72
0.72
0.73
0.72
0.72
0.71
0.72
0.71
0.72
0.71
0.71
0.7
0.71
0.71
0.7
0.7
0.69
0.7
0.7
0.72
0.7
0.7
0.72
0.74
0.73
0.72
0.72
0.72
0.73
0.7
0.71
0.7
0.71
0.71
0.7
0.7
0.71
0.7
0.7
0.7
0.7
0.71
0.71
0.7
0.7
0.71
0.71
0.72
0.71
0.71
0.71
0.71
0.71
0.7
0.72
0.71
0.72
0.72
0.72
0.73
0.71
0.71
0.72
0.74
0.73
0.71
0.71
0.73
0.72
0.72
0.71
0.7
0.71
0.71
0.69
0.7
0.71
0.71
0.7
0.71
0.71
0.72
0.7
0.71
0.71
0.71
0.72
0.7
0.71
0.72
0.7
0.7
0.74
0.71
0.71
0.69
0.7
0.68
0.71
0.7
0.73
0.73
0.75
0.75
0.75
0.75
0.75
0.73
0.73
0.73
0.74
0.72
0.71
0.71
0.7
0.71
0.69
0.7
0.7
0.71
0.69
0.7
0.73
0.72
0.73
0.71
0.72
0.72
0.74
0.72
0.72
0.74
0.75
0.74
0.72
0.72
0.73
0.72
0.71
0.71
0.71
0.71
0.69
0.7
0.7
0.7
0.71
0.7
0.71
0.71
0.7
0.7
0.72
0.72
0.71
0.73
0.73
0.74
0.72
0.73
0.73
0.73
0.72
0.73
0.73
0.72
0.72
0.72
0.72
0.72
0.72
0.72
0.72
0.72
0.71
0.7
0.72
0.71
0.72
0.71
0.73
0.74
0.72
0.74
0.74
0.74
0.71
0.72
0.71
0.7
0.71
0.71
0.71
0.7
0.69
0.71
0.7
0.72
0.7
0.7
0.71
0.72
0.72
0.72
0.73
0.73
0.73
0.72
0.73
0.72
0.72
0.7
0.71
0.7
0.71
0.69
0.7
0.7
0.7
0.7
0.72
0.71
0.69
0.71
0.72
0.72
0.73
0.71
0.72
0.72
0.73
0.71
0.71
0.71
0.71
0.71
0.7
0.7
0.7
0.69
0.69
0.69
0.69
0.68
0.69
0.7
0.71
0.72
0.7
0.72
0.73
0.72
0.72
0.71
0.71
0.72
0.72
0.7
0.7
0.7
0.7
0.69
0.68
0.69
0.69
0.69
0.7
0.7
0.7
0.71
0.71
0.71
0.71
0.71
0.72
0.7
0.71
0.71
0.7
0.69
0.7
0.71
0.72
0.71
0.73
0.73
0.72
0.73
0.74
0.74
0.72
0.71
0.72
0.7
0.7
0.69
0.7
0.7
0.69
0.69
0.7
0.72
0.71
0.72
0.73
0.73
0.74
0.72
0.73
0.74
0.74
0.73
0.72
0.73
0.73
0.72
0.7
0.71
0.7
0.7
0.69
0.69
0.7
0.69
0.71
0.71
0.71
0.73
0.73
0.72
0.72
0.72
0.73
0.72
0.74
0.72
0.73
0.71
0.72
0.71
0.7
0.7
0.7
0.7
0.69
0.71
0.7
0.72
0.7
0.7
0.71
0.72
0.71
0.71
0.73
0.72
0.71
0.7
0.71
0.7
0.72
0.69
0.69
0.7
0.7
0.69
0.71
0.71
0.72
0.7
0.71
0.7
0.71
0.71
0.71
0.71
0.71
0.7
0.7
0.71
0.7
0.69
0.69
0.72
0.71
0.72
0.69
0.72
0.7
0.73
0.71
0.71
0.72
0.74
0.73
0.73
0.74
0.74
0.73
0.72
0.72
0.72
0.69
0.7
0.69
0.7
0.69
0.68
0.7
0.7
0.7
0.7
0.7
0.71
0.73
0.72
0.71
0.73
0.73
0.71
0.71
0.72
0.72
0.72
0.7
0.72
0.7
0.71
0.7
0.69
0.7
0.7
0.7
0.7
0.7
0.7
0.69
0.7
0.7
0.71
0.7
0.7
0.71
0.71
0.71
0.7
0.7
0.71
0.7
0.7
0.69
0.7
0.7
0.71
0.69
0.7
0.7
0.7
0.7
0.7
0.7
0.7
0.71
0.69
0.7
0.71
0.72
0.71
0.71
0.71
0.71
0.72
0.69
0.7
0.69
0.69
0.69
0.69
0.69
0.69
0.7
0.69
0.7
0.7
0.7
0.69
0.72
0.72
0.71
0.71
0.69
0.72
0.73
0.71
0.7
0.7
0.71
0.72
0.7
0.7
0.71
0.71
0.7
0.7
0.7
0.71
0.69
0.7
0.7
0.71
0.69
0.69
0.7
0.69
0.69
0.69
0.69
0.7
0.69
0.68
0.7
0.69
0.7
0.7
0.68
0.69
0.68
0.69
0.67
0.68
0.7
0.7
0.69
0.7
0.71
0.72
0.7
0.71
0.71
0.72
0.7
0.69
0.7
0.69
0.68
0.68
0.67
0.67
0.67
0.66
0.67
0.67
0.68
0.69
0.69
0.7
0.7
0.7
0.7
0.7
0.71
0.7
0.7
0.7
0.69
0.7
0.68
0.69
0.68
0.69
0.67
0.68
0.68
0.69
0.67
0.69
0.69
0.69
0.69
0.7
0.72
0.72
0.72
0.7
0.72
0.72
0.71
0.7
0.7
0.71
0.7
0.68
0.7
0.69
0.7
0.69
0.69
0.69
0.69
0.68
0.69
0.68
0.69
0.68
0.69
0.7
0.7
0.7
0.69
0.69
0.7
0.69
0.69
0.68
0.7
0.69
0.71
0.69
0.69
0.7
0.71
0.68
0.69
0.7
0.69
0.7
0.7
0.7
0.69
0.7
0.69
0.69
0.7
0.7
0.69
0.7
0.71
0.71
0.72
0.71
0.72
0.71
0.71
0.7
0.7
0.69
0.69
0.69
0.68
0.69
0.69
0.7
0.68
0.7
0.7
0.69
0.69
0.71
0.7
0.71
0.7
0.7
0.7
0.71
0.7
0.7
0.71
0.7
0.7
0.69
0.69
0.69
0.69
0.69
0.68
0.69
0.68
0.7
0.68
0.7
0.71
0.71
0.72
0.71
0.71
0.72
0.71
0.72
0.69
0.7
0.7
0.71
0.7
0.7
0.7
0.69
0.7
0.7
0.69
0.7
0.71
0.72
0.7
0.72
0.71
0.71
0.7
0.71
0.7
0.71
0.69
0.69
0.7
0.71
0.7
0.7
0.7
0.7
0.7
0.69
0.7
0.69
0.7
0.68
0.69
0.7
0.69
0.69
0.69
0.69
0.7
0.69
0.69
0.7
0.7
0.68
0.69
0.7
0.69
0.69
0.69
0.7
0.7
0.7
0.7
0.7
0.7
0.71
0.69
0.7
0.7
0.69
0.69
0.68
0.69
0.69
0.7
0.69
0.69
0.69
0.71
0.72
0.69
0.7
0.7
0.71
0.71
0.7
0.7
0.7
0.71
0.7
0.7
0.71
0.7
0.69
0.7
0.7
0.71
0.69
0.68
0.7
0.7
0.71
0.69
0.7
0.7
0.71
0.7
0.71
0.7
0.7
0.69
0.69
0.69
0.68
0.69
0.68
0.68
0.69
0.68
0.68
0.68
0.69
0.7
0.7
0.7
0.69
0.71
0.71
0.7
0.7
0.71
0.7
0.69
0.69
0.69
0.7
0.69
0.69
0.69
0.7
0.69
0.68
0.68
0.68
0.69
0.68
0.68
0.68
0.69
0.68
0.68
0.69
0.68
0.69
0.67
0.68
0.69
0.69
0.69
0.69
0.69
0.69
0.69
0.68
0.69
0.68
0.69
0.67
0.68
0.68
0.67
0.69
0.67
0.68
0.69
0.69
0.69
0.69
0.68
0.69
0.69
0.7
0.68
0.7
0.69
0.7
0.69
0.69
0.69
0.7
0.69
0.7
0.7
0.7
0.69
0.7
0.69
0.71
0.68
0.69
0.68
0.69
0.69
0.69
0.68
0.69
0.68
0.68
0.69
0.69
0.69
0.69
0.7
0.69
0.7
0.69
0.69
0.69
0.68
0.69
0.68
0.68
0.69
0.69
0.69
0.68
0.69
0.69
0.69
0.69
0.69
0.7
0.69
0.69
0.69
0.69
0.7
0.68
0.69
0.68
0.69
0.68
0.67
0.68
0.68
0.68
0.67
0.67
0.67
0.67
0.68
0.67
0.68
0.67
0.68
0.69
0.68
0.69
0.68
0.69
0.68
0.69
0.7
0.7
0.68
0.69
0.69
0.7
0.69
0.68
0.68
0.69
0.68
0.67
0.68
0.68
0.68
0.69
0.69
0.7
0.7
0.69
0.71
0.71
0.71
0.7
0.69
0.68
0.69
0.67
0.68
0.68
0.69
0.69
0.68
0.68
0.68
0.69
0.69
0.68
0.68
0.69
0.69
0.7
0.71
0.72
0.75
0.74
0.74
0.75
0.74
0.72
0.73
0.72
0.7
0.71
0.71
0.7
0.7
0.71
0.7
0.71
0.69
0.71
0.72
0.71
0.72
0.75
0.76
0.74
0.74
0.74
0.75
0.72
0.73
0.72
0.7
0.7
0.71
0.69
0.7
0.69
0.69
0.69
0.69
0.69
0.7
0.7
0.7
0.7
0.7
0.7
0.69
0.7
0.7
0.7
0.69
0.7
0.7
0.7
0.7
0.7
0.7
0.69
0.69
0.69
0.69
0.7
0.7
0.7
0.7
0.71
0.7
0.71
0.72
0.73
0.72
0.72
0.71
0.71
0.7
0.71
0.69
0.69
0.69
0.69
0.68
0.68
0.69
0.7
0.7
0.71
0.71
0.72
0.72
0.71
0.72
0.71
0.7
0.69
0.7
0.69
0.69
0.69
0.68
0.69
0.68
0.68
0.68
0.69
0.68
0.68
0.68
0.68
0.69
0.68
0.69
0.69
0.71
0.69
0.7
0.7
0.7
0.69
0.69
0.69
0.69
0.68
0.69
0.68
0.69
0.67
0.69
0.67
0.68
0.67
0.68
0.68
0.7
0.69
0.69
0.71
0.72
0.7
0.7
0.7
0.71
0.7
0.68
0.69
0.69
0.68
0.69
0.67
0.69
0.68
0.68
0.67
0.68
0.68
0.69
0.68
0.69
0.69
0.7
0.7
0.69
0.69
0.7
0.7
0.7
0.68
0.69
0.7
0.69
0.7
0.69
0.69
0.7
0.7
0.69
0.69
0.69
0.7
0.7
0.69
0.69
0.69
0.7
0.68
0.69
0.7
0.69
0.69
0.69
0.68
0.7
0.69
0.7
0.7
0.7
0.69
0.71
0.69
0.7
0.7
0.7
0.71
0.71
0.7
0.71
0.71
0.7
0.7
0.7
0.71
0.68
0.69
0.7
0.69
0.68
0.68
0.68
0.68
0.69
0.67
0.67
0.68
0.69
0.7
0.69
0.71
0.7
0.71
0.71
0.69
0.7
0.7
0.7
0.69
0.68
0.69
0.69
0.68
0.67
0.67
0.67
0.69
0.68
0.68
0.71
0.72
0.72
0.71
0.73
0.72
0.71
0.71
0.71
0.7
0.69
0.69
0.69
0.68
0.67
0.67
0.67
0.68
0.66
0.67
0.69
0.68
0.7
0.68
0.69
0.71
0.71
0.71
0.7
0.71
0.7
0.7
0.7
0.69
0.69
0.7
0.69
0.68
0.69
0.7
0.69
0.69
0.7
0.69
0.71
0.69
0.7
0.71
0.72
0.7
0.71
0.71
0.7
0.69
0.7
0.69
0.69
0.68
0.69
0.68
0.68
0.68
0.67
0.68
0.69
0.67
0.68
0.68
0.69
0.69
0.7
0.69
0.7
0.7
0.69
0.7
0.7
0.7
0.69
0.69
0.7
0.7
0.7
0.68
0.7
0.68
0.69
0.68
0.68
0.69
0.69
0.68
0.69
0.68
0.69
0.68
0.68
0.69
0.69
0.7
0.68
0.69
0.69
0.7
0.7
0.69
0.69
0.69
0.69
0.7
0.68
0.69
0.69
0.69
0.68
0.68
0.68
0.68
0.67
0.67
0.67
0.69
0.67
0.69
0.69
0.7
0.7
0.7
0.7
0.71
0.72
0.7
0.69
0.69
0.7
0.69
0.68
0.68
0.68
0.67
0.68
0.67
0.68
0.69
0.69
0.7
0.69
0.7
0.7
0.7
0.68
0.7
0.7
0.7
0.68
0.69
0.69
0.69
0.67
0.68
0.69
0.68
0.67
0.69
0.68
0.69
0.68
0.7
0.68
0.7
0.68
0.69
0.68
0.69
0.69
0.68
0.69
0.69
0.69
0.68
0.68
0.67
0.69
0.68
0.68
0.68
0.69
0.7
0.69
0.69
0.71
0.7
0.7
0.7
0.7
0.71
0.69
0.7
0.7
0.69
0.69
0.68
0.68
0.68
0.68
0.67
0.68
0.67
0.68
0.68
0.68
0.7
0.69
0.69
0.7
0.69
0.7
0.7
0.69
0.69
0.69
0.69
0.67
0.68
0.67
0.68
0.67
0.67
0.7
0.69
0.69
0.69
0.71
0.71
0.7
0.7
0.71
0.7
0.69
0.69
0.68
0.69
0.68
0.67
0.68
0.68
0.69
0.69
0.67
0.69
0.68
0.68
0.68
0.68
0.69
0.69
0.69
0.69
0.7
0.69
0.69
0.68
0.68
0.69
0.69
0.67
0.68
0.68
0.69
0.67
0.68
0.68
0.69
0.68
0.68
0.68
0.69
0.69
0.69
0.7
0.69
0.7
0.7
0.69
0.7
0.69
0.68
0.67
0.68
0.67
0.67
0.67
0.66
0.68
0.68
0.67
0.67
0.68
0.68
0.68
0.68
0.7
0.7
0.71
0.7
0.71
0.71
0.7
0.69
0.69
0.69
0.68
0.67
0.67
0.68
0.67
0.66
0.67
0.66
0.67
0.66
0.66
0.67
0.68
0.68
0.68
0.69
0.68
0.7
0.69
0.68
0.69
0.69
0.68
0.68
0.68
0.68
0.68
0.68
0.68
0.69
0.67
0.67
0.67
0.68
0.67
0.67
0.67
0.68
0.68
0.67
0.68
0.68
0.69
0.69
0.68
0.68
0.69
0.69
0.67
0.68
0.67
0.68
0.67
0.67
0.68
0.66
0.66
0.67
0.66
0.67
0.67
0.68
0.69
0.69
0.7
0.69
0.69
0.69
0.7
0.69
0.68
0.69
0.68
0.68
0.67
0.67
0.68
0.67
0.66
0.67
0.67
0.67
0.67
0.67
0.68
0.69
0.69
0.69
0.69
0.69
0.68
0.68
0.67
0.68
0.68
0.67
0.66
0.67
0.67
0.66
0.66
0.67
0.66
0.67
0.65
0.68
0.68
0.68
0.69
0.68
0.69
0.69
0.69
0.68
0.68
0.69
0.67
0.68
0.68
0.68
0.67
0.67
0.67
0.67
0.68
0.67
0.67
0.67
0.69
0.68
0.69
0.7
0.7
0.69
0.69
0.7
0.69
0.68
0.68
0.68
0.67
0.68
0.67
0.66
0.67
0.67
0.66
0.68
0.67
0.69
0.68
0.69
0.69
0.71
0.69
0.7
0.69
0.69
0.67
0.68
0.68
0.67
0.67
0.67
0.67
0.67
0.67
0.66
0.67
0.68
0.67
0.68
0.68
0.69
0.69
0.68
0.68
0.68
0.69
0.68
0.68
0.69
0.68
0.68
0.68
0.68
0.68
0.69
0.67
0.68
0.68
0.69
0.67
0.69
0.68
0.68
0.68
0.69
0.69
0.69
0.68
0.69
0.69
0.69
0.67
0.68
0.67
0.68
0.66
0.68
0.67
0.68
0.67
0.68
0.69
0.69
0.68
0.7
0.69
0.7
0.68
0.69
0.68
0.69
0.67
0.68
0.68
0.69
0.69
0.68
0.68
0.68
0.68
0.68
0.68
0.68
0.69
0.68
0.68
0.69
0.69
0.68
0.69
0.69
0.69
0.68
0.67
0.68
0.67
0.68
0.67
0.68
0.68
0.69
0.67
0.69
0.69
0.69
0.68
0.68
0.68
0.68
0.68
0.67
0.68
0.67
0.67
0.66
0.67
0.66
0.66
0.67
0.67
0.67
0.66
0.67
0.68
0.67
0.67
0.68
0.68
0.68
0.68
0.68
0.68
0.67
0.68
0.68
0.68
0.68
0.67
0.68
0.68
0.67
0.67
0.67
0.68
0.67
0.68
0.67
0.68
0.67
0.68
0.66
0.67
0.68
0.66
0.67
0.67
0.67
0.66
0.67
0.67
0.67
0.67
0.67
0.67
0.67
0.66
0.67
0.67
0.68
0.68
0.67
0.68
0.67
0.67
0.68
0.66
0.66
0.66
0.66
0.66
0.67
0.68
0.67
0.69
0.68
0.68
0.69
0.7
0.7
0.69
0.69
0.69
0.69
0.68
0.67
0.68
0.67
0.68
0.66
0.67
0.67
0.67
0.67
0.66
0.67
0.68
0.69
0.68
0.68
0.7
0.7
0.69
0.69
0.7
0.69
0.7
0.68
0.68
0.68
0.67
0.67
0.67
0.66
0.67
0.66
0.66
0.66
0.67
0.67
0.67
0.67
0.68
0.69
0.69
0.71
0.71
0.72
0.7
0.72
0.7
0.71
0.69
0.69
0.69
0.69
0.67
0.68
0.67
0.66
0.67
0.66
0.67
0.67
0.66
0.67
0.66
0.68
0.67
0.68
0.68
0.68
0.68
0.69
0.68
0.69
0.68
0.68
0.69
0.68
0.67
0.68
0.68
0.68
0.67
0.66
0.66
0.67
0.66
0.67
0.67
0.68
0.68
0.68
0.69
0.7
0.71
0.73
0.7
0.71
0.7
0.71
0.7
0.69
0.68
0.68
0.68
0.67
0.68
0.66
0.68
0.66
0.66
0.67
0.68
0.68
0.69
0.71
0.71
0.71
0.71
0.72
0.73
0.72
0.71
0.69
0.7
0.7
0.69
0.69
0.68
0.69
0.68
0.67
0.67
0.67
0.67
0.68
0.69
0.68
0.7
0.71
0.7
0.71
0.72
0.71
0.72
0.71
0.71
0.68
0.69
0.69
0.68
0.67
0.67
0.67
0.68
0.67
0.66
0.67
0.68
0.68
0.67
0.68
0.68
0.69
0.69
0.68
0.69
0.69
0.7
0.7
0.69
0.7
0.69
0.68
0.69
0.68
0.69
0.68
0.68
0.69
0.68
0.68
0.68
0.68
0.68
0.67
0.68
0.67
0.68
0.69
0.71
0.72
0.68
0.69
0.68
0.69
0.68
0.69
0.68
0.69
0.68
0.69
0.69
0.69
0.68
0.69
0.69
0.68
0.68
0.67
0.67
0.67
0.67
0.67
0.66
0.67
0.67
0.68
0.67
0.69
0.68
0.7
0.71
0.7
0.71
0.71
0.71
0.71
0.7
0.69
0.7
0.69
0.69
0.68
0.69
0.68
0.69
0.68
0.68
0.67
0.69
0.68
0.7
0.7
0.68
0.68
0.69
0.69
0.69
0.69
0.69
0.7
0.69
0.69
0.7
0.68
0.68
0.67
0.68
0.68
0.67
0.68
0.68
0.68
0.68
0.69
0.68
0.68
0.68
0.69
0.68
0.68
0.67
0.68
0.67
0.68
0.66
0.68
0.67
0.67
0.67
0.67
0.67
0.68
0.67
0.67
0.68
0.68
0.68
0.69
0.68
0.69
0.68
0.68
0.68
0.68
0.68
0.68
0.67
0.68
0.66
0.67
0.67
0.68
0.67
0.69
0.68
0.69
0.68
0.68
0.68
0.69
0.69
0.68
0.68
0.68
0.68
0.67
0.67
0.69
0.68
0.69
0.68
0.68
0.68
0.66
0.67
0.67
0.67
0.67
0.66
0.68
0.68
0.68
0.68
0.69
0.69
0.68
0.68
0.68
0.67
0.68
0.68
0.67
0.68
0.67
0.67
0.68
0.68
0.68
0.67
0.67
0.67
0.68
0.67
0.67
0.68
0.68
0.68
0.68
0.67
0.68
0.69
0.67
0.68
0.67
0.67
0.67
0.67
0.67
0.68
0.67
0.67
0.67
0.67
0.67
0.67
0.68
0.68
0.69
0.68
0.69
0.68
0.69
0.67
0.67
0.67
0.67
0.67
0.66
0.67
0.66
0.66
0.66
0.65
0.66
0.67
0.67
0.68
0.68
0.69
0.69
0.67
0.69
0.68
0.69
0.68
0.68
0.68
0.69
0.67
0.68
0.67
0.67
0.68
0.66
0.67
0.67
0.67
0.66
0.67
0.67
0.67
0.68
0.67
0.67
0.68
0.67
0.69
0.67
0.67
0.67
0.67
0.66
0.67
0.67
0.67
0.67
0.67
0.68
0.67
0.67
0.67
0.66
0.67
0.66
0.67
0.66
0.67
0.67
0.66
0.66
0.67
0.68
0.66
0.67
0.68
0.67
0.66
0.67
0.66
0.67
0.66
0.66
0.67
0.67
0.69
0.69
0.68
0.67
0.67
0.68
0.7
0.68
0.69
0.7
0.73
0.73
0.72
0.73
0.73
0.72
0.71
0.71
0.7
0.69
0.68
0.68
0.66
0.67
0.66
0.66
0.66
0.66
0.66
0.67
0.67
0.68
0.68
0.69
0.69
0.7
0.71
0.7
0.7
0.7
0.7
0.69
0.68
0.68
0.68
0.67
0.66
0.66
0.66
0.66
0.66
0.66
0.66
0.67
0.66
0.68
0.67
0.68
0.68
0.7
0.68
0.68
0.69
0.68
0.69
0.68
0.68
0.68
0.67
0.68
0.67
0.67
0.66
0.66
0.66
0.66
0.67
0.67
0.68
0.67
0.68
0.67
0.67
0.68
0.68
0.68
0.68
0.68
0.69
0.68
0.68
0.68
0.68
0.69
0.67
0.68
0.68
0.68
0.67
0.67
0.67
0.66
0.67
0.66
0.66
0.66
0.66
0.66
0.66
0.66
0.67
0.68
0.66
0.67
0.67
0.68
0.7
0.68
0.69
0.69
0.69
0.68
0.68
0.68
0.67
0.66
0.67
0.67
0.66
0.66
0.66
0.67
0.68
0.68
0.68
0.68
0.67
0.69
0.7
0.68
0.68
0.68
0.69
0.67
0.68
0.67
0.69
0.67
0.68
0.67
0.68
0.69
0.67
0.68
0.68
0.68
0.68
0.68
0.68
0.67
0.69
0.68
0.68
0.68
0.69
0.68
0.69
0.68
0.68
0.68
0.68
0.67
0.68
0.69
0.67
0.68
0.68
0.68
0.67
0.67
0.68
0.68
0.67
0.67
0.68
0.67
0.68
0.67
0.67
0.68
0.68
0.67
0.69
0.68
0.68
0.68
0.68
0.68
0.67
0.67
0.67
0.66
0.67
0.66
0.66
0.66
0.66
0.67
0.66
0.67
0.66
0.67
0.68
0.67
0.68
0.67
0.68
0.68
0.68
0.68
0.68
0.67
0.68
0.68
0.68
0.67
0.67
0.67
0.66
0.67
0.66
0.67
0.66
0.67
0.67
0.69
0.68
0.68
0.69
0.68
0.69
0.68
0.68
0.67
0.7
0.7
0.7
0.68
0.69
0.7
0.71
0.7
0.72
0.71
0.71
0.71
0.71
0.72
0.7
0.7
0.7
0.69
0.68
0.69
0.68
0.68
0.67
0.66
0.67
0.66
0.66
0.67
0.68
0.7
0.71
0.71
0.71
0.72
0.73
0.72
0.7
0.72
0.71
0.7
0.69
0.69
0.69
0.69
0.68
0.69
0.69
0.68
0.69
0.7
0.7
0.68
0.7
0.7
0.7
0.69
0.69
0.69
0.7
0.69
0.69
0.69
0.69
0.69
0.7
0.69
0.7
0.69
0.69
0.69
0.69
0.69
0.7
0.7
0.68
0.7
0.69
0.7
0.69
0.69
0.69
0.69
0.7
0.69
0.69
0.68
0.68
0.68
0.67
0.68
0.67
0.68
0.67
0.68
0.69
0.7
0.7
0.7
0.69
0.68
0.67
0.67
0.66
0.65
0.64
0.64
0.64
0.63
0.6
0.6
0.66
0.66
0.65
0.65
0.6
0.6
0.63
0.61
0.61
0.61
0.6
0.59
0.6
0.58
0.59
0.6
0.64
0.73
0.79
0.81
0.81
0.8
0.79
0.75
0.74
0.73
0.72
0.69
0.69
0.71
0.72
0.67
0.68
0.67
0.67
0.66
0.67
0.66
0.65
0.65
0.65
0.64
0.64
0.62
0.63
0.62
0.62
0.62
0.62
0.62
0.62
0.63
0.62
0.63
0.63
0.62
0.64
0.63
0.63
0.63
0.64
0.64
0.64
0.66
0.66
0.66
0.68
0.67
0.68
0.69
0.68
0.69
0.68
0.69
0.68
0.66
0.68
0.67
0.66
0.67
0.67
0.67
0.67
0.68
0.67
0.68
0.69
0.68
0.66
0.67
0.66
0.65
0.66
0.65
0.65
0.66
0.64
0.66
0.65
0.65
0.65
0.65
0.65
0.65
0.65
0.65
0.64
0.65
0.65
0.66
0.66
0.66
0.66
0.67
0.67
0.66
0.67
0.66
0.66
0.66
0.65
0.64
0.65
0.64
0.64
0.64
0.64
0.63
0.64
0.63
0.64
0.63
0.64
0.64
0.65
0.65
0.66
0.67
0.67
0.68
0.67
0.68
0.69
0.68
0.67
0.68
0.69
0.68
0.67
0.65
0.66
0.64
0.65
0.66
0.64
0.66
0.66
0.64
0.66
0.66
0.66
0.64
0.66
0.66
0.66
0.64
0.67
0.65
0.67
0.65
0.66
0.65
0.66
0.65
0.65
0.65
0.66
0.66
0.67
0.67
0.7
0.72
0.73
0.74
0.74
0.74
0.74
0.72
0.72
0.71
0.69
0.68
0.68
0.65
0.66
0.64
0.63
0.64
0.64
0.63
0.66
0.68
0.69
0.7
0.73
0.73
0.73
0.71
0.72
0.72
0.71
0.7
0.69
0.67
0.66
0.67
0.66
0.66
0.65
0.66
0.66
0.67
0.68
0.69
0.69
0.69
0.69
0.7
0.69
0.69
0.7
0.71
0.71
0.71
0.72
0.7
0.69
0.69
0.68
0.67
0.67
0.66
0.65
0.67
0.65
0.67
0.69
0.68
0.67
0.68
0.68
0.69
0.67
0.68
0.67
0.68
0.67
0.66
0.67
0.67
0.65
0.66
0.65
0.65
0.63
0.64
0.64
0.64
0.63
0.63
0.61
0.63
0.64
0.63
0.64
0.64
0.65
0.66
0.66
0.65
0.66
0.66
0.65
0.65
0.66
0.65
0.65
0.65
0.65
0.65
0.66
0.68
0.68
0.69
0.69
0.72
0.7
0.71
0.73
0.73
0.69
0.7
0.69
0.67
0.67
0.68
0.69
0.66
0.67
0.66
0.65
0.66
0.66
0.67
0.66
0.67
0.67
0.65
0.67
0.67
0.67
0.66
0.66
0.67
0.65
0.67
0.66
0.67
0.67
0.67
0.67
0.68
0.67
0.68
0.68
0.68
0.68
0.7
0.7
0.71
0.71
0.71
0.7
0.69
0.68
0.68
0.67
0.66
0.66
0.66
0.66
0.65
0.66
0.69
0.68
0.68
0.7
0.72
0.72
0.69
0.68
0.67
0.68
0.67
0.67
0.67
0.67
0.66
0.67
0.65
0.66
0.65
0.66
0.65
0.65
0.66
0.66
0.67
0.67
0.67
0.68
0.68
0.67
0.69
0.68
0.67
0.68
0.67
0.67
0.67
0.66
0.67
0.68
0.7
0.72
0.75
0.78
0.76
0.79
0.78
0.8
0.77
0.78
0.74
0.73
0.72
0.7
0.7
0.7
0.67
0.68
0.68
0.69
0.68
0.68
0.68
0.62
0.63
0.8
0.67
0.69
0.65
0.66
0.66
0.66
0.66
0.65
0.65
0.65
0.64
0.65
0.64
0.64
0.63
0.64
0.63
0.64
0.62
0.63
0.63
0.63
0.63
0.62
0.63
0.63
0.63
0.63
0.63
0.64
0.65
0.65
0.66
0.66
0.67
0.68
0.69
0.7
0.7
0.71
0.7
0.71
0.7
0.7
0.69
0.69
0.69
0.67
0.68
0.66
0.68
0.68
0.69
0.76
0.77
0.76
0.76
0.76
0.76
0.75
0.73
0.74
0.74
0.7
0.71
0.71
0.69
0.68
0.69
0.68
0.67
0.67
0.67
0.66
0.65
0.67
0.66
0.67
0.67
0.68
0.68
0.68
0.69
0.68
0.69
0.68
0.67
0.67
0.67
0.66
0.67
0.66
0.68
0.67
0.68
0.7
0.74
0.71
0.77
0.76
0.75
0.76
0.77
0.75
0.74
0.73
1.01
0.92
1.09
0.65
0.98
0.65
0.64
0.64
0.65
0.65
0.67
0.67
0.7
0.69
0.72
0.73
0.73
0.73
0.73
0.74
0.72
0.71
0.72
0.71
0.69
0.68
0.67
0.68
0.68
0.65
0.65
0.65
0.64
0.64
0.65
0.65
0.66
0.68
0.69
0.7
0.71
0.74
0.72
0.73
0.7
0.71
0.7
0.7
0.7
0.7
0.69
0.7
0.69
0.68
0.69
0.7
0.71
0.72
0.74
0.73
0.72
0.74
0.74
0.74
0.75
0.73
0.72
0.72
0.73
0.73
0.73
0.74
0.74
0.73
0.75
0.74
0.74
0.74
0.75
0.75
0.74
0.74
0.75
0.75
0.76
0.75
0.76
0.76
0.76
0.75
0.76
0.75
0.75
0.75
0.75
0.73
0.75
0.74
0.73
0.73
0.74
0.74
0.72
0.73
0.73
0.71
0.72
0.71
0.7
0.7
0.72
0.7
0.7
0.71
0.72
0.73
0.72
0.74
0.75
0.75
0.74
0.76
0.77
0.77
0.75
0.75
0.76
0.75
0.72
0.73
0.73
0.72
0.71
0.72
0.71
0.69
0.71
0.7
0.7
0.71
0.71
0.72
0.73
0.73
0.73
0.75
0.76
0.75
0.79
0.74
0.74
0.74
0.71
0.71
0.72
0.7
0.7
0.71
0.7
0.71
0.72
0.7
0.72
0.71
0.72
0.72
0.73
0.74
0.74
0.72
0.73
0.73
0.73
0.72
0.73
0.72
0.73
0.72
0.73
0.73
0.74
0.72
0.74
0.73
0.73
0.74
0.73
0.72
0.72
0.71
0.71
0.7
0.72
0.72
0.71
0.72
0.72
0.73
0.71
0.74
0.72
0.74
0.77
0.75
0.74
0.74
0.72
0.72
0.72
0.69
0.71
0.7
0.68
0.7
0.69
0.69
0.7
0.7
0.72
0.72
0.73
0.74
0.76
0.76
0.75
0.77
0.77
0.76
0.74
0.75
0.73
0.73
0.73
0.71
0.72
0.72
0.73
0.73
0.72
0.74
0.73
0.75
0.74
0.74
0.76
0.75
0.75
0.75
0.75
0.75
0.74
0.74
0.74
0.73
0.72
0.73
0.74
0.72
0.72
0.72
0.72
0.68
0.7
0.69
0.69
0.68
0.68
0.69
0.69
0.69
0.7
0.7
0.72
0.72
0.73
0.75
0.75
0.75
0.77
0.77
0.77
0.76
0.77
0.77
0.76
0.76
0.75
0.77
0.75
0.75
0.76
0.75
0.75
0.73
0.74
0.75
0.75
0.73
0.74
0.74
0.74
0.74
0.74
0.74
0.74
0.75
0.74
0.73
0.74
0.74
0.76
0.73
0.75
0.76
0.77
0.75
0.76
0.77
0.76
0.75
0.77
0.76
0.75
0.75
0.75
0.74
0.74
0.74
0.74
0.72
0.72
0.74
0.7
0.71
0.7
0.69
0.69
0.7
0.68
0.7
0.69
0.68
0.68
0.69
0.67
0.68
0.69
0.67
0.69
0.68
0.69
0.67
0.7
0.7
0.71
0.7
0.72
0.72
0.72
0.72
0.73
0.72
0.72
0.71
0.7
0.71
0.7
0.7
0.7
0.69
0.69
0.69
0.7
0.68
0.69
0.71
0.72
0.71
0.71
0.71
0.72
0.71
0.7
0.69
0.69
0.69
0.68
0.69
0.68
0.67
0.69
0.69
0.69
0.71
0.71
0.72
0.73
0.72
0.73
0.75
0.74
0.75
0.76
0.75
0.75
0.76
0.74
0.75
0.75
0.74
0.75
0.75
0.73
0.73
0.72
0.72
0.71
0.73
0.72
0.72
0.73
0.74
0.75
0.74
0.75
0.75
0.76
0.77
0.78
0.75
0.75
0.75
0.71
0.73
0.71
0.71
0.7
0.69
0.68
0.69
0.67
0.68
0.69
0.69
0.69
0.69
0.71
0.7
0.71
0.73
0.73
0.72
0.75
0.75
0.75
0.76
0.76
0.74
0.75
0.75
0.73
0.72
0.72
0.71
0.7
0.69
0.68
0.69
0.67
0.69
0.7
0.71
0.71
0.73
0.73
0.73
0.72
0.75
0.75
0.72
0.73
0.73
0.71
0.72
0.7
0.69
0.69
0.69
0.69
0.67
0.67
0.68
0.67
0.66
0.67
0.68
0.67
0.7
0.71
0.72
0.71
0.73
0.72
0.71
0.7
0.7
0.7
0.7
0.68
0.68
0.67
0.67
0.66
0.64
0.65
0.64
0.63
0.63
0.63
0.62
0.62
0.64
0.64
0.65
0.69
0.71
0.71
0.73
0.95
0.95
0.84
0.85
0.88
0.88
0.72
0.66
0.69
0.62
0.6
0.6
0.59
0.59
0.59
0.58
0.59
0.58
0.59
0.6
0.63
0.66
0.68
0.72
0.73
0.72
0.71
0.7
0.71
0.7
0.69
0.69
0.69
0.68
0.68
0.67
0.67
0.67
0.66
0.65
0.64
0.65
0.64
0.66
0.67
0.67
0.69
0.71
0.69
0.69
0.69
0.68
0.68
0.67
0.67
0.67
0.67
0.67
0.66
0.67
0.66
0.65
0.66
0.66
0.65
0.66
0.65
0.66
0.65
0.64
0.65
0.64
0.65
0.64
0.65
0.66
0.65
0.67
0.66
0.67
0.67
0.67
0.67
0.67
0.67
0.67
0.66
0.67
0.66
0.66
0.66
0.66
0.66
0.66
0.66
0.65
0.66
0.66
0.65
0.65
0.65
0.66
0.65
0.67
0.68
0.68
0.68
0.7
0.69
0.67
0.69
0.68
0.66
0.67
0.66
0.65
0.65
0.65
0.64
0.64
0.65
0.64
0.65
0.66
0.67
0.67
0.67
0.68
0.69
0.7
0.69
0.7
0.7
0.71
0.69
0.69
0.69
0.68
0.69
0.68
0.67
0.66
0.67
0.66
0.67
0.67
0.67
0.67
0.69
0.68
0.67
0.69
0.67
0.68
0.68
0.68
0.68
0.66
0.66
0.67
0.67
0.65
0.66
0.7
0.68
0.69
0.69
0.7
0.71
0.68
0.69
0.69
0.69
0.66
0.68
0.68
0.67
0.69
0.69
0.71
0.71
0.72
0.73
0.73
0.73
0.75
0.75
0.74
0.74
0.75
0.73
0.73
0.71
0.71
0.69
0.67
0.67
0.67
0.66
0.66
0.66
0.66
0.67
0.66
0.68
0.68
0.68
0.69
0.7
0.69
0.69
0.69
0.67
0.68
0.69
0.69
0.68
0.68
0.71
0.7
0.69
0.71
0.71
0.7
0.7
0.69
0.68
0.69
0.68
0.66
0.67
0.66
0.66
0.66
0.66
0.65
0.66
0.66
0.67
0.66
0.67
0.67
0.67
0.67
0.65
0.66
0.66
0.66
0.65
0.65
0.66
0.65
0.66
0.66
0.67
0.65
0.67
0.66
0.67
0.68
0.68
0.68
0.69
0.68
0.68
0.67
0.66
0.66
0.66
0.64
0.65
0.66
0.64
0.65
0.67
0.67
0.67
0.68
0.74
0.73
0.73
0.71
0.72
0.7
0.7
0.7
0.68
0.69
0.68
0.67
0.66
0.64
0.66
0.65
0.64
0.65
0.65
0.66
0.65
0.68
0.68
0.69
0.72
0.73
0.75
0.77
0.76
0.76
0.77
0.76
0.74
0.75
0.75
0.74
0.72
0.74
0.72
0.72
0.71
0.7
0.71
0.7
0.7
0.7
0.69
0.71
0.71
0.71
0.71
0.71
0.71
0.69
0.7
0.7
0.69
0.7
0.73
0.71
0.72
0.74
0.72
0.72
0.71
0.7
0.7
0.7
0.69
0.69
0.69
0.69
0.69
0.69
0.7
0.69
0.7
0.7
0.7
0.7
0.7
0.7
0.7
0.71
0.69
0.7
0.71
0.69
0.7
0.69
0.69
0.7
0.7
0.7
0.7
0.7
0.7
0.7
0.7
0.7
0.69
0.67
0.68
0.67
0.67
0.66
0.66
0.68
0.68
0.7
0.69
0.72
0.75
0.73
0.73
0.74
0.74
0.72
0.73
0.73
0.71
0.71
0.7
0.7
0.68
0.68
0.67
0.67
0.66
0.67
0.66
0.67
0.66
0.67
0.68
0.69
0.69
0.7
0.7
0.71
0.72
0.7
0.7
0.7
0.7
0.69
0.68
0.68
0.68
0.67
0.67
0.68
0.69
0.72
0.74
0.75
0.75
0.74
0.75
0.76
0.76
0.74
0.72
0.72
0.7
0.69
0.68
0.69
0.68
0.67
0.68
0.67
0.68
0.68
0.7
0.76
0.75
0.74
0.76
0.77
0.75
0.73
0.72
0.7
0.7
0.69
0.68
0.67
0.68
0.67
0.68
0.69
0.69
0.71
0.72
0.73
0.74
0.73
0.74
0.75
0.74
0.73
0.73
0.72
0.7
0.7
0.69
0.69
0.69
0.68
0.69
0.69
0.7
0.7
0.69
0.7
0.69
0.7
0.69
0.69
0.68
0.68
0.66
0.67
0.66
0.66
0.66
0.66
0.66
0.68
0.69
0.69
0.75
0.74
0.72
0.73
0.75
0.72
0.72
0.74
0.7
0.71
0.73
0.73
0.7
0.7
0.69
0.68
0.68
0.67
0.67
0.68
0.67
0.67
0.68
0.68
0.69
0.7
0.71
0.71
0.72
0.73
0.73
0.72
0.73
0.73
0.72
0.71
0.71
0.7
0.7
0.7
0.69
0.69
0.7
0.69
0.69
0.69
0.69
0.69
0.7
0.69
0.7
0.69
0.71
0.69
0.71
0.71
0.71
0.69
0.71
0.72
0.7
0.7
0.74
0.72
0.71
0.73
0.74
0.71
0.71
0.71
0.69
0.69
0.68
0.68
0.68
0.67
0.66
0.66
0.67
0.66
0.67
0.67
0.68
0.69
0.69
0.71
0.72
0.72
0.72
0.73
0.72
0.72
0.72
0.7
0.7
0.69
0.68
0.68
0.67
0.67
0.67
0.67
0.68
0.69
0.69
0.7
0.71
0.7
0.7
0.7
0.7
0.7
0.69
0.7
0.7
0.68
0.69
0.68
0.67
0.66
0.67
0.68
0.69
0.69
0.73
0.74
0.72
0.75
0.75
0.71
0.72
0.71
0.69
0.69
0.68
0.67
0.66
0.66
0.66
0.66
0.67
0.68
0.7
0.71
0.75
0.75
0.77
0.78
0.78
0.79
0.76
0.76
0.76
0.73
0.74
0.72
0.71
0.71
0.71
0.7
0.69
0.69
0.68
0.68
0.67
0.67
0.66
0.67
0.69
0.69
0.69
0.72
0.72
0.71
0.72
0.74
0.74
0.71
0.72
0.74
0.71
0.71
0.7
0.71
0.68
0.69
0.7
0.71
0.68
0.69
0.67
0.67
0.67
0.68
0.67
0.67
0.68
0.68
0.68
0.68
0.69
0.7
0.71
0.71
0.72
0.74
0.73
0.74
0.75
0.74
0.74
0.73
0.72
0.71
0.71
0.71
0.71
0.7
0.7
0.7
0.7
0.7
0.7
0.71
0.71
0.72
0.72
0.73
0.72
0.73
0.71
0.72
0.71
0.71
0.69
0.69
0.69
0.68
0.67
0.68
0.68
0.67
0.69
0.71
0.69
0.73
0.73
0.72
0.71
0.71
0.7
0.71
0.69
0.69
0.69
0.68
0.67
0.68
0.66
0.67
0.67
0.67
0.67
0.68
0.68
0.69
0.69
0.71
0.71
0.7
0.71
0.71
0.71
0.69
0.7
0.7
0.68
0.68
0.67
0.67
0.66
0.66
0.66
0.66
0.66
0.66
0.66
0.67
0.68
0.66
0.68
0.69
0.7
0.68
0.7
0.72
0.71
0.71
0.75
0.72
0.71
0.73
0.71
0.7
0.7
0.72
0.69
0.69
0.75
0.7
0.74
0.73
0.71
0.71
0.72
0.69
0.69
0.7
0.68
0.69
0.69
0.7
0.69
0.7
0.7
0.73
0.75
0.73
0.75
0.75
0.75
0.74
0.74
0.73
0.73
0.74
0.72
0.71
0.72
0.72
0.71
0.71
0.72
0.73
0.74
0.73
0.74
0.73
0.74
0.74
0.72
0.73
0.73
0.72
0.72
0.71
0.71
0.71
0.71
0.69
0.7
0.71
0.73
0.7
0.7
0.69
0.72
0.72
0.72
0.71
0.7
0.69
0.7
0.68
0.68
0.68
0.68
0.68
0.68
0.68
0.69
0.69
0.7
0.71
0.72
0.72
0.72
0.72
0.73
0.71
0.71
0.7
0.7
0.69
0.7
0.7
0.71
0.71
0.71
0.73
0.72
0.73
0.72
0.72
0.71
0.71
0.7
0.69
0.69
0.69
0.68
0.68
0.67
0.67
0.68
0.67
0.69
0.73
0.73
0.73
0.75
0.76
0.74
0.73
0.73
0.72
0.7
0.7
0.7
0.68
0.67
0.68
0.67
0.68
0.69
0.7
0.7
0.74
0.74
0.76
0.76
0.77
0.76
0.75
0.74
0.72
0.72
0.72
0.7
0.7
0.69
0.69
0.69
0.69
0.7
0.7
0.69
0.7
0.71
0.72
0.72
0.73
0.73
0.73
0.74
0.73
0.72
0.71
0.72
0.7
0.71
0.72
0.7
0.71
0.71
0.71
0.7
0.71
0.7
0.7
0.7
0.68
0.69
0.68
0.68
0.68
0.68
0.68
0.68
0.68
0.69
0.69
0.67
0.69
0.68
0.7
0.7
0.71
0.72
0.73
0.74
0.73
0.72
0.72
0.72
0.71
0.71
0.71
0.7
0.71
0.7
0.7
0.7
0.71
0.7
0.72
0.71
0.71
0.72
0.71
0.69
0.71
0.7
0.69
0.69
0.69
0.69
0.69
0.69
0.69
0.69
0.7
0.69
0.68
0.69
0.69
0.68
0.69
0.69
0.68
0.68
0.69
0.68
0.69
0.69
0.69
0.7
0.7
0.7
0.7
0.7
0.7
0.7
0.7
0.7
0.69
0.68
0.69
0.68
0.67
0.66
0.67
0.66
0.67
0.67
0.67
0.66
0.66
0.65
0.66
0.66
0.65
0.67
0.67
0.68
0.68
0.68
0.69
0.69
0.69
0.7
0.69
0.7
0.7
0.71
0.71
0.71
0.72
0.71
0.72
0.73
0.73
0.72
0.72
0.71
0.71
0.71
0.71
0.72
0.69
0.7
0.7
0.7
0.69
0.7
0.69
0.71
0.7
0.71
0.71
0.72
0.72
0.72
0.73
0.73
0.73
0.72
0.72
0.71
0.71
0.7
0.7
0.7
0.7
0.7
0.7
0.69
0.7
0.69
0.7
0.7
0.7
0.71
0.7
0.72
0.71
0.71
0.71
0.71
0.71
0.7
0.71
0.72
0.71
0.71
0.72
0.71
0.71
0.71
0.71
0.71
0.71
0.71
0.71
0.7
0.71
0.71
0.71
0.7
0.7
0.71
0.7
0.69
0.7
0.7
0.7
0.69
0.69
0.7
0.7
0.69
0.69
0.7
0.69
0.68
0.68
0.68
0.67
0.68
0.67
0.68
0.67
0.66
0.67
0.66
0.65
0.65
0.64
0.64
0.64
0.62
0.62
0.62
0.61
0.61
0.6
0.62
0.66
0.71
0.74
0.82
0.83
0.87
0.9
0.91
0.87
0.88
0.89
0.87
0.86
0.82
0.8
0.8
0.8
0.79
0.79
0.77
0.75
0.76
0.74
0.74
0.74
0.74
0.72
0.72
0.74
0.73
0.71
0.72
0.72
0.73
0.72
0.72
0.73
0.74
0.71
0.75
0.75
0.76
0.76
0.76
0.78
0.78
0.77
0.78
0.78
0.76
0.78
0.79
0.77
0.79
0.79
0.77
0.79
0.78
0.75
0.76
0.76
0.74
0.74
0.74
0.74
0.73
0.73
0.73
0.73
0.74
0.72
0.72
0.72
0.73
0.73
0.73
0.74
0.75
0.76
0.76
0.77
0.77
0.75
0.75
0.76
0.74
0.73
0.75
0.75
0.75
0.75
0.74
0.76
0.76
0.75
0.73
0.75
0.74
0.74
0.74
0.73
0.74
0.75
0.74
0.76
0.74
0.74
0.74
0.74
0.74
0.74
0.74
0.75
0.75
0.75
0.75
0.75
0.73
0.75
0.75
0.74
0.75
0.74
0.75
0.76
0.75
0.74
0.75
0.75
0.75
0.73
0.75
0.75
0.73
0.74
0.73
0.74
0.72
0.73
0.74
0.73
0.73
0.72
0.73
0.73
0.71
0.72
0.71
0.72
0.71
0.71
0.71
0.71
0.72
0.71
0.72
0.72
0.72
0.71
0.71
0.72
0.72
0.71
0.71
0.72
0.71
0.71
0.71
0.71
0.7
0.71
0.7
0.7
0.71
0.71
0.71
0.7
0.71
0.71
0.71
0.7
0.71
0.71
0.71
0.72
0.72
0.71
0.71
0.7
0.7
0.7
0.71
0.7
0.71
0.71
0.71
0.72
0.71
0.71
0.71
0.7
0.71
0.7
0.7
0.7
0.69
0.69
0.69
0.68
0.69
0.69
0.68
0.69
0.7
0.7
0.69
0.71
0.71
0.7
0.7
0.71
0.7
0.7
0.71
0.7
0.72
0.72
0.72
0.74
0.73
0.73
0.74
0.74
0.72
0.74
0.73
0.73
0.73
0.72
0.73
0.72
0.71
0.73
0.72
0.72
0.72
0.73
0.74
0.73
0.75
0.76
0.75
0.75
0.76
0.75
0.74
0.75
0.75
0.76
0.75
0.75
0.75
0.74
0.75
0.74
0.74
0.74
0.72
0.72
0.73
0.72
0.74
0.72
0.73
0.73
0.74
0.73
0.74
0.74
0.73
0.73
0.74
0.73
0.74
0.73
0.74
0.74
0.76
0.74
0.75
0.75
0.73
0.74
0.74
0.74
0.73
0.74
0.72
0.72
0.71
0.7
0.7
0.69
0.69
0.68
0.7
0.7
0.69
0.7
0.71
0.71
0.71
0.71
0.71
0.71
0.71
0.71
0.71
0.71
0.71
0.72
0.71
0.73
0.73
0.73
0.73
0.73
0.73
0.74
0.73
0.72
0.72
0.73
0.71
0.71
0.71
0.71
0.72
0.7
0.72
0.72
0.73
0.72
0.73
0.73
0.74
0.73
0.74
0.73
0.75
0.72
0.73
0.74
0.73
0.71
0.72
0.71
0.69
0.68
0.68
0.67
0.68
0.67
0.66
0.66
0.66
0.66
0.66
0.67
0.66
0.66
0.66
0.66
0.66
0.66
0.66
0.66
0.65
0.66
0.65
0.66
0.65
0.65
0.65
0.65
0.66
0.65
0.66
0.66
0.64
0.65
0.65
0.64
0.64
0.63
0.62
0.63
0.62
0.62
0.62
0.64
0.66
0.69
0.71
0.76
0.79
0.79
0.82
0.8
0.8
0.79
0.79
0.77
0.75
0.74
0.73
0.71
0.71
0.7
0.72
0.72
0.74
0.74
0.75
0.76
0.77
0.75
0.75
0.74
0.73
0.71
0.71
0.69
0.7
0.68
0.69
0.68
0.68
0.68
0.7
0.7
0.61
0.62
0.62
0.73
0.74
0.73
0.67
0.73
0.65
0.65
0.63
0.63
0.62
0.61
0.61
0.61
0.6
0.6
0.61
0.62
0.64
0.64
0.64
0.66
0.69
0.71
0.73
0.72
0.71
0.7
0.71
0.7
0.71
0.7
0.71
0.7
0.69
0.69
0.69
0.68
0.66
0.67
0.65
0.66
0.66
0.66
0.68
0.69
0.7
0.69
0.69
0.69
0.69
0.69
0.7
0.7
0.7
0.7
0.69
0.7
0.69
0.69
0.68
0.69
0.69
0.69
0.69
0.69
0.68
0.69
0.69
0.7
0.68
0.69
0.69
0.69
0.68
0.67
0.67
0.67
0.67
0.67
0.66
0.66
0.66
0.66
0.65
0.7
0.71
0.59
0.64
0.61
0.65
0.64
0.63
0.63
0.62
0.62
0.61
0.63
0.63
0.65
0.69
0.77
0.84
0.88
0.87
0.86
0.85
0.86
0.84
0.81
0.8
0.77
0.77
0.74
0.72
0.71
0.71
0.69
0.69
0.68
0.68
0.67
0.66
0.67
0.68
0.68
0.69
0.7
0.7
0.72
0.72
0.73
0.73
0.74
0.74
0.74
0.74
0.73
0.74
0.73
0.73
0.71
0.72
0.71
0.72
0.71
0.7
0.7
0.7
0.7
0.69
0.68
0.68
0.68
0.67
0.67
0.67
0.67
0.67
0.67
0.67
0.67
0.67
0.68
0.68
0.69
0.69
0.7
0.7
0.71
0.71
0.72
0.71
0.72
0.71
0.71
0.72
0.71
0.7
0.71
0.7
0.69
0.69
0.7
0.69
0.69
0.69
0.68
0.69
0.69
0.7
0.69
0.7
0.72
0.7
0.69
0.69
0.69
0.68
0.67
0.66
0.66
0.66
0.66
0.66
0.66
0.66
0.67
0.67
0.68
0.67
0.69
0.69
0.7
0.7
0.7
0.7
0.71
0.7
0.7
0.7
0.7
0.7
0.71
0.72
0.72
0.72
0.72
0.71
0.72
0.72
0.73
0.73
0.72
0.72
0.72
0.72
0.72
0.72
0.71
0.71
0.7
0.69
0.68
0.69
0.69
0.69
0.67
0.68
0.68
0.68
0.69
0.71
0.72
0.75
0.77
0.8
0.81
0.82
0.82
0.83
0.81
0.82
0.82
0.8
0.79
0.78
0.77
0.75
0.75
0.74
0.73
0.71
0.69
0.68
0.68
0.68
0.67
0.68
0.68
0.7
0.69
0.71
0.74
0.72
0.73
0.71
0.72
0.71
0.71
0.71
0.7
0.7
0.7
0.7
0.69
0.7
0.69
0.71
0.7
0.72
0.72
0.74
0.75
0.76
0.76
0.77
0.76
0.77
0.76
0.75
0.74
0.74
0.73
0.73
0.71
0.71
0.71
0.7
0.71
0.7
0.71
0.71
0.71
0.72
0.72
0.71
0.73
0.72
0.72
0.72
0.72
0.7
0.72
0.71
0.7
0.69
0.69
0.68
0.69
0.69
0.69
0.69
0.69
0.69
0.68
0.68
0.67
0.67
0.67
0.68
0.67
0.69
0.68
0.68
0.69
0.68
0.68
0.68
0.69
0.69
0.7
0.69
0.69
0.69
0.68
0.67
0.66
0.67
0.66
0.67
0.7
0.74
0.75
0.77
0.78
0.77
0.78
0.77
0.76
0.76
0.74
0.73
0.73
0.72
0.71
0.71
0.69
0.69
0.69
0.68
0.68
0.67
0.69
0.68
0.68
0.68
0.7
0.69
0.71
0.71
0.71
0.72
0.73
0.73
0.74
0.74
0.75
0.75
0.75
0.75
0.74
0.75
0.73
0.72
0.71
0.71
0.71
0.71
0.71
0.71
0.72
0.72
0.71
0.72
0.73
0.73
0.73
0.74
0.73
0.74
0.73
0.72
0.71
0.72
0.7
0.71
0.71
0.71
0.7
0.7
0.71
0.69
0.7
0.69
0.69
0.7
0.7
0.69
0.69
0.7
0.7
0.71
0.7
0.72
0.73
0.73
0.74
0.74
0.74
0.74
0.73
0.73
0.73
0.73
0.74
0.74
0.75
0.74
0.73
0.73
0.72
0.72
0.73
0.71
0.71
0.71
0.72
0.72
0.71
0.71
0.73
0.71
0.72
0.7
0.7
0.69
0.7
0.69
0.69
0.68
0.68
0.68
0.66
0.67
0.67
0.67
0.68
0.68
0.68
0.68
0.69
0.68
0.68
0.68
0.68
0.68
0.68
0.69
0.7
0.7
0.7
0.7
0.7
0.69
0.69
0.7
0.69
0.7
0.69
0.7
0.7
0.7
0.69
0.71
0.7
0.7
0.7
0.71
0.72
0.71
0.7
0.7
0.71
0.7
0.7
0.69
0.69
0.7
0.69
0.7
0.7
0.7
0.71
0.73
0.73
0.74
0.75
0.76
0.75
0.75
0.74
0.73
0.73
0.72
0.7
0.71
0.7
0.69
0.68
0.67
0.67
0.67
0.66
0.67
0.66
0.67
0.67
0.66
0.66
0.67
0.68
0.72
0.77
0.78
0.78
0.77
0.75
0.75
0.74
0.75
0.77
0.77
0.77
0.77
0.79
0.78
0.78
0.78
0.77
0.76
0.75
0.75
0.72
0.72
0.7
0.7
0.7
0.69
0.69
0.7
0.69
0.7
0.71
0.71
0.72
0.73
0.73
0.73
0.74
0.74
0.74
0.75
0.74
0.75
0.74
0.74
0.74
0.73
0.73
0.72
0.71
0.7
0.71
0.7
0.69
0.69
0.69
0.68
0.69
0.68
0.68
0.68
0.69
0.68
0.69
0.7
0.71
0.71
0.73
0.74
0.74
0.75
0.76
0.75
0.76
0.75
0.75
0.75
0.75
0.74
0.75
0.76
0.75
0.74
0.75
0.75
0.75
0.74
0.73
0.74
0.73
0.72
0.71
0.72
0.71
0.71
0.7
0.7
0.69
0.7
0.69
0.71
0.69
0.7
0.71
0.72
0.72
0.73
0.74
0.74
0.74
0.75
0.75
0.73
0.75
0.74
0.74
0.75
0.74
0.74
0.75
0.73
0.75
0.73
0.73
0.72
0.71
0.71
0.72
0.71
0.71
0.71
0.72
0.7
0.71
0.7
0.71
0.69
0.7
0.69
0.7
0.69
0.69
0.7
0.69
0.69
0.69
0.71
0.7
0.71
0.72
0.72
0.73
0.73
0.73
0.74
0.73
0.73
0.73
0.72
0.73
0.73
0.72
0.73
0.74
0.74
0.74
0.74
0.74
0.73
0.73
0.72
0.71
0.71
0.7
0.69
0.7
0.7
0.7
0.69
0.7
0.7
0.71
0.73
0.75
0.73
0.74
0.73
0.73
0.73
0.73
0.74
0.73
0.73
0.72
0.73
0.72
0.73
0.73
0.73
0.73
0.72
0.73
0.71
0.71
0.71
0.71
0.71
0.7
0.71
0.7
0.7
0.71
0.7
0.7
0.69
0.7
0.69
0.68
0.69
0.68
0.67
0.67
0.67
0.67
0.67
0.66
0.66
0.66
0.66
0.66
0.65
0.67
0.66
0.67
0.66
0.67
0.67
0.67
0.66
0.66
0.65
0.65
0.65
0.64
0.64
0.64
0.63
0.64
0.64
0.65
0.64
0.65
0.65
0.65
0.65
0.66
0.65
0.65
0.66
0.64
0.65
0.64
0.64
0.64
0.64
1.57
1.1
1.1
0.62
0.62
0.61
0.61
0.62
0.62
0.62
0.62
0.64
0.64
0.64
0.65
0.65
0.64
0.64
0.63
0.64
0.63
0.63
0.63
0.62
0.63
0.56
0.67
0.6
0.72
0.65
0.67
0.68
0.69
0.69
0.7
0.69
0.68
0.68
0.67
0.64
0.65
0.63
0.63
0.62
0.63
0.61
0.63
0.63
0.64
0.65
0.65
0.65
0.65
0.67
0.67
0.7
0.73
0.76
0.82
0.85
0.87
0.83
0.82
0.81
0.78
0.77
0.75
0.73
0.74
0.73
0.71
0.71
0.7
0.69
0.7
0.7
0.7
0.69
0.71
0.7
0.72
0.72
0.73
0.73
0.74
0.74
0.73
0.74
0.74
0.73
0.73
0.74
0.74
0.73
0.73
0.74
0.74
0.74
0.73
0.74
0.73
0.72
0.7
0.71
0.71
0.71
0.71
0.69
0.71
0.71
0.71
0.71
0.7
0.71
0.71
0.71
0.72
0.73
0.73
0.74
0.73
0.74
0.75
0.74
0.74
0.74
0.73
0.73
0.73
0.73
0.73
0.73
0.72
0.72
0.71
0.71
0.69
0.7
0.69
0.68
0.69
0.69
0.69
0.69
0.7
0.7
0.71
0.72
0.7
0.71
0.71
0.71
0.7
0.69
0.7
0.68
0.69
0.67
0.68
0.68
0.69
0.69
0.7
0.71
0.72
0.73
0.74
0.73
0.73
0.73
0.72
0.72
0.71
0.71
0.69
0.69
0.69
0.69
0.69
0.68
0.69
0.69
0.7
0.71
0.71
0.72
0.7
0.72
0.7
0.71
0.7
0.71
0.7
0.71
0.7
0.7
0.71
0.7
0.7
0.7
0.7
0.7
0.7
0.7
0.69
0.69
0.69
0.69
0.69
0.68
0.69
0.68
0.68
0.68
0.68
0.68
0.68
0.69
0.68
0.67
0.68
0.67
0.68
0.68
0.69
0.7
0.71
0.74
0.73
0.77
0.77
0.76
0.76
0.75
0.74
0.73
0.71
0.69
0.67
0.66
0.66
0.65
0.64
0.65
0.66
0.67
0.65
0.67
0.67
0.7
0.68
0.7
0.71
0.73
0.74
0.76
0.77
0.78
0.79
0.81
0.81
0.8
0.79
0.78
0.78
0.76
0.73
0.73
0.72
0.72
0.72
0.7
0.7
0.68
0.68
0.68
0.67
0.66
0.67
0.67
0.67
0.68
0.69
0.7
0.73
0.75
0.75
0.76
0.76
0.77
0.77
0.78
0.78
0.78
0.77
0.77
0.77
0.77
0.76
0.74
0.75
0.74
0.73
0.72
0.73
0.71
0.73
0.71
0.72
0.73
0.73
0.72
0.74
0.73
0.74
0.73
0.73
0.73
0.71
0.72
0.71
0.72
0.72
0.72
0.73
0.74
0.76
0.74
0.73
0.74
0.74
0.75
0.76
0.74
0.75
0.73
0.73
0.73
0.72
0.72
0.72
0.71
0.72
0.75
0.75
0.76
0.76
0.75
0.73
0.74
0.72
0.71
0.7
0.69
0.67
0.68
0.66
0.66
0.65
0.66
0.66
0.66
0.65
0.66
0.67
0.66
0.68
0.68
0.69
0.68
0.69
0.69
0.7
0.7
0.7
0.7
0.65
0.66
0.7
0.7
0.65
0.65
0.66
0.64
0.63
0.63
0.63
0.64
0.64
0.64
0.64
0.65
0.65
0.66
0.67
0.67
0.66
0.67
0.6
0.61
0.71
0.71
0.64
0.64
0.63
0.63
0.63
0.65
0.66
0.69
0.69
0.7
0.7
0.71
0.72
0.71
0.72
0.72
0.71
0.7
0.68
0.69
0.69
0.67
0.68
0.67
0.67
0.69
0.69
0.7
0.71
0.72
0.73
0.74
0.75
0.76
0.76
0.76
0.75
0.76
0.73
0.72
0.71
0.69
0.67
0.68
0.68
0.69
0.71
0.73
0.74
0.75
0.78
0.79
0.77
0.77
0.77
0.77
0.76
0.76
0.74
0.75
0.75
0.76
0.75
0.76
0.78
0.79
0.78
0.78
0.78
0.78
0.78
0.77
0.76
0.77
0.76
0.75
0.74
0.74
0.73
0.74
0.71
0.71
0.72
0.71
0.68
0.7
0.7
0.69
0.68
0.68
0.68
0.68
0.69
0.68
0.69
0.69
0.69
0.69
0.7
0.69
0.69
0.68
0.68
0.66
0.66
0.63
0.64
0.63
0.64
0.65
0.67
0.72
0.78
0.84
0.84
0.84
0.85
0.84
0.86
0.81
0.81
0.82
0.81
0.79
0.77
0.77
0.76
0.75
0.75
0.73
0.73
0.72
0.72
0.72
0.72
0.71
0.72
0.73
0.72
0.73
0.73
0.73
0.73
0.72
0.74
0.73
0.73
0.73
0.74
0.75
0.74
0.76
0.76
0.75
0.75
0.74
0.75
0.74
0.74
0.74
0.75
0.73
0.75
0.73
0.74
0.73
0.73
0.72
0.72
0.72
0.71
0.71
0.69
0.7
0.69
0.7
0.69
0.7
0.7
0.71
0.7
0.7
0.71
0.71
0.7
0.71
0.69
0.69
0.69
0.69
0.68
0.68
0.68
0.68
0.68
0.69
0.69
0.7
0.7
0.71
0.7
0.71
0.72
0.72
0.72
0.72
0.72
0.72
0.73
0.72
0.71
0.72
0.72
0.71
0.71
0.7
0.7
0.7
0.69
0.68
0.68
0.61
0.61
0.7
0.7
0.7
0.64
0.64
0.63
0.63
0.62
0.61
0.61
0.61
0.6
0.6
0.59
0.6
0.6
0.62
0.65
0.69
0.7
0.69
0.73
0.73
0.71
0.73
0.76
0.76
0.78
0.75
0.73
0.72
0.73
0.73
0.73
0.73
0.73
0.74
0.73
0.73
0.73
0.72
0.71
0.7
0.69
0.69
0.69
0.69
0.69
0.68
0.68
0.67
0.68
0.68
0.68
0.68
0.69
0.69
0.69
0.69
0.7
0.7
0.71
0.72
0.73
0.73
0.73
0.74
0.73
0.72
0.72
0.72
0.71
0.71
0.7
0.7
0.68
0.68
0.67
0.67
0.66
0.65
0.65
0.68
0.72
0.73
0.75
0.77
0.77
0.78
0.77
0.77
0.76
0.75
0.73
0.73
0.73
0.71
0.7
0.69
0.68
0.69
0.66
0.66
0.67
0.67
0.66
0.67
0.67
0.67
0.68
0.69
0.71
0.73
0.74
0.75
0.76
0.76
0.77
0.77
0.76
0.76
0.76
0.74
0.73
0.72
0.71
0.7
0.69
0.68
0.68
0.67
0.67
0.66
0.67
0.67
0.65
0.67
0.68
0.68
0.7
0.71
0.72
0.72
0.74
0.74
0.75
0.73
0.73
0.72
0.72
0.7
0.7
0.69
0.69
0.67
0.68
0.66
0.66
0.65
0.65
0.64
0.65
0.69
0.74
0.8
0.86
0.88
0.88
0.88
0.87
0.85
0.84
0.83
0.81
0.78
0.77
0.75
0.75
0.73
0.71
0.71
0.69
0.68
0.67
0.67
0.66
0.65
0.65
0.65
0.66
0.68
0.7
0.7
0.72
0.74
0.76
0.79
0.79
0.8
0.81
0.8
0.8
0.8
0.79
0.77
0.77
0.76
0.76
0.75
0.75
0.76
0.75
0.75
0.74
0.75
0.74
0.73
0.73
0.72
0.72
0.7
0.71
0.7
0.69
0.7
0.69
0.7
0.7
0.7
0.7
0.7
0.71
0.7
0.72
0.72
0.72
0.73
0.74
0.73
0.75
0.75
0.74
0.75
0.74
0.74
0.78
0.76
0.75
0.75
0.74
0.73
0.73
0.73
0.72
0.72
0.73
0.72
0.73
0.73
0.72
0.72
0.72
0.72
0.71
0.71
0.73
0.71
0.7
0.69
0.71
0.7
0.69
0.7
0.69
0.7
0.7
0.71
0.71
0.71
0.73
0.74
0.75
0.76
0.78
0.78
0.78
0.79
0.79
0.78
0.78
0.77
0.77
0.74
0.73
0.72
0.72
0.71
0.7
0.71
0.7
0.71
0.71
0.73
0.74
0.75
0.76
0.76
0.76
0.77
0.75
0.74
0.75
0.74
0.73
0.73
0.71
0.71
0.71
0.7
0.71
0.69
0.7
0.69
0.68
0.68
0.69
0.69
0.68
0.7
0.7
0.73
0.72
0.72
0.73
0.74
0.75
0.75
0.75
0.74
0.75
0.75
0.75
0.74
0.75
0.75
0.76
0.75
0.76
0.76
0.76
0.74
0.74
0.73
0.72
0.71
0.72
0.72
0.73
0.72
0.72
0.71
0.72
0.71
0.72
0.71
0.71
0.72
0.71
0.72
0.71
0.71
0.7
0.72
0.7
0.71
0.71
0.7
0.71
0.7
0.72
0.72
0.72
0.73
0.72
0.72
0.71
0.7
0.68
0.67
0.66
0.66
0.65
0.66
0.66
0.67
0.69
0.7
0.71
0.71
0.72
0.72
0.72
0.75
0.75
0.77
0.77
0.76
0.77
0.74
0.74
0.74
0.72
0.73
0.72
0.71
0.7
0.71
0.7
0.69
0.7
0.7
0.71
0.71
0.7
0.7
0.69
0.71
0.71
0.75
0.76
0.77
0.77
0.8
0.81
0.81
0.8
0.79
0.8
0.79
0.79
0.78
0.79
0.78
0.79
0.78
0.79
0.79
0.79
0.8
0.79
0.81
0.8
0.8
0.8
0.79
0.79
0.79
0.79
0.77
0.78
0.77
0.74
0.76
0.75
0.75
0.77
0.76
0.75
0.75
0.74
0.73
0.74
0.73
0.72
0.72
0.72
0.71
0.72
0.72
0.72
0.72
0.74
0.75
0.75
0.77
0.79
0.79
0.8
0.81
0.8
0.8
0.79
0.78
0.78
0.77
0.76
0.75
0.74
0.73
0.72
0.71
0.71
0.71
0.72
0.72
0.73
0.76
0.75
0.78
0.79
0.8
0.79
0.81
0.81
0.83
0.82
0.87
0.85
0.9
0.91
0.95
0.95
0.97
0.98
0.99
0.96
0.97
0.94
0.89
0.83
0.81
0.78
0.77
0.77
0.75
0.76
0.75
0.76
0.75
0.75
0.74
0.75
0.75
0.75
0.76
0.77
0.76
0.77
0.76
0.77
0.78
0.78
0.78
0.76
0.77
0.76
0.75
0.74
0.74
0.73
0.72
0.73
0.71
0.71
0.72
0.72
0.73
0.71
0.72
0.73
0.71
0.73
0.73
0.72
0.73
0.73
0.72
0.72
0.71
0.71
0.7
0.72
0.7
0.71
0.71
0.71
0.71
0.7
0.71
0.71
0.71
0.72
0.71
0.73
0.73
0.73
0.73
0.74
0.73
0.72
0.72
0.71
0.7
0.7
0.7
0.7
0.7
0.69
0.71
0.71
0.73
0.74
0.75
0.75
0.76
0.76
0.76
0.77
0.77
0.79
0.78
0.8
0.82
0.8
0.82
0.83
0.85
0.8
0.79
0.77
0.76
0.74
0.75
0.74
0.74
0.75
0.73
0.75
0.73
0.75
0.75
0.75
0.76
0.75
0.76
0.76
0.77
0.76
0.76
0.76
0.76
0.75
0.75
0.74
0.75
0.74
0.74
0.74
0.74
0.73
0.75
0.73
0.76
0.75
0.75
0.75
0.77
0.77
0.77
0.78
0.81
0.77
0.74
0.75
0.77
0.77
0.78
0.79
0.79
0.78
0.79
0.76
0.76
0.75
0.72
0.71
0.7
0.7
0.69
0.69
0.68
0.69
0.69
0.69
0.71
0.72
0.73
0.75
0.76
0.76
0.78
0.77
0.78
0.77
0.77
0.77
0.77
0.74
0.74
0.74
0.72
0.72
0.72
0.71
0.71
0.71
0.71
0.72
0.73
0.73
0.73
0.75
0.76
0.76
0.77
0.78
0.77
0.78
0.78
0.76
0.76
0.77
0.76
0.74
0.74
0.76
0.73
0.74
0.73
0.74
0.77
0.79
0.84
0.9
0.87
0.87
0.83
0.83
0.83
0.85
0.82
0.8
0.81
0.78
0.77
0.75
0.76
0.77
0.78
0.79
0.79
0.81
0.81
0.8
0.81
0.8
0.82
0.82
0.82
0.82
0.81
0.81
0.81
0.82
0.82
0.82
0.83
0.82
0.83
0.82
0.82
0.82
0.8
0.81
0.79
0.79
0.78
0.8
0.8
0.76
0.75
0.77
0.75
0.74
0.73
0.73
0.72
0.72
0.72
0.72
0.73
0.72
0.75
0.77
0.79
0.8
0.85
0.84
0.87
0.87
0.85
0.86
0.83
0.84
0.8
0.8
0.79
0.77
0.77
0.75
0.75
0.73
0.73
0.73
0.72
0.74
0.74
0.72
0.71
0.72
0.72
0.73
0.74
0.73
0.73
0.72
0.72
0.71
0.71
0.71
0.71
0.71
0.72
0.73
0.72
0.74
0.75
0.77
0.78
0.78
0.79
0.8
0.79
0.79
0.8
0.79
0.77
0.78
0.76
0.75
0.75
0.75
0.74
0.75
0.74
0.75
0.74
0.75
0.73
0.74
0.75
0.74
0.75
0.76
0.77
0.78
0.79
0.78
0.79
0.77
0.77
0.78
0.77
0.77
0.77
0.74
0.74
0.72
0.71
0.7
0.7
0.7
0.69
0.69
0.67
0.69
0.7
0.69
0.7
0.72
0.73
0.73
0.75
0.75
0.75
0.76
0.76
0.76
0.76
0.76
0.76
0.76
0.75
0.76
0.76
0.75
0.73
0.73
0.73
0.74
0.73
0.73
0.74
0.73
0.75
0.74
0.75
0.76
0.76
0.78
0.76
0.79
0.76
0.76
0.77
0.74
0.74
0.74
0.72
0.72
0.73
0.73
0.73
0.75
0.75
0.75
0.77
0.77
0.79
0.81
0.84
0.86
0.88
0.86
0.85
0.87
0.84
0.83
0.84
0.84
0.81
0.81
0.79
0.76
0.79
0.82
0.81
0.84
0.85
0.82
0.83
0.82
0.84
0.82
0.89
0.9
0.86
0.89
0.89
0.86
0.88
0.86
0.87
0.9
0.87
0.9
0.92
0.84
0.85
0.8
0.77
0.81
0.77
0.76
0.75
0.73
0.72
0.72
0.71
0.71
0.71
0.7
0.7
0.7
0.71
0.7
0.73
0.73
0.74
0.76
0.74
0.75
0.75
0.75
0.74
0.73
0.73
0.73
0.73
0.71
0.72
0.71
0.71
0.69
0.7
0.69
0.7
0.7
0.73
0.73
0.77
0.74
0.79
0.83
0.8
0.87
0.82
0.85
0.82
0.79
0.78
0.84
0.81
0.86
0.81
0.85
0.8
0.82
0.79
0.78
0.76
0.75
0.72
0.72
0.7
0.7
0.69
0.69
0.69
0.69
0.68
0.69
0.7
0.73
0.74
0.74
0.78
0.78
0.79
0.79
0.8
0.8
0.8
0.78
0.79
0.78
0.76
0.77
0.75
0.75
0.76
0.74
0.75
0.72
0.71
0.72
0.72
0.73
0.73
0.73
0.72
0.75
0.73
0.73
0.76
0.74
0.77
0.78
0.76
0.79
0.81
0.78
0.81
0.8
0.78
0.79
0.77
0.77
0.74
0.72
0.72
0.71
0.7
0.69
0.7
0.69
0.69
0.7
0.71
0.71
0.71
0.74
0.73
0.75
0.76
0.76
0.77
0.78
0.77
0.76
0.77
0.77
0.77
0.74
0.74
0.73
0.73
0.73
0.72
0.73
0.72
0.71
0.72
0.71
0.73
0.72
0.71
0.73
0.75
0.73
0.75
0.75
0.76
0.77
0.76
0.77
0.78
0.78
0.76
0.77
0.77
0.76
0.77
0.76
0.76
0.76
0.74
0.72
0.71
0.69
0.69
0.69
0.67
0.68
0.66
0.67
0.66
0.67
0.67
0.68
0.69
0.71
0.71
0.72
0.74
0.73
0.75
0.74
0.75
0.74
0.75
0.75
0.74
0.76
0.72
0.73
0.72
0.72
0.72
0.71
0.72
0.72
0.72
0.73
0.73
0.72
0.73
0.74
0.73
0.75
0.75
0.75
0.77
0.75
0.78
0.78
0.76
0.78
0.77
0.79
0.79
0.81
0.83
0.81
0.8
0.82
0.78
0.78
0.78
0.8
0.78
0.78
0.78
0.78
0.77
0.79
0.78
0.79
0.8
0.82
0.84
0.83
0.84
0.82
0.82
0.79
0.8
0.78
0.8
0.76
0.76
0.77
0.75
0.75
0.74
0.74
0.76
0.76
0.76
0.78
0.79
0.78
0.8
0.8
0.78
0.79
0.75
0.75
0.73
0.71
0.7
0.7
0.7
0.69
0.69
0.69
0.7
0.73
0.72
0.74
0.76
0.79
0.8
0.78
0.79
0.78
0.77
0.76
0.76
0.76
0.74
0.74
0.73
0.72
0.7
0.71
0.7
0.71
0.71
0.71
0.72
0.73
0.72
0.74
0.74
0.76
0.77
0.76
0.79
0.8
0.78
0.8
0.8
0.83
0.81
0.81
0.82
0.83
0.78
0.8
0.78
0.75
0.74
0.72
0.7
0.71
0.69
0.68
0.68
0.69
0.68
0.7
0.7
0.72
0.73
0.73
0.76
0.77
0.79
0.79
0.77
0.79
0.79
0.81
0.78
0.78
0.79
0.77
0.77
0.77
0.77
0.74
0.74
0.73
0.72
0.74
0.72
0.74
0.73
0.73
0.75
0.74
0.76
0.74
0.77
0.78
0.77
0.78
0.79
0.82
0.81
0.85
0.85
0.83
0.85
0.87
0.85
0.85
0.87
0.83
0.82
0.83
0.82
0.8
0.81
0.82
0.8
0.81
0.82
0.81
0.79
0.8
0.78
0.75
0.75
0.72
0.71
0.71
0.69
0.69
0.68
0.67
0.68
0.68
0.69
0.71
0.73
0.76
0.76
0.75
0.77
0.76
0.76
0.77
0.74
0.75
0.73
0.73
0.71
0.71
0.71
0.71
0.7
0.71
0.71
0.7
0.72
0.71
0.72
0.73
0.71
0.73
0.74
0.73
0.74
0.75
0.78
0.76
0.79
0.78
0.81
0.81
0.8
0.82
0.79
0.8
0.8
0.79
0.8
0.78
0.77
0.78
0.77
0.75
0.74
0.72
0.71
0.71
0.7
0.7
0.69
0.68
0.67
0.68
0.68
0.7
0.73
0.73
0.74
0.74
0.74
0.76
0.74
0.74
0.74
0.75
0.74
0.74
0.73
0.74
0.72
0.72
0.73
0.72
0.72
0.73
0.72
0.73
0.72
0.71
0.73
0.71
0.72
0.71
0.71
0.72
0.71
0.73
0.74
0.73
0.72
0.73
0.74
0.72
0.74
0.72
0.71
0.7
0.7
0.68
0.67
0.67
0.66
0.66
0.66
0.66
0.67
0.66
0.69
0.71
0.73
0.72
0.74
0.74
0.74
0.74
0.75
0.75
0.75
0.77
0.75
0.76
0.75
0.74
0.74
0.72
0.72
0.71
0.71
0.72
0.71
0.71
0.73
0.72
0.74
0.74
0.76
0.74
0.74
0.77
0.74
0.72
0.74
0.75
0.84
0.86
0.95
0.96
0.88
0.85
0.88
0.84
0.85
0.84
0.81
0.83
0.79
0.8
0.81
0.8
0.82
0.82
0.83
0.83
0.85
0.82
0.85
0.81
0.84
0.85
0.84
0.81
0.82
0.82
0.78
0.82
0.77
0.77
0.77
0.77
0.81
0.75
0.76
0.73
0.73
0.71
0.7
0.69
0.67
0.68
0.68
0.66
0.66
0.67
0.67
0.71
0.73
0.71
0.75
0.76
0.78
0.77
0.77
0.77
0.76
0.76
0.75
0.75
0.75
0.75
0.74
0.74
0.74
0.73
0.73
0.73
0.73
0.74
0.75
0.74
0.76
0.73
0.76
0.73
0.78
0.74
0.76
0.79
0.75
0.77
0.73
0.72
0.72
0.7
0.7
0.69
0.67
0.68
0.67
0.66
0.67
0.66
0.67
0.69
0.69
0.7
0.7
0.71
0.72
0.72
0.72
0.73
0.74
0.72
0.72
0.72
0.72
0.71
0.72
0.71
0.72
0.7
0.7
0.71
0.7
0.71
0.7
0.7
0.71
0.7
0.71
0.71
0.72
0.72
0.73
0.76
0.75
0.77
0.78
0.77
0.79
0.8
0.77
0.78
0.78
0.77
0.74
0.71
0.72
0.7
0.69
0.69
0.68
0.67
0.67
0.68
0.68
0.69
0.69
0.72
0.73
0.73
0.73
0.74
0.74
0.74
0.75
0.74
0.75
0.74
0.73
0.73
0.72
0.71
0.71
0.69
0.69
0.68
0.68
0.68
0.67
0.68
0.7
0.7
0.7
0.7
0.71
0.72
0.72
0.75
0.75
0.75
0.75
0.76
0.75
0.76
0.75
0.77
0.78
0.8
0.81
0.85
0.83
0.84
0.85
0.86
0.84
0.84
0.82
0.83
0.8
0.79
0.79
0.78
0.8
0.77
0.78
0.79
0.76
0.76
0.75
0.72
0.71
0.71
0.69
0.68
0.68
0.67
0.66
0.66
0.67
0.67
0.7
0.69
0.69
0.71
0.71
0.72
0.71
0.73
0.72
0.71
0.71
0.71
0.69
0.69
0.68
0.67
0.67
0.67
0.68
0.68
0.7
0.69
0.71
0.72
0.73
0.73
0.72
0.73
0.73
0.72
0.74
0.73
0.73
0.75
0.74
0.79
0.76
0.8
0.77
0.8
0.77
0.79
0.77
0.76
0.76
0.74
0.73
0.73
0.73
0.76
0.76
0.79
0.78
0.8
0.78
0.8
0.76
0.79
0.76
0.76
0.76
0.74
0.73
0.7
0.7
0.67
0.67
0.66
0.65
0.65
0.64
0.65
0.66
0.67
0.69
0.7
0.7
0.71
0.73
0.74
0.73
0.75
0.75
0.73
0.73
0.72
0.72
0.7
0.7
0.7
0.69
0.69
0.69
0.69
0.69
0.68
0.7
0.69
0.7
0.69
0.7
0.7
0.72
0.71
0.71
0.72
0.72
0.73
0.75
0.72
0.72
0.74
0.73
0.71
0.72
0.7
0.7
0.7
0.68
0.68
0.68
0.68
0.68
0.69
0.69
0.72
0.73
0.73
0.75
0.75
0.79
0.77
0.75
0.77
0.77
0.76
0.74
0.75
0.74
0.71
0.71
0.71
0.7
0.7
0.69
0.7
0.7
0.69
0.68
0.68
0.68
0.67
0.68
0.71
0.7
0.7
0.7
0.7
0.69
0.68
0.68
0.68
0.68
0.68
0.68
0.67
0.69
0.69
0.7
0.73
0.74
0.75
0.76
0.77
0.78
0.77
0.78
0.77
0.75
0.75
0.76
0.75
0.73
0.72
0.72
0.71
0.71
0.71
0.7
0.71
0.7
0.73
0.71
0.7
0.71
0.75
0.71
0.71
0.7
0.71
0.71
0.69
0.7
0.7
0.7
0.72
0.7
0.73
0.74
0.76
0.77
0.79
0.83
0.83
0.8
0.81
0.81
0.8
0.81
0.79
0.77
0.76
0.76
0.74
0.74
0.72
0.7
0.69
0.69
0.69
0.69
0.69
0.69
0.68
0.7
0.72
0.7
0.7
0.71
0.71
0.7
0.71
0.7
0.72
0.74
0.72
0.76
0.76
0.78
0.76
0.8
0.8
0.83
0.84
0.83
0.85
0.84
0.82
0.83
0.82
0.83
0.83
0.79
0.8
0.77
0.78
0.77
0.74
0.72
0.72
0.71
0.7
0.7
0.69
0.69
0.69
0.69
0.68
0.7
0.71
0.71
0.76
0.75
0.75
0.78
0.77
0.8
0.8
0.77
0.79
0.79
0.8
0.77
0.76
0.76
0.75
0.75
0.74
0.71
0.7
0.7
0.71
0.7
0.69
0.69
0.71
0.7
0.7
0.71
0.72
0.71
0.72
0.74
0.75
0.73
0.72
0.71
0.71
0.7
0.69
0.69
0.68
0.68
0.68
0.67
0.69
0.69
0.72
0.72
0.74
0.74
0.77
0.79
0.78
0.77
0.77
0.76
0.75
0.73
0.73
0.71
0.72
0.69
0.69
0.68
0.68
0.67
0.67
0.68
0.68
0.71
0.72
0.74
0.73
0.76
0.77
0.75
0.77
0.74
0.74
0.76
0.73
0.72
0.75
0.72
0.72
0.73
0.71
0.72
0.71
0.7
0.7
0.69
0.7
0.68
0.69
0.69
0.68
0.69
0.7
0.71
0.72
0.73
0.74
0.76
0.76
0.77
0.79
0.78
0.79
0.79
0.79
0.78
0.77
0.77
0.74
0.72
0.72
0.71
0.7
0.71
0.69
0.7
0.7
0.68
0.69
0.69
0.7
0.7
0.7
0.72
0.7
0.71
0.74
0.71
0.74
0.75
0.77
0.75
0.76
0.75
0.75
0.76
0.79
0.77
0.76
0.77
0.74
0.72
0.7
0.7
0.69
0.69
0.68
0.68
0.69
0.69
0.7
0.7
0.72
0.71
0.73
0.73
0.74
0.75
0.74
0.75
0.76
0.77
0.78
0.76
0.76
0.75
0.75
0.73
0.73
0.74
0.74
0.74
0.74
0.74
0.73
0.74
0.72
0.72
0.72
0.72
0.7
0.71
0.72
0.71
0.71
0.71
0.73
0.73
0.73
0.74
0.72
0.71
0.73
0.71
0.7
0.73
0.71
0.72
0.77
0.72
0.73
0.74
0.73
0.75
0.72
0.72
0.74
0.72
0.69
0.7
0.69
0.68
0.68
0.66
0.67
0.67
0.66
0.66
0.67
0.67
0.68
0.69
0.72
0.73
0.73
0.74
0.76
0.78
0.76
0.75
0.74
0.74
0.74
0.72
0.71
0.7
0.69
0.69
0.68
0.68
0.69
0.68
0.68
0.69
0.69
0.69
0.69
0.71
0.71
0.71
0.71
0.71
0.71
0.72
0.72
0.71
0.71
0.72
0.71
0.7
0.71
0.7
0.7
0.71
0.73
0.73
0.7
0.7
0.7
0.7
0.7
0.7
0.7
0.7
0.7
0.72
0.74
0.73
0.75
0.77
0.76
0.78
0.78
0.79
0.8
0.78
0.8
0.8
0.79
0.77
0.78
0.78
0.79
0.77
0.78
0.77
0.78
0.75
0.72
0.74
0.74
0.73
0.72
0.74
0.76
0.75
0.74
0.73
0.74
0.73
0.72
0.73
0.75
0.72
0.75
0.75
0.74
0.73
0.71
0.71
0.7
0.7
0.7
0.69
0.69
0.68
0.69
0.69
0.71
0.73
0.75
0.76
0.8
0.82
0.81
0.84
0.84
0.81
0.81
0.79
0.78
0.78
0.75
0.74
0.74
0.72
0.72
0.71
0.71
0.7
0.71
0.7
0.69
0.71
0.7
0.71
0.71
0.74
0.72
0.72
0.73
0.72
0.71
0.73
0.73
0.71
0.73
0.73
0.73
0.77
0.74
0.73
0.72
0.71
0.7
0.7
0.69
0.68
0.68
0.67
0.67
0.67
0.67
0.67
0.68
0.67
0.69
0.68
0.69
0.69
0.71
0.7
0.72
0.72
0.73
0.73
0.74
0.75
0.75
0.74
0.75
0.75
0.73
0.74
0.74
0.72
0.73
0.72
0.71
0.71
0.71
0.69
0.71
0.71
0.71
0.71
0.73
0.73
0.74
0.75
0.74
0.73
0.74
0.72
0.72
0.74
0.75
0.73
0.76
0.76
0.74
0.78
0.74
0.72
0.73
0.72
0.7
0.7
0.7
0.7
0.69
0.7
0.7
0.7
0.72
0.73
0.75
0.74
0.75
0.75
0.76
0.76
0.76
0.76
0.76
0.76
0.74
0.73
0.73
0.72
0.72
0.72
0.72
0.72
0.72
0.73
0.73
0.73
0.73
0.73
0.75
0.75
0.77
0.76
0.74
0.75
0.77
0.75
0.74
0.76
0.77
0.75
0.74
0.78
0.75
0.74
0.76
0.74
0.74
0.77
0.73
0.73
0.76
0.75
0.74
0.73
0.73
0.71
0.7
0.7
0.69
0.68
0.68
0.69
0.68
0.71
0.71
0.75
0.75
0.78
0.79
0.79
0.8
0.8
0.78
0.78
0.79
0.77
0.76
0.76
0.75
0.76
0.75
0.75
0.74
0.72
0.74
0.73
0.73
0.73
0.71
0.72
0.71
0.7
0.7
0.69
0.71
0.7
0.7
0.72
0.72
0.73
0.73
0.75
0.75
0.74
0.75
0.73
0.72
0.72
0.71
0.7
0.72
0.72
0.7
0.72
0.73
0.72
0.69
0.69
0.69
0.69
0.68
0.68
0.67
0.67
0.67
0.69
0.68
0.7
0.71
0.74
0.75
0.78
0.78
0.77
0.79
0.78
0.83
0.82
0.83
0.78
0.78
0.75
0.74
0.73
0.73
0.73
0.71
0.71
0.7
0.7
0.7
0.71
0.72
0.7
0.73
0.72
0.74
0.73
0.74
0.75
0.75
0.73
0.74
0.73
0.72
0.71
0.73
0.71
0.71
0.72
0.72
0.72
0.75
0.71
0.72
0.71
0.71
0.7
0.69
0.69
0.69
0.68
0.68
0.67
0.68
0.68
0.68
0.7
0.7
0.71
0.73
0.75
0.77
0.79
0.76
0.76
0.79
0.79
0.78
0.79
0.78
0.78
0.76
0.75
0.77
0.75
0.75
0.73
0.74
0.73
0.74
0.72
0.71
0.72
0.7
0.7
0.71
0.71
0.72
0.72
0.71
0.72
0.7
0.73
0.75
0.74
0.72
0.75
0.72
0.73
0.71
0.7
0.7
0.69
0.67
0.67
0.67
0.65
0.66
0.65
0.66
0.66
0.67
0.67
0.68
0.69
0.67
0.69
0.68
0.68
0.68
0.68
0.68
0.68
0.67
0.67
0.68
0.66
0.67
0.66
0.67
0.66
0.65
0.67
0.67
0.67
0.72
0.76
0.8
0.8
0.78
0.79
0.79
0.79
0.78
0.76
0.75
0.74
0.73
0.74
0.72
0.74
0.74
0.71
0.71
0.7
0.69
0.68
0.67
0.67
0.66
0.66
0.66
0.69
0.67
0.69
0.7
0.71
0.71
0.71
0.72
0.72
0.72
0.74
0.74
0.75
0.75
0.76
0.75
0.77
0.77
0.77
0.76
0.77
0.77
0.75
0.76
0.75
0.73
0.73
0.72
0.72
0.71
0.71
0.7
0.7
0.7
0.68
0.68
0.68
0.67
0.66
0.67
0.65
0.66
0.66
0.66
0.64
0.65
0.75
0.7
0.69
0.7
0.69
0.69
0.69
0.68
0.69
0.68
0.67
0.68
0.66
0.67
0.65
0.65
0.64
0.64
0.62
0.62
0.63
0.62
0.61
0.62
0.64
0.67
0.7
0.75
0.82
0.88
0.9
0.92
0.94
0.93
0.95
0.95
0.92
0.9
0.88
0.87
0.84
0.82
0.81
0.8
0.8
0.79
0.79
0.75
0.75
0.75
0.76
0.74
0.75
0.74
0.74
0.75
0.73
0.74
0.75
0.75
0.74
0.75
0.75
0.74
0.76
0.76
0.76
0.78
0.76
0.79
0.8
0.82
0.82
0.84
0.83
0.83
0.81
0.8
0.8
0.79
0.79
0.77
0.76
0.76
0.74
0.76
0.74
0.76
0.73
0.76
0.76
0.77
0.76
0.75
0.78
0.76
0.76
0.74
0.75
0.76
0.74
0.74
0.75
0.73
0.74
0.74
0.74
0.73
0.74
0.76
0.76
0.78
0.8
0.78
0.8
0.8
0.8
0.8
0.77
0.79
0.78
0.77
0.78
0.78
0.77
0.76
0.75
0.74
0.7
0.7
0.72
0.73
0.73
0.77
0.8
0.79
0.79
0.78
0.76
0.78
0.78
0.76
0.75
0.73
0.71
0.71
0.72
0.7
0.7
0.7
0.71
0.71
0.72
0.75
0.76
0.77
0.8
0.81
0.8
0.83
0.84
0.82
0.83
0.82
0.8
0.79
0.8
0.78
0.78
0.76
0.75
0.73
0.7
0.72
0.7
0.7
0.71
0.71
0.72
0.74
0.73
0.76
0.76
0.74
0.76
0.77
0.77
0.76
0.77
0.74
0.73
0.72
0.7
0.69
0.69
0.69
0.66
0.68
0.69
0.7
0.74
0.75
0.79
0.79
0.84
0.86
0.85
0.86
0.87
0.85
0.84
0.82
0.82
0.81
0.79
0.78
0.76
0.76
0.75
0.74
0.73
0.72
0.7
0.71
0.71
0.71
0.72
0.74
0.73
0.8
0.8
0.77
0.78
0.79
0.75
0.75
0.77
0.76
0.74
0.73
0.75
0.71
0.72
0.71
0.69
0.7
0.69
0.69
0.68
0.69
0.69
0.69
0.71
0.71
0.73
0.73
0.75
0.76
0.77
0.78
0.79
0.77
0.78
0.76
0.77
0.76
0.77
0.77
0.78
0.77
0.78
0.76
0.76
0.75
0.74
0.73
0.73
0.73
0.73
0.71
0.71
0.71
0.71
0.71
0.71
0.71
0.72
0.72
0.73
0.71
0.72
0.74
0.73
0.71
0.72
0.71
0.7
0.7
0.68
0.69
0.69
0.67
0.68
0.68
0.69
0.68
0.68
0.69
0.69
0.71
0.71
0.7
0.71
0.72
0.71
0.71
0.71
0.7
0.69
0.69
0.68
0.68
0.67
0.67
0.67
0.67
0.68
0.7
0.72
0.72
0.73
0.75
0.79
0.79
0.78
0.77
0.77
0.77
0.75
0.74
0.71
0.72
0.7
0.68
0.69
0.68
0.68
0.67
0.68
0.69
0.68
0.68
0.69
0.7
0.69
0.71
0.71
0.73
0.74
0.76
0.77
0.77
0.78
0.79
0.79
0.81
0.79
0.8
0.78
0.77
0.75
0.75
0.76
0.74
0.74
0.72
0.7
0.71
0.72
0.74
0.73
0.78
0.76
0.78
0.78
0.75
0.74
0.73
0.74
0.73
0.72
0.72
0.72
0.73
0.71
0.73
0.75
0.75
0.75
0.77
0.77
0.76
0.78
0.77
0.78
0.78
0.79
0.79
0.8
0.78
0.79
0.77
0.76
0.74
0.72
0.71
0.72
0.73
0.72
0.71
0.72
0.72
0.71
0.72
0.72
0.72
0.74
0.76
0.77
0.76
0.77
0.74
0.73
0.73
0.7
0.71
0.69
0.74
0.74
0.91
0.79
0.83
0.67
0.71
0.67
0.67
0.68
0.68
0.7
0.7
0.7
0.7
0.71
0.7
0.7
0.71
0.68
0.67
0.68
0.67
0.66
0.67
0.66
0.68
0.69
0.72
0.74
0.76
0.75
0.77
0.79
0.79
0.79
0.79
0.77
0.79
0.77
0.78
0.75
0.76
0.77
0.75
0.74
0.76
0.75
0.73
0.75
0.76
0.75
0.75
0.78
0.78
0.77
0.79
0.79
0.77
0.78
0.78
0.76
0.77
0.77
0.76
0.74
0.75
0.74
0.76
0.75
0.74
0.76
0.77
0.76
0.76
0.73
0.73
0.73
0.72
0.72
0.7
0.72
0.71
0.71
0.71
0.71
0.72
0.72
0.76
0.74
0.75
0.76
0.77
0.75
0.76
0.76
0.75
0.75
0.77
0.76
0.76
0.78
0.79
0.8
0.78
0.8
0.81
0.79
0.79
0.78
0.77
0.77
0.77
0.75
0.76
0.76
0.74
0.75
0.77
0.77
0.75
0.77
0.75
0.74
0.76
0.75
0.73
0.75
0.75
0.74
0.75
0.76
0.76
0.78
0.79
0.78
0.78
0.82
0.82
0.8
0.81
0.82
0.81
0.79
0.81
0.8
0.76
0.77
0.75
0.74
0.76
0.76
0.73
0.75
0.76
0.75
0.74
0.76
0.76
0.74
0.76
0.75
0.76
0.77
0.77
0.76
0.77
0.79
0.78
0.77
0.79
0.77
0.76
0.76
0.73
0.74
0.74
0.73
0.73
0.73
0.73
0.73
0.74
0.75
0.76
0.74
0.76
0.76
0.77
0.76
0.78
0.77
0.77
0.78
0.77
0.75
0.77
0.78
0.76
0.77
0.79
0.79
0.77
0.78
0.79
0.77
0.78
0.77
0.75
0.74
0.76
0.76
0.75
0.77
0.77
0.76
0.78
0.76
0.75
0.76
0.76
0.75
0.74
0.73
0.74
0.75
0.73
0.74
0.72
0.74
0.73
0.73
0.76
0.76
0.75
0.78
0.78
0.77
0.77
0.81
0.8
0.81
0.79
0.8
0.81
0.77
0.78
0.77
0.76
0.77
0.76
0.76
0.74
0.75
0.73
0.73
0.72
0.72
0.74
0.75
0.75
0.77
0.79
0.81
0.79
0.82
0.82
0.8
0.78
0.8
0.79
0.77
0.77
0.79
0.76
0.77
0.78
0.76
0.76
0.78
0.76
0.78
0.78
0.78
0.77
0.78
0.76
0.75
0.74
0.73
0.73
0.73
0.72
0.73
0.71
0.73
0.73
0.72
0.72
0.74
0.74
0.75
0.74
0.76
0.76
0.77
0.76
0.76
0.77
0.76
0.77
0.77
0.78
0.75
0.76
0.76
0.74
0.76
0.75
0.77
0.75
0.76
0.76
0.77
0.75
0.75
0.76
0.75
0.74
0.74
0.76
0.76
0.75
0.77
0.78
0.74
0.76
0.77
0.74
0.74
0.74
0.75
0.73
0.72
0.72
0.7
0.7
0.68
0.69
0.69
0.69
0.69
0.69
0.7
0.69
0.7
0.69
0.7
0.68
0.69
0.67
0.68
0.68
0.68
0.67
0.67
0.66
0.67
0.66
0.66
0.67
0.67
0.66
0.69
0.69
0.7
0.73
0.72
0.75
0.78
0.76
0.79
0.8
0.8
0.76
0.77
0.77
0.74
0.74
0.74
0.72
0.74
0.75
0.75
0.73
0.73
0.7
0.7
0.7
0.7
0.7
0.69
0.69
0.69
0.68
0.7
0.72
0.77
0.79
0.84
0.85
0.87
0.86
0.87
0.87
0.84
0.83
0.82
0.81
0.79
0.77
0.76
0.75
0.74
0.72
0.7
0.7
0.69
0.69
0.7
0.72
0.73
0.75
0.78
0.81
0.76
0.78
0.78
0.77
0.73
0.76
0.73
0.73
0.75
0.72
0.71
0.72
0.7
0.72
0.72
0.71
0.71
0.71
0.7
0.71
0.71
0.71
0.71
0.71
0.71
0.73
0.72
0.76
0.77
0.76
0.79
0.76
0.78
0.8
0.76
0.77
0.77
0.77
0.75
0.75
0.73
0.73
0.73
0.72
0.75
0.74
0.77
0.75
0.75
0.78
0.76
0.75
0.78
0.76
0.77
0.74
0.77
0.72
0.73
0.76
0.72
0.73
0.73
0.71
0.71
0.71
0.71
0.7
0.7
0.69
0.69
0.7
0.68
0.7
0.71
0.7
0.71
0.72
0.72
0.72
0.73
0.73
0.74
0.73
0.74
0.74
0.74
0.75
0.74
0.74
0.74
0.72
0.73
0.73
0.74
0.72
0.73
0.73
0.74
0.73
0.72
0.74
0.72
0.72
0.73
0.74
0.72
0.73
0.74
0.73
0.71
0.73
0.71
0.71
0.7
0.7
0.69
0.69
0.69
0.68
0.69
0.69
0.68
0.7
0.7
0.7
0.72
0.72
0.74
0.74
0.74
0.74
0.75
0.74
0.73
0.72
0.71
0.71
0.69
0.69
0.67
0.68
0.66
0.67
0.66
0.67
0.66
0.68
0.69
0.7
0.74
0.77
0.79
0.82
0.83
0.83
0.82
0.8
0.8
0.77
0.74
0.72
0.71
0.7
0.69
0.68
0.69
0.69
0.69
0.7
0.73
0.71
0.73
0.73
0.74
0.74
0.73
0.75
0.76
0.75
0.78
0.78
0.8
0.79
0.8
0.81
0.8
0.8
0.79
0.81
0.79
0.79
0.79
0.78
0.78
0.77
0.78
0.8
0.77
0.78
0.8
0.79
0.77
0.79
0.79
0.78
0.78
0.75
0.75
0.74
0.73
0.72
0.73
0.7
0.71
0.71
0.7
0.7
0.7
0.69
0.69
0.69
0.69
0.68
0.68
0.68
0.67
0.68
0.67
0.67
0.67
0.69
0.69
0.71
0.74
0.75
0.74
0.76
0.77
0.78
0.77
0.76
0.76
0.75
0.74
0.73
0.74
0.75
0.74
0.75
0.74
0.72
0.75
0.75
0.73
0.76
0.78
0.73
0.74
0.72
0.72
0.72
0.7
0.69
0.69
0.69
0.68
0.69
0.7
0.72
0.76
0.77
0.79
0.83
0.82
0.84
0.83
0.83
0.82
0.8
0.79
0.77
0.76
0.76
0.73
0.73
0.72
0.71
0.71
0.72
0.71
0.73
0.73
0.75
0.73
0.75
0.76
0.76
0.75
0.74
0.74
0.72
0.71
0.73
0.71
0.7
0.71
0.73
0.73
0.73
0.75
0.75
0.72
0.71
0.7
0.71
0.69
0.69
0.7
0.69
0.69
0.7
0.69
0.7
0.71
0.72
0.72
0.73
0.75
0.75
0.77
0.75
0.77
0.77
0.77
0.76
0.77
0.76
0.75
0.74
0.73
0.73
0.72
0.72
0.73
0.71
0.72
0.71
0.71
0.71
0.7
0.71
0.7
0.71
0.73
0.71
0.73
0.73
0.73
0.73
0.74
0.72
0.72
0.73
0.72
0.71
0.7
0.72
0.7
0.7
0.72
0.7
0.69
0.68
0.68
0.68
0.67
0.67
0.67
0.67
0.67
0.68
0.67
0.69
0.71
0.69
0.71
0.7
0.7
0.7
0.71
0.7
0.7
0.71
0.7
0.71
0.7
0.69
0.69
0.68
0.67
0.67
0.61
0.62
0.68
0.69
0.64
0.64
0.65
0.66
0.67
0.73
0.76
0.81
0.82
0.84
0.86
0.87
0.86
0.85
0.83
0.82
0.81
0.79
0.78
0.76
0.75
0.75
0.73
0.75
0.72
0.71
0.71
0.7
0.69
0.69
0.69
0.68
0.69
0.69
0.71
0.7
0.73
0.73
0.75
0.76
0.76
0.77
0.79
0.78
0.78
0.8
0.8
0.79
0.8
0.79
0.78
0.78
0.77
0.75
0.75
0.75
0.73
0.73
0.73
0.74
0.74
0.73
0.74
0.74
0.74
0.75
0.76
0.74
0.76
0.75
0.74
0.74
0.74
0.72
0.71
0.71
0.62
0.63
0.74
0.75
0.68
0.68
0.68
0.69
0.7
0.72
0.73
0.77
0.78
0.79
0.82
0.84
0.81
0.83
0.83
0.8
0.81
0.81
0.78
0.78
0.78
0.79
0.77
0.77
0.76
0.75
0.73
0.75
0.75
0.74
0.77
0.77
0.76
0.77
0.76
0.74
0.76
0.76
0.74
0.75
0.77
0.74
0.73
0.72
0.71
0.71
0.7
0.69
0.69
0.68
0.69
0.69
0.71
0.73
0.75
0.79
0.8
0.82
0.82
0.84
0.83
0.86
0.86
0.83
0.83
0.8
0.78
0.77
0.76
0.77
0.78
0.76
0.77
0.78
0.78
0.76
0.77
0.76
0.77
0.77
0.76
0.76
0.79
0.79
0.78
0.82
0.8
0.8
0.79
0.8
0.78
0.76
0.79
0.74
0.75
0.74
0.71
0.71
0.69
0.7
0.68
0.69
0.68
0.68
0.68
0.69
0.69
0.7
0.7
0.71
0.72
0.74
0.74
0.76
0.77
0.77
0.79
0.79
0.79
0.79
0.78
0.77
0.78
0.77
0.76
0.76
0.75
0.75
0.74
0.74
0.73
0.73
0.72
0.73
0.72
0.71
0.73
0.72
0.72
0.72
0.74
0.72
0.73
0.74
0.72
0.73
0.73
0.73
0.71
0.72
0.72
0.71
0.69
0.7
0.7
0.68
0.69
0.68
0.68
0.69
0.68
0.69
0.71
0.72
0.74
0.74
0.78
0.79
0.81
0.81
0.85
0.85
0.85
0.83
0.84
0.83
0.83
0.81
0.79
0.77
0.77
0.76
0.75
0.76
0.74
0.73
0.73
0.72
0.72
0.72
0.72
0.74
0.73
0.73
0.76
0.75
0.75
0.75
0.75
0.73
0.73
0.71
0.7
0.69
0.69
0.69
0.69
0.7
0.68
0.7
0.69
0.71
0.71
0.72
0.73
0.75
0.74
0.78
0.76
0.79
0.8
0.81
0.82
0.83
0.82
0.79
0.81
0.81
0.79
0.79
0.76
0.75
0.73
0.73
0.72
0.73
0.72
0.74
0.73
0.74
0.74
0.75
0.73
0.77
0.74
0.74
0.78
0.75
0.74
0.78
0.73
0.73
0.71
0.71
0.7
0.69
0.69
0.69
0.69
0.69
0.71
0.7
0.72
0.72
0.74
0.74
0.77
0.77
0.79
0.79
0.79
0.8
0.78
0.77
0.78
0.78
0.74
0.76
0.76
0.75
0.74
0.74
0.73
0.73
0.72
0.72
0.73
0.71
0.72
0.71
0.72
0.71
0.73
0.74
0.73
0.75
0.75
0.75
0.77
0.79
0.75
0.77
0.75
0.73
0.72
0.7
0.69
0.69
0.68
0.67
0.67
0.68
0.68
0.71
0.71
0.74
0.75
0.77
0.8
0.78
0.8
0.81
0.82
0.83
0.85
0.82
0.81
0.8
0.79
0.78
0.77
0.78
0.77
0.77
0.76
0.76
0.75
0.75
0.76
0.74
0.74
0.74
0.74
0.75
0.74
0.75
0.77
0.77
0.75
0.77
0.75
0.73
0.74
0.74
0.72
0.74
0.73
0.73
0.76
0.73
0.71
0.71
0.71
0.69
0.69
0.68
0.68
0.68
0.68
0.68
0.68
0.69
0.72
0.71
0.72
0.73
0.75
0.75
0.78
0.78
0.78
0.77
0.77
0.76
0.76
0.76
0.75
0.74
0.74
0.73
0.73
0.73
0.72
0.72
0.73
0.72
0.73
0.73
0.73
0.74
0.73
0.76
0.77
0.77
0.76
0.78
0.79
0.77
0.77
0.78
0.79
0.77
0.77
0.73
0.73
0.73
0.71
0.7
0.69
0.69
0.68
0.67
0.67
0.67
0.66
0.66
0.67
0.65
0.66
0.63
0.63
0.68
0.69
0.67
0.67
0.67
0.67
0.67
0.67
0.67
0.66
0.66
0.66
0.65
0.64
0.64
0.63
0.63
0.62
0.63
0.62
0.63
0.62
0.62
0.62
0.63
0.62
0.63
0.41
0.43
0.51
0.52
0.63
0.61
0.61
0.62
0.61
0.62
0.63
0.65
0.68
0.69
0.71
0.75
0.78
0.78
0.78
0.78
0.8
0.81
0.81
0.78
0.74
0.75
0.74
0.72
0.74
0.73
0.74
0.74
0.74
0.74
0.74
0.73
0.74
0.75
0.74
0.76
0.76
0.76
0.75
0.76
0.75
0.73
0.75
0.75
0.77
0.76
0.78
0.78
0.78
0.77
0.81
0.81
0.79
0.8
0.79
0.78
0.8
0.79
0.77
0.78
0.77
0.76
0.75
0.77
0.75
0.74
0.74
0.73
0.72
0.73
0.73
0.72
0.73
0.74
0.74
0.73
0.75
0.75
0.74
0.75
0.76
0.76
0.75
0.76
0.76
0.76
0.78
0.79
0.77
0.8
0.8
0.82
0.78
0.78
0.79
0.77
0.75
0.76
0.75
0.74
0.73
0.75
0.74
0.72
0.72
0.73
0.75
0.73
0.75
0.77
0.76
0.75
0.76
0.77
0.75
0.76
0.76
0.75
0.77
0.78
0.76
0.77
0.78
0.76
0.78
0.77
0.76
0.75
0.76
0.78
0.76
0.76
0.79
0.77
0.75
0.76
0.75
0.76
0.74
0.76
0.76
0.76
0.75
0.76
0.76
0.76
0.77
0.78
0.76
0.79
0.79
0.78
0.78
0.82
0.82
0.8
0.8
0.82
0.81
0.79
0.81
0.8
0.79
0.78
0.8
0.77
0.75
0.75
0.73
0.73
0.73
0.73
0.72
0.74
0.73
0.75
0.74
0.76
0.76
0.77
0.78
0.78
0.78
0.81
0.8
0.8
0.78
0.82
0.82
0.84
0.83
0.85
0.85
0.84
0.8
0.8
0.79
0.77
0.75
0.75
0.72
0.7
0.71
0.72
0.72
0.72
0.69
0.74
0.72
0.73
0.72
0.72
0.71
0.71
0.72
0.7
0.71
0.71
0.72
0.71
0.74
0.73
0.75
0.75
0.78
0.78
0.79
0.79
0.8
0.79
0.79
0.78
0.79
0.78
0.77
0.74
0.75
0.73
0.73
0.71
0.72
0.71
0.71
0.7
0.71
0.69
0.69
0.69
0.69
0.69
0.7
0.71
0.72
0.75
0.76
0.75
0.77
0.77
0.77
0.75
0.75
0.76
0.75
0.79
0.8
0.78
0.8
0.8
0.77
0.78
0.77
0.75
0.75
0.74
0.74
0.74
0.73
0.73
0.68
0.76
0.77
0.74
0.73
0.73
0.75
0.73
0.74
0.74
0.76
0.76
0.78
0.77
0.77
0.78
0.79
0.79
0.81
0.8
0.8
0.82
0.83
0.82
0.79
0.78
0.78
0.75
0.75
0.75
0.73
0.74
0.75
0.74
0.74
0.74
0.76
0.75
0.74
0.77
0.76
0.75
0.8
0.77
0.76
0.78
0.74
0.74
0.75
0.72
0.72
0.72
0.7
0.71
0.72
0.7
0.72
0.72
0.72
0.73
0.75
0.77
0.78
0.79
0.79
0.79
0.79
0.8
0.78
0.78
0.78
0.78
0.79
0.79
0.79
0.79
0.78
0.78
0.78
0.78
0.75
0.75
0.76
0.75
0.72
0.75
0.73
0.74
0.74
0.76
0.74
0.75
0.76
0.76
0.75
0.76
0.77
0.78
0.75
0.77
0.77
0.79
0.77
0.77
0.77
0.77
0.79
0.8
0.79
0.81
0.81
0.79
0.82
0.82
0.83
0.8
0.81
0.82
0.82
0.82
0.8
0.8
0.79
0.78
0.76
0.76
0.75
0.75
0.73
0.74
0.78
0.76
0.75
0.76
0.75
0.76
0.74
0.75
0.75
0.74
0.74
0.75
0.74
0.74
0.75
0.75
0.74
0.74
0.75
0.74
0.76
0.76
0.76
0.77
0.79
0.79
0.78
0.81
0.82
0.8
0.8
0.82
0.79
0.77
0.78
0.77
0.75
0.75
0.77
0.74
0.75
0.77
0.77
0.73
0.75
0.75
0.72
0.73
0.75
0.76
0.73
0.73
0.73
0.73
0.72
0.71
0.72
0.71
0.71
0.73
0.71
0.75
0.76
0.78
0.8
0.86
0.85
0.84
0.83
0.82
0.81
0.81
0.79
0.76
0.74
0.76
0.75
0.75
0.76
0.76
0.75
0.75
0.76
0.77
0.75
0.74
0.76
0.73
0.72
0.72
0.72
0.71
0.71
0.71
0.72
0.72
0.73
0.73
0.71
0.72
0.72
0.72
0.71
0.73
0.74
0.77
0.76
0.79
0.82
0.8
0.82
0.84
0.84
0.82
0.82
0.83
0.87
0.85
0.83
0.8
0.8
0.79
0.78
0.77
0.78
0.76
0.76
0.78
0.79
0.74
0.74
0.74
0.71
0.71
0.71
0.69
0.7
0.7
0.69
0.69
0.68
0.69
0.69
0.7
0.7
0.7
0.7
0.71
0.71
0.71
0.71
0.72
0.71
0.7
0.7
0.7
0.68
0.68
0.67
0.69
0.73
0.75
0.75
0.75
0.73
0.74
0.73
0.75
0.72
0.72
0.72
0.73
0.72
0.72
0.71
0.71
0.71
0.71
0.71
0.71
0.7
0.71
0.7
0.7
0.7
0.7
0.71
0.71
0.71
0.71
0.71
0.7
0.7
0.69
0.69
0.69
0.7
0.7
0.7
0.71
0.75
0.78
0.79
0.8
0.81
0.8
0.79
0.78
0.77
0.75
0.76
0.74
0.73
0.73
0.71
0.71
0.71
0.74
0.76
0.74
0.75
0.75
0.75
0.74
0.75
0.75
0.74
0.75
0.76
0.74
0.76
0.76
0.76
0.75
0.77
0.78
0.78
0.78
0.78
0.78
0.76
0.78
0.77
0.77
0.76
0.78
0.78
0.77
0.79
0.77
0.79
0.8
0.79
0.78
0.78
0.78
0.76
0.74
0.76
0.77
0.75
0.76
0.78
0.75
0.74
0.76
0.74
0.73
0.72
0.73
0.72
0.7
0.72
0.72
0.72
0.73
0.74
0.75
0.76
0.75
0.79
0.8
0.81
0.83
0.81
0.8
0.82
0.81
0.79
0.79
0.78
0.78
0.79
0.77
0.77
0.77
0.75
0.75
0.73
0.71
0.71
0.7
0.7
0.72
0.75
0.74
0.75
0.76
0.72
0.71
0.73
0.73
0.71
0.72
0.73
0.71
0.72
0.72
0.72
0.71
0.73
0.75
0.76
0.79
0.81
0.84
0.82
0.84
0.85
0.83
0.85
0.82
0.82
0.8
0.77
0.79
0.77
0.76
0.77
0.75
0.74
0.74
0.71
0.72
0.7
0.72
0.71
0.71
0.71
0.74
0.74
0.72
0.75
0.76
0.74
0.76
0.73
0.73
0.73
0.73
0.71
0.71
0.71
0.71
0.7
0.7
0.71
0.71
0.74
0.76
0.78
0.8
0.8
0.83
0.84
0.83
0.84
0.85
0.83
0.83
0.82
0.83
0.8
0.81
0.8
0.78
0.78
0.79
0.78
0.75
0.77
0.76
0.74
0.75
0.74
0.74
0.76
0.76
0.75
0.8
0.77
0.76
0.78
0.76
0.73
0.71
0.72
0.68
0.68
0.68
0.68
0.69
0.69
0.71
0.7
0.71
0.71
0.7
0.71
0.72
0.73
0.73
0.74
0.74
0.74
0.74
0.76
0.76
0.78
0.76
0.78
0.78
0.79
0.8
0.78
0.78
0.79
0.78
0.78
0.78
0.77
0.76
0.74
0.73
0.74
0.72
0.72
0.73
0.74
0.72
0.74
0.74
0.74
0.76
0.75
0.73
0.73
0.74
0.72
0.71
0.72
0.71
0.71
0.7
0.71
0.69
0.7
0.7
0.7
0.69
0.7
0.7
0.71
0.71
0.75
0.74
0.76
0.81
0.84
0.82
0.82
0.82
0.78
0.79
0.76
0.76
0.74
0.74
0.71
0.71
0.71
0.69
0.71
0.71
0.7
0.71
0.75
0.73
0.73
0.75
0.75
0.73
0.74
0.74
0.73
0.75
0.72
0.71
0.72
0.71
0.71
0.69
0.69
0.69
0.67
0.67
0.68
0.69
0.69
0.73
0.75
0.77
0.78
0.83
0.83
0.83
0.85
0.81
0.82
0.8
0.79
0.78
0.75
0.76
0.74
0.73
0.73
0.72
0.7
0.71
0.72
0.69
0.71
0.72
0.73
0.72
0.76
0.76
0.76
0.8
0.77
0.77
0.8
0.76
0.75
0.78
0.73
0.73
0.72
0.7
0.69
0.69
0.69
0.7
0.7
0.71
0.71
0.7
0.7
0.71
0.71
0.71
0.72
0.73
0.74
0.75
0.76
0.75
0.76
0.76
0.76
0.75
0.74
0.74
0.72
0.72
0.71
0.7
0.69
0.67
0.67
0.66
0.66
0.65
0.66
0.66
0.66
0.67
0.66
0.67
0.65
0.66
0.65
0.65
0.65
0.66
0.68
0.73
0.8
0.79
0.79
0.8
0.8
0.79
0.8
0.8
0.78
0.78
0.78
0.75
0.74
0.72
0.74
0.74
0.74
0.73
0.74
0.74
0.73
0.74
0.74
0.76
0.75
0.76
0.76
0.76
0.76
0.75
0.76
0.75
0.76
0.75
0.75
0.76
0.77
0.75
0.76
0.76
0.74
0.74
0.75
0.75
0.74
0.75
0.76
0.75
0.74
0.75
0.76
0.74
0.73
0.76
0.72
0.73
0.72
0.73
0.74
0.73
0.74
0.74
0.76
0.74
0.76
0.76
0.76
0.76
0.76
0.78
0.77
0.77
0.79
0.78
0.8
0.77
0.78
0.8
0.8
0.81
0.83
0.84
0.81
0.81
0.81
0.78
0.76
0.78
0.76
0.75
0.75
0.75
0.73
0.73
0.72
0.72
0.72
0.71
0.72
0.72
0.73
0.71
0.72
0.74
0.75
0.75
0.75
0.76
0.77
0.78
0.78
0.77
0.79
0.79
0.79
0.79
0.8
0.81
0.79
0.79
0.8
0.78
0.77
0.78
0.78
0.76
0.77
0.79
0.78
0.75
0.78
0.76
0.74
0.73
0.72
0.72
0.7
0.7
0.7
0.68
0.69
0.68
0.69
0.67
0.68
0.68
0.68
0.7
0.71
0.71
0.71
0.7
0.69
0.69
0.68
0.68
0.67
0.67
0.67
0.67
0.68
0.67
0.68
0.67
0.69
0.68
0.68
0.68
0.67
0.68
0.68
0.68
0.66
0.67
0.68
0.66
0.67
0.66
0.67
0.67
0.66
0.67
0.67
0.7
0.69
0.72
0.73
0.77
0.8
0.79
0.86
0.88
0.9
0.88
0.83
0.84
0.81
0.8
0.78
0.77
0.77
0.76
0.76
0.76
0.79
0.77
0.78
0.82
0.8
0.81
0.81
0.79
0.84
0.85
0.82
0.91
0.91
0.87
0.87
0.89
0.85
0.88
0.84
0.84
0.87
0.84
0.87
0.88
0.86
0.87
0.75
0.76
0.85
0.86
0.77
0.75
0.74
0.74
0.74
0.72
0.73
0.74
0.74
0.75
0.75
0.77
0.76
0.77
0.79
0.8
0.79
0.8
0.8
0.79
0.8
0.78
0.79
0.78
0.77
0.78
0.79
0.78
0.78
0.78
0.76
0.77
0.75
0.75
0.75
0.75
0.74
0.73
0.73
0.71
0.73
0.73
0.77
0.78
0.76
0.79
0.76
0.76
0.75
0.74
0.73
0.74
0.71
0.71
0.73
0.71
0.71
0.72
0.71
0.7
0.72
0.73
0.74
0.77
0.77
0.81
0.79
0.82
0.83
0.81
0.82
0.81
0.8
0.79
0.78
0.76
0.76
0.74
0.72
0.72
0.71
0.72
0.7
0.71
0.7
0.7
0.7
0.72
0.71
0.71
0.71
0.73
0.72
0.71
0.71
0.72
0.73
0.71
0.7
0.71
0.71
0.7
0.7
0.72
0.75
0.77
0.8
0.81
0.82
0.86
0.86
0.86
0.87
0.85
0.84
0.81
0.81
0.79
0.79
0.78
0.76
0.73
0.71
0.7
0.7
0.7
0.69
0.7
0.7
0.72
0.72
0.76
0.73
0.74
0.76
0.74
0.75
0.75
0.73
0.74
0.75
0.74
0.72
0.74
0.74
0.75
0.76
0.74
0.72
0.71
0.71
0.7
0.68
0.68
0.68
0.67
0.67
0.67
0.68
0.67
0.69
0.7
0.72
0.74
0.76
0.77
0.78
0.77
0.79
0.8
0.78
0.78
0.78
0.76
0.78
0.79
0.77
0.77
0.75
0.74
0.73
0.72
0.69
0.69
0.68
0.67
0.67
0.66
0.67
0.69
0.7
0.71
0.72
0.73
0.74
0.74
0.72
0.73
0.73
0.71
0.71
0.71
0.72
0.71
0.73
0.74
0.74
0.75
0.78
0.8
0.79
0.83
0.83
0.82
0.81
0.78
0.78
0.77
0.74
0.73
0.72
0.7
0.7
0.7
0.7
0.7
0.73
0.74
0.72
0.78
0.78
0.73
0.75
0.76
0.74
0.73
0.72
0.72
0.72
0.71
0.71
0.71
0.71
0.71
0.71
0.72
0.73
0.74
0.75
0.75
0.74
0.77
0.78
0.76
0.8
0.79
0.79
0.84
0.83
0.81
0.81
0.78
0.77
0.74
0.75
0.73
0.72
0.7
0.72
0.7
0.69
0.71
0.75
0.74
0.73
0.77
0.78
0.76
0.78
0.78
0.76
0.75
0.76
0.73
0.72
0.72
0.71
0.7
0.7
0.68
0.67
0.68
0.68
0.67
0.69
0.73
0.77
0.77
0.85
0.88
0.88
0.89
0.89
0.87
0.87
0.85
0.83
0.83
0.81
0.8
0.78
0.74
0.74
0.72
0.71
0.7
0.69
0.68
0.67
0.68
0.68
0.67
0.7
0.69
0.7
0.74
0.71
0.71
0.74
0.71
0.71
0.71
0.71
0.69
0.7
0.69
0.68
0.68
0.68
0.66
0.68
0.68
0.69
0.69
0.71
0.72
0.74
0.74
0.77
0.79
0.8
0.82
0.78
0.79
0.77
0.79
0.78
0.78
0.76
0.75
0.75
0.73
0.73
0.71
0.7
0.71
0.7
0.7
0.7
0.71
0.7
0.72
0.75
0.75
0.75
0.79
0.8
0.78
0.77
0.79
0.74
0.73
0.76
0.73
0.71
0.71
0.71
0.69
0.7
0.7
0.68
0.69
0.7
0.69
0.69
0.71
0.72
0.72
0.74
0.75
0.75
0.75
0.76
0.75
0.75
0.75
0.74
0.72
0.72
0.71
0.69
0.68
0.68
0.67
0.68
0.68
0.69
0.7
0.69
0.71
0.72
0.73
0.75
0.75
0.75
0.74
0.73
0.73
0.72
0.73
0.73
0.74
0.72
0.72
0.72
0.73
0.75
0.75
0.75
0.78
0.78
0.78
0.78
0.79
0.79
0.76
0.78
0.78
0.76
0.77
0.77
0.77
0.75
0.76
0.75
0.75
0.73
0.73
0.71
0.7
0.69
0.68
0.67
0.67
0.67
0.68
0.69
0.69
0.69
0.71
0.71
0.7
0.73
0.76
0.77
0.77
0.81
0.82
0.82
0.81
0.85
0.84
0.82
0.81
0.8
0.81
0.78
0.79
0.78
0.75
0.75
0.74
0.75
0.73
0.72
0.72
0.74
0.74
0.74
0.74
0.75
0.73
0.75
0.76
0.76
0.76
0.77
0.79
0.8
0.77
