sample,time_sec
35,0.35
109,1.09
184,1.84
258,2.58
332,3.32
406,4.06
480,4.8
554,5.54
628,6.28
703,7.03
777,7.77
852,8.52
927,9.27
1003,10.03
1078,10.78
1155,11.55
1232,12.32
1309,13.09
1385,13.85
1462,14.62
1538,15.38
1613,16.13
1688,16.88
1763,17.63
1837,18.37
1911,19.11
1984,19.84
2057,20.57
2131,21.31
2204,22.04
2277,22.77
2350,23.5
2423,24.23
2497,24.97
2573,25.73
2650,26.5
2726,27.26
2802,28.02
2879,28.79
2954,29.54
3030,30.3
3105,31.05
3180,31.8
3254,32.54
3328,33.28
3402,34.02
3477,34.77
3552,35.52
3627,36.27
3703,37.03
3780,37.8
3857,38.57
3934,39.34
4012,40.12
4090,40.9
4167,41.67
4244,42.44
4321,43.21
4398,43.98
4473,44.73
4548,45.48
4625,46.25
4701,47.01
4776,47.76
4852,48.52
4927,49.27
5002,50.02
5077,50.77
5153,51.53
5227,52.27
5302,53.02
5376,53.76
5451,54.51
5525,55.25
5599,55.99
5673,56.73
5747,57.47
5821,58.21
5894,58.94
5968,59.68
6043,60.43
6117,61.17
6192,61.92
6267,62.67
6342,63.42
6417,64.17
6491,64.91
6566,65.66
6640,66.4
6714,67.14
6788,67.88
6862,68.62
6936,69.36
7009,70.09
7083,70.83
7157,71.57
7231,72.31
7305,73.05
7380,73.8
7454,74.54
7529,75.29
7604,76.04
7680,76.8
7755,77.55
7830,78.3
7905,79.05
7979,79.79
8054,80.54
8129,81.29
8205,82.05
8281,82.81
8357,83.57
8435,84.35
8513,85.13
8590,85.9
8668,86.68
8748,87.48
8825,88.25
8903,89.03
8979,89.79
9056,90.56
9133,91.33
9208,92.08
9283,92.83
9358,93.58
9434,94.34
9509,95.09
9584,95.84
9661,96.61
9737,97.37
9813,98.13
9889,98.89
9965,99.65
10041,100.41
10116,101.16
10192,101.92
10267,102.67
10342,103.42
10417,104.17
10492,104.92
10568,105.68
10643,106.43
10718,107.18
10794,107.94
10870,108.7
10945,109.45
11020,110.2
11094,110.94
11169,111.69
11242,112.42
11316,113.16
11390,113.9
11463,114.63
11535,115.35
11607,116.07
11680,116.8
11752,117.52
11824,118.24
11896,118.96
11968,119.68
12040,120.4
12111,121.11
12184,121.84
12255,122.55
12328,123.28
12401,124.01
12475,124.75
12550,125.5
12624,126.24
12698,126.98
12772,127.72
12845,128.45
12918,129.18
12990,129.9
13063,130.63
13135,131.35
13207,132.07
13280,132.8
13353,133.53
13426,134.26
13499,134.99
13572,135.72
13646,136.46
13719,137.19
13792,137.92
13864,138.64
13937,139.37
14009,140.09
14081,140.81
14152,141.52
14224,142.24
14295,142.95
14367,143.67
14439,144.39
14511,145.11
14584,145.84
14657,146.57
14731,147.31
14804,148.04
14878,148.78
14953,149.53
15028,150.28
15102,151.02
15177,151.77
15252,152.52
15327,153.27
15403,154.03
15478,154.78
15554,155.54
15629,156.29
15703,157.03
15778,157.78
15852,158.52
15927,159.27
16001,160.01
16075,160.75
16149,161.49
16222,162.22
16296,162.96
16369,163.69
16442,164.42
16514,165.14
16587,165.87
16658,166.58
16731,167.31
16804,168.04
16878,168.78
16951,169.51
17026,170.26
17101,171.01
17177,171.77
17253,172.53
17330,173.3
17408,174.08
17485,174.85
17563,175.63
17640,176.4
17716,177.16
17792,177.92
17868,178.68
17943,179.43
18018,180.18
18091,180.91
18165,181.65
18237,182.37
18310,183.1
18382,183.82
18454,184.54
18525,185.25
18596,185.96
18668,186.68
18740,187.4
18812,188.12
18884,188.84
18957,189.57
19031,190.31
19105,191.05
19178,191.78
19252,192.52
19326,193.26
19399,193.99
19471,194.71
19543,195.43
19614,196.14
19684,196.84
19754,197.54
19824,198.24
19893,198.93
19963,199.63
20034,200.34
20104,201.04
20175,201.75
20246,202.46
20316,203.16
20387,203.87
20459,204.59
20530,205.3
20601,206.01
20672,206.72
20742,207.42
20811,208.11
20881,208.81
20951,209.51
21021,210.21
21094,210.94
21170,211.7
21246,212.46
21322,213.22
21397,213.97
21474,214.74
21552,215.52
21629,216.29
21704,217.04
21779,217.79
21852,218.52
21925,219.25
21998,219.98
22070,220.7
22141,221.41
22212,222.12
22282,222.82
22351,223.51
22419,224.19
22487,224.87
22555,225.55
22623,226.23
22691,226.91
22761,227.61
22832,228.32
22904,229.04
22976,229.76
23050,230.5
23123,231.23
23198,231.98
23275,232.75
23351,233.51
23424,234.24
23497,234.97
23568,235.68
23640,236.4
23711,237.11
23782,237.82
23855,238.55
23926,239.26
23998,239.98
24069,240.69
24140,241.4
24210,242.1
24279,242.79
24349,243.49
24419,244.19
24489,244.89
24558,245.58
24628,246.28
24697,246.97
24767,247.67
24837,248.37
24911,249.11
24984,249.84
25058,250.58
25132,251.32
25207,252.07
25282,252.82
25359,253.59
25435,254.35
25510,255.1
25585,255.85
25658,256.58
25731,257.31
25803,258.03
25874,258.74
25944,259.44
26014,260.14
26084,260.84
26155,261.55
26226,262.26
26299,262.99
26371,263.71
26443,264.43
26516,265.16
26588,265.88
26660,266.6
26733,267.33
26805,268.05
26879,268.79
26951,269.51
27023,270.23
27094,270.94
27164,271.64
27234,272.34
27304,273.04
27377,273.77
27451,274.51
27525,275.25
27601,276.01
27678,276.78
27757,277.57
27834,278.34
27911,279.11
27987,279.87
28062,280.62
28135,281.35
28208,282.08
28280,282.8
28350,283.5
28420,284.2
28490,284.9
28562,285.62
28635,286.35
28711,287.11
28788,287.88
28865,288.65
28942,289.42
29018,290.18
29094,290.94
29168,291.68
29241,292.41
29313,293.13
29384,293.84
29456,294.56
29526,295.26
29596,295.96
29666,296.66
29734,297.34
29801,298.01
29868,298.68
29939,299.39
30017,300.17
30102,301.02
30191,301.91
30284,302.84
30377,303.77
30468,304.68
30560,305.6
30652,306.52
30740,307.4
30826,308.26
30912,309.12
30999,309.99
31085,310.85
31169,311.69
31253,312.53
31337,313.37
31421,314.21
31503,315.03
31583,315.83
31663,316.63
31742,317.42
31821,318.21
31898,318.98
31975,319.75
32050,320.5
32125,321.25
32200,322.0
32273,322.73
32344,323.44
32415,324.15
32486,324.86
32557,325.57
32629,326.29
32700,327.0
32772,327.72
32843,328.43
32916,329.16
32988,329.88
33061,330.61
33132,331.32
33205,332.05
33277,332.77
33350,333.5
33424,334.24
33497,334.97
33570,335.7
33644,336.44
33717,337.17
33791,337.91
33865,338.65
33938,339.38
34010,340.1
34081,340.81
34152,341.52
34225,342.25
34297,342.97
34369,343.69
34442,344.42
34515,345.15
34587,345.87
34658,346.58
34728,347.28
34798,347.98
34869,348.69
34940,349.4
35010,350.1
35082,350.82
35152,351.52
35224,352.24
35296,352.96
35369,353.69
35441,354.41
35514,355.14
35588,355.88
35663,356.63
35739,357.39
35818,358.18
35895,358.95
35974,359.74
36057,360.57
36140,361.4
36223,362.23
36306,363.06
36388,363.88
36468,364.68
36550,365.5
36628,366.28
36706,367.06
36782,367.82
36860,368.6
36938,369.38
37017,370.17
37097,370.97
37175,371.75
37252,372.52
37330,373.3
37408,374.08
37486,374.86
37565,375.65
37645,376.45
37724,377.24
37804,378.04
37886,378.86
37968,379.68
38050,380.5
38132,381.32
38212,382.12
38292,382.92
38371,383.71
38449,384.49
38525,385.25
38599,385.99
38672,386.72
38743,387.43
38815,388.15
38885,388.85
38954,389.54
39024,390.24
39095,390.95
39167,391.67
39242,392.42
39315,393.15
39389,393.89
39464,394.64
39532,395.32
39609,396.09
39677,396.77
39749,397.49
39818,398.18
39884,398.84
39949,399.49
40014,400.14
40078,400.78
40144,401.44
40213,402.13
40292,402.92
40375,403.75
40467,404.67
40569,405.69
40672,406.72
40771,407.71
40869,408.69
40967,409.67
41061,410.61
41154,411.54
41246,412.46
41332,413.32
41420,414.2
41503,415.03
41583,415.83
41663,416.63
41742,417.42
41821,418.21
41899,418.99
41978,419.78
42054,420.54
42131,421.31
42207,422.07
42285,422.85
42363,423.63
42442,424.42
42521,425.21
42601,426.01
42682,426.82
42762,427.62
42843,428.43
42924,429.24
43004,430.04
43084,430.84
43164,431.64
43243,432.43
43321,433.21
43398,433.98
43474,434.74
43550,435.5
43626,436.26
43702,437.02
43778,437.78
43854,438.54
43931,439.31
44009,440.09
44087,440.87
44166,441.66
44243,442.43
44322,443.22
44400,444.0
44479,444.79
44556,445.56
44632,446.32
44709,447.09
44786,447.86
44862,448.62
44939,449.39
45015,450.15
45090,450.9
45163,451.63
45236,452.36
45308,453.08
45381,453.81
45454,454.54
45528,455.28
45602,456.02
45676,456.76
45752,457.52
45828,458.28
45904,459.04
45980,459.8
46056,460.56
46131,461.31
46206,462.06
46282,462.82
46357,463.57
46433,464.33
46508,465.08
46582,465.82
46656,466.56
46730,467.3
46802,468.02
46874,468.74
46946,469.46
47018,470.18
47092,470.92
47168,471.68
47246,472.46
47325,473.25
47404,474.04
47485,474.85
47565,475.65
47645,476.45
47726,477.26
47807,478.07
47886,478.86
47966,479.66
48045,480.45
48123,481.23
48200,482.0
48275,482.75
48350,483.5
48422,484.22
48495,484.95
48566,485.66
48638,486.38
48711,487.11
48807,488.07
48921,489.21
49001,490.01
49098,490.98
49162,491.62
49224,492.24
49289,492.89
49358,493.58
49434,494.34
49512,495.12
49595,495.95
49679,496.79
49756,497.56
49833,498.33
49948,499.48
50026,500.26
50140,501.4
50216,502.16
50289,502.89
50362,503.62
50433,504.33
50504,505.04
50572,505.72
50637,506.37
50684,506.84
50732,507.32
50784,507.84
50837,508.37
50902,509.02
50967,509.67
51032,510.32
51098,510.98
51165,511.65
51234,512.34
51305,513.05
51379,513.79
51456,514.56
51533,515.33
51610,516.1
51686,516.86
51761,517.61
51836,518.36
51910,519.1
51984,519.84
52057,520.57
52130,521.3
52201,522.01
52273,522.73
52344,523.44
52415,524.15
52484,524.84
52553,525.53
52622,526.22
52691,526.91
52760,527.6
52828,528.28
52899,528.99
52973,529.73
53050,530.5
53126,531.26
53203,532.03
53281,532.81
53361,533.61
53442,534.42
53521,535.21
53603,536.03
53686,536.86
53768,537.68
53850,538.5
53933,539.33
54015,540.15
54099,540.99
54185,541.85
54269,542.69
54353,543.53
54434,544.34
54516,545.16
54599,545.99
54682,546.82
54762,547.62
54845,548.45
54927,549.27
55006,550.06
55085,550.85
55165,551.65
55245,552.45
55323,553.23
55402,554.02
55481,554.81
55561,555.61
55640,556.4
55719,557.19
55799,557.99
55880,558.8
55961,559.61
56041,560.41
56122,561.22
56204,562.04
56287,562.87
56368,563.68
56450,564.5
56532,565.32
56614,566.14
56695,566.95
56777,567.77
56858,568.58
56937,569.37
57016,570.16
57096,570.96
57176,571.76
57254,572.54
57333,573.33
57411,574.11
57490,574.9
57567,575.67
57646,576.46
57725,577.25
57802,578.02
57881,578.81
57959,579.59
58037,580.37
58116,581.16
58193,581.93
58272,582.72
58350,583.5
58429,584.29
58508,585.08
58587,585.87
58665,586.65
58744,587.44
58823,588.23
58902,589.02
58981,589.81
59060,590.6
59138,591.38
59216,592.16
59293,592.93
59371,593.71
59448,594.48
59526,595.26
59604,596.04
59682,596.82
59760,597.6
59838,598.38
59916,599.16
59992,599.92
60069,600.69
60147,601.47
60225,602.25
60302,603.02
60379,603.79
60457,604.57
60536,605.36
60613,606.13
60690,606.9
60768,607.68
60845,608.45
60921,609.21
60997,609.97
61074,610.74
61150,611.5
61226,612.26
61302,613.02
61377,613.77
61451,614.51
61527,615.27
61602,616.02
61676,616.76
61752,617.52
61827,618.27
61902,619.02
61978,619.78
62055,620.55
62131,621.31
62208,622.08
62285,622.85
62364,623.64
62442,624.42
62520,625.2
62598,625.98
62676,626.76
62752,627.52
62829,628.29
62905,629.05
62980,629.8
63055,630.55
63131,631.31
63207,632.07
63283,632.83
63359,633.59
63437,634.37
63515,635.15
63592,635.92
63670,636.7
63749,637.49
63826,638.26
63903,639.03
63980,639.8
64058,640.58
64134,641.34
64210,642.1
64286,642.86
64362,643.62
64438,644.38
64515,645.15
64592,645.92
64670,646.7
64746,647.46
64824,648.24
64903,649.03
64980,649.8
65057,650.57
65135,651.35
65212,652.12
65289,652.89
65366,653.66
65442,654.42
65518,655.18
65594,655.94
65670,656.7
65747,657.47
65823,658.23
65903,659.03
65988,659.88
66071,660.71
66153,661.53
66236,662.36
66317,663.17
66395,663.95
66474,664.74
66552,665.52
66628,666.28
66705,667.05
66782,667.82
66858,668.58
66934,669.34
67010,670.1
67087,670.87
67163,671.63
67238,672.38
67314,673.14
67391,673.91
67470,674.7
67548,675.48
67624,676.24
67699,676.99
67774,677.74
67848,678.48
67922,679.22
67995,679.95
68066,680.66
68137,681.37
68206,682.06
68274,682.74
68342,683.42
68410,684.1
68479,684.79
68555,685.55
68634,686.34
68713,687.13
68796,687.96
68887,688.87
68977,689.77
69067,690.67
69155,691.55
69244,692.44
69334,693.34
69425,694.25
69514,695.14
69602,696.02
69686,696.86
69766,697.66
69848,698.48
69928,699.28
70005,700.05
70082,700.82
70159,701.59
70236,702.36
70311,703.11
70388,703.88
70466,704.66
70545,705.45
70623,706.23
70701,707.01
70780,707.8
70860,708.6
70938,709.38
71018,710.18
71099,710.99
71179,711.79
71259,712.59
71341,713.41
71422,714.22
71503,715.03
71584,715.84
71666,716.66
71748,717.48
71828,718.28
71909,719.09
71990,719.9
72072,720.72
72151,721.51
72232,722.32
72315,723.15
72398,723.98
72480,724.8
72564,725.64
72650,726.5
72732,727.32
72813,728.13
72894,728.94
72975,729.75
73054,730.54
73134,731.34
73215,732.15
73294,732.94
73373,733.73
73455,734.55
73537,735.37
73617,736.17
73696,736.96
73777,737.77
73859,738.59
73939,739.39
74021,740.21
74103,741.03
74184,741.84
74266,742.66
74348,743.48
74430,744.3
74512,745.12
74594,745.94
74675,746.75
74756,747.56
74838,748.38
74923,749.23
75003,750.03
75084,750.84
75166,751.66
75246,752.46
75326,753.26
75405,754.05
75483,754.83
75561,755.61
75639,756.39
75719,757.19
75801,758.01
75882,758.82
75961,759.61
76041,760.41
76120,761.2
76198,761.98
76275,762.75
76353,763.53
76431,764.31
76509,765.09
76586,765.86
76665,766.65
76742,767.42
76820,768.2
76898,768.98
76977,769.77
77055,770.55
77132,771.32
77211,772.11
77290,772.9
77369,773.69
77447,774.47
77524,775.24
77602,776.02
77679,776.79
77755,777.55
77832,778.32
77909,779.09
77986,779.86
78062,780.62
78140,781.4
78218,782.18
78300,783.0
78382,783.82
78461,784.61
78542,785.42
78623,786.23
78701,787.01
78779,787.79
78857,788.57
78935,789.35
79011,790.11
79089,790.89
79167,791.67
79244,792.44
79321,793.21
79397,793.97
79475,794.75
79552,795.52
79628,796.28
79704,797.04
79780,797.8
79856,798.56
79931,799.31
80007,800.07
80083,800.83
80159,801.59
80234,802.34
80311,803.11
80386,803.86
80462,804.62
80538,805.38
80613,806.13
80688,806.88
80762,807.62
80836,808.36
80910,809.1
80984,809.84
81057,810.57
81131,811.31
81205,812.05
81278,812.78
81352,813.52
81426,814.26
81499,814.99
81574,815.74
81649,816.49
81724,817.24
81799,817.99
81873,818.73
81947,819.47
82022,820.22
82096,820.96
82169,821.69
82242,822.42
82316,823.16
82389,823.89
82463,824.63
82536,825.36
82610,826.1
82683,826.83
82757,827.57
82833,828.33
82910,829.1
82986,829.86
83063,830.63
83139,831.39
83215,832.15
83290,832.9
83365,833.65
83440,834.4
83514,835.14
83588,835.88
83663,836.63
83738,837.38
83813,838.13
83887,838.87
83961,839.61
84033,840.33
84105,841.05
84176,841.76
84246,842.46
84317,843.17
84388,843.88
84459,844.59
84531,845.31
84603,846.03
84676,846.76
84750,847.5
84825,848.25
84899,848.99
84975,849.75
85051,850.51
85128,851.28
85205,852.05
85283,852.83
85361,853.61
85440,854.4
85518,855.18
85596,855.96
85675,856.75
85753,857.53
85830,858.3
85909,859.09
85987,859.87
86066,860.66
86144,861.44
86222,862.22
86300,863.0
86378,863.78
86456,864.56
86535,865.35
86616,866.16
86695,866.95
86773,867.73
86853,868.53
86932,869.32
87010,870.1
87087,870.87
87165,871.65
87242,872.42
87319,873.19
87396,873.96
87474,874.74
87552,875.52
87629,876.29
87707,877.07
87785,877.85
87862,878.62
87940,879.4
88018,880.18
88097,880.97
88175,881.75
88253,882.53
88331,883.31
88410,884.1
88489,884.89
88567,885.67
88647,886.47
88726,887.26
88804,888.04
88883,888.83
88962,889.62
89040,890.4
89118,891.18
89197,891.97
89275,892.75
89352,893.52
89430,894.3
89508,895.08
89586,895.86
89663,896.63
89741,897.41
89819,898.19
89896,898.96
89973,899.73
90049,900.49
90127,901.27
90204,902.04
90282,902.82
90360,903.6
90439,904.39
90518,905.18
90597,905.97
90678,906.78
90758,907.58
90837,908.37
90915,909.15
90994,909.94
91072,910.72
91149,911.49
91225,912.25
91301,913.01
91378,913.78
91454,914.54
91529,915.29
91605,916.05
91682,916.82
91759,917.59
91835,918.35
91913,919.13
91991,919.91
92069,920.69
92146,921.46
92224,922.24
92303,923.03
92380,923.8
92457,924.57
92534,925.34
92612,926.12
92689,926.89
92766,927.66
92845,928.45
92922,929.22
93000,930.0
93078,930.78
93156,931.56
93233,932.33
93310,933.1
93388,933.88
93466,934.66
93542,935.42
93620,936.2
93697,936.97
93776,937.76
93852,938.52
93927,939.27
94002,940.02
94077,940.77
94152,941.52
94229,942.29
94307,943.07
94384,943.84
94460,944.6
94538,945.38
94614,946.14
94691,946.91
94767,947.67
94843,948.43
94916,949.16
94990,949.9
95060,950.6
95129,951.29
95182,951.82
95229,952.29
95279,952.79
95342,953.42
95401,954.01
95466,954.66
95540,955.4
95600,956.0
95672,956.72
95738,957.38
95804,958.04
95869,958.69
95933,959.33
95998,959.98
96062,960.62
96126,961.26
96190,961.9
96255,962.55
96323,963.23
96398,963.98
96482,964.82
96569,965.69
96656,966.56
96742,967.42
96827,968.27
96912,969.12
96996,969.96
97078,970.78
97159,971.59
97238,972.38
97314,973.14
97391,973.91
97466,974.66
97543,975.43
97618,976.18
97695,976.95
97773,977.73
97853,978.53
97933,979.33
98015,980.15
98097,980.97
98179,981.79
98260,982.6
98342,983.42
98425,984.25
98507,985.07
98590,985.9
98672,986.72
98754,987.54
98836,988.36
98916,989.16
98997,989.97
99077,990.77
99156,991.56
99236,992.36
99315,993.15
99394,993.94
99471,994.71
99549,995.49
99626,996.26
99704,997.04
99781,997.81
99859,998.59
99937,999.37
100016,1000.16
100096,1000.96
100174,1001.74
100253,1002.53
100332,1003.32
100408,1004.08
100485,1004.85
100562,1005.62
100639,1006.39
100715,1007.15
100793,1007.93
100872,1008.72
100950,1009.5
101029,1010.29
101108,1011.08
101186,1011.86
101264,1012.64
101343,1013.43
101421,1014.21
101499,1014.99
101577,1015.77
101655,1016.55
101734,1017.34
101813,1018.13
101892,1018.92
101971,1019.71
102050,1020.5
102128,1021.28
102208,1022.08
102288,1022.88
102366,1023.66
102444,1024.44
102523,1025.23
102601,1026.01
102679,1026.79
102758,1027.58
102837,1028.37
102916,1029.16
102995,1029.95
103074,1030.74
103154,1031.54
103233,1032.33
103312,1033.12
103392,1033.92
103473,1034.73
103553,1035.53
103633,1036.33
103713,1037.13
103791,1037.91
103869,1038.69
103948,1039.48
104025,1040.25
104101,1041.01
104178,1041.78
104254,1042.54
104330,1043.3
104405,1044.05
104483,1044.83
104563,1045.63
104641,1046.41
104718,1047.18
104797,1047.97
104874,1048.74
104951,1049.51
105029,1050.29
105107,1051.07
105184,1051.84
105261,1052.61
105338,1053.38
105415,1054.15
105493,1054.93
105569,1055.69
105646,1056.46
105723,1057.23
105800,1058.0
105877,1058.77
105953,1059.53
106030,1060.3
106106,1061.06
106182,1061.82
106258,1062.58
106334,1063.34
106410,1064.1
106487,1064.87
106563,1065.63
106639,1066.39
106716,1067.16
106792,1067.92
106868,1068.68
106944,1069.44
107019,1070.19
107094,1070.94
107168,1071.68
107244,1072.44
107319,1073.19
107395,1073.95
107470,1074.7
107545,1075.45
107622,1076.22
107697,1076.97
107772,1077.72
107847,1078.47
107924,1079.24
108000,1080.0
108076,1080.76
108154,1081.54
108233,1082.33
108311,1083.11
108389,1083.89
108467,1084.67
108546,1085.46
108624,1086.24
108701,1087.01
108779,1087.79
108856,1088.56
108933,1089.33
109010,1090.1
109088,1090.88
109165,1091.65
109242,1092.42
109320,1093.2
109397,1093.97
109473,1094.73
109550,1095.5
109628,1096.28
109706,1097.06
109784,1097.84
109862,1098.62
109940,1099.4
110017,1100.17
110094,1100.94
110171,1101.71
110247,1102.47
110323,1103.23
110399,1103.99
110476,1104.76
110551,1105.51
110627,1106.27
110704,1107.04
110781,1107.81
110857,1108.57
110934,1109.34
111011,1110.11
111090,1110.9
111169,1111.69
111247,1112.47
111325,1113.25
111405,1114.05
111483,1114.83
111563,1115.63
111643,1116.43
111722,1117.22
111801,1118.01
111881,1118.81
111961,1119.61
112040,1120.4
112119,1121.19
112198,1121.98
112276,1122.76
112354,1123.54
112432,1124.32
112511,1125.11
112588,1125.88
112665,1126.65
112743,1127.43
112823,1128.23
112905,1129.05
112988,1129.88
113069,1130.69
113152,1131.52
113233,1132.33
113314,1133.14
113396,1133.96
113478,1134.78
113556,1135.56
113635,1136.35
113714,1137.14
113794,1137.94
113873,1138.73
113951,1139.51
114031,1140.31
114112,1141.12
114191,1141.91
114271,1142.71
114352,1143.52
114432,1144.32
114511,1145.11
114591,1145.91
114671,1146.71
114749,1147.49
114828,1148.28
114907,1149.07
114986,1149.86
115065,1150.65
115145,1151.45
115225,1152.25
115304,1153.04
115382,1153.82
115461,1154.61
115540,1155.4
115619,1156.19
115699,1156.99
115778,1157.78
115856,1158.56
115936,1159.36
116014,1160.14
116092,1160.92
116170,1161.7
116248,1162.48
116325,1163.25
116401,1164.01
116478,1164.78
116555,1165.55
116633,1166.33
116709,1167.09
116785,1167.85
116863,1168.63
116941,1169.41
117017,1170.17
117094,1170.94
117172,1171.72
117252,1172.52
117330,1173.3
117409,1174.09
117490,1174.9
117570,1175.7
117650,1176.5
117731,1177.31
117811,1178.11
117890,1178.9
117967,1179.67
118045,1180.45
118121,1181.21
118197,1181.97
118273,1182.73
118348,1183.48
118423,1184.23
118498,1184.98
118574,1185.74
118652,1186.52
118729,1187.29
118807,1188.07
118886,1188.86
118965,1189.65
119043,1190.43
119121,1191.21
119198,1191.98
119275,1192.75
119351,1193.51
119426,1194.26
119501,1195.01
119577,1195.77
119655,1196.55
119733,1197.33
119811,1198.11
119889,1198.89
119969,1199.69
120051,1200.51
120130,1201.3
120209,1202.09
120289,1202.89
120367,1203.67
120443,1204.43
120520,1205.2
120597,1205.97
120672,1206.72
120749,1207.49
120826,1208.26
120905,1209.05
120986,1209.86
121064,1210.64
121143,1211.43
121223,1212.23
121303,1213.03
121382,1213.82
121462,1214.62
121544,1215.44
121627,1216.27
121708,1217.08
121790,1217.9
121874,1218.74
121956,1219.56
122038,1220.38
122121,1221.21
122202,1222.02
122285,1222.85
122367,1223.67
122448,1224.48
122529,1225.29
122611,1226.11
122694,1226.94
122775,1227.75
122857,1228.57
122941,1229.41
123024,1230.24
123107,1231.07
123192,1231.92
123275,1232.75
123358,1233.58
123441,1234.41
123525,1235.25
123610,1236.1
123696,1236.96
123785,1237.85
123873,1238.73
123964,1239.64
124056,1240.56
124149,1241.49
124242,1242.42
124337,1243.37
124430,1244.3
124518,1245.18
124607,1246.07
124690,1246.9
124772,1247.72
124852,1248.52
124930,1249.3
125008,1250.08
125088,1250.88
125167,1251.67
125249,1252.49
125333,1253.33
125417,1254.17
125502,1255.02
125587,1255.87
125675,1256.75
125764,1257.64
125851,1258.51
125942,1259.42
126034,1260.34
126123,1261.23
126213,1262.13
126304,1263.04
126393,1263.93
126483,1264.83
126571,1265.71
126657,1266.57
126744,1267.44
126830,1268.3
126914,1269.14
126998,1269.98
127082,1270.82
127164,1271.64
127245,1272.45
127327,1273.27
127408,1274.08
127487,1274.87
127565,1275.65
127642,1276.42
127719,1277.19
127796,1277.96
127874,1278.74
127952,1279.52
128031,1280.31
128112,1281.12
128190,1281.9
128269,1282.69
128350,1283.5
128433,1284.33
128515,1285.15
128598,1285.98
128682,1286.82
128764,1287.64
128847,1288.47
128931,1289.31
129012,1290.12
129093,1290.93
129174,1291.74
129257,1292.57
129337,1293.37
129417,1294.17
129498,1294.98
129580,1295.8
129663,1296.63
129745,1297.45
129830,1298.3
129916,1299.16
130003,1300.03
130091,1300.91
130177,1301.77
130265,1302.65
130353,1303.53
130439,1304.39
130527,1305.27
130614,1306.14
130702,1307.02
130790,1307.9
130876,1308.76
130960,1309.6
131043,1310.43
131124,1311.24
131203,1312.03
131282,1312.82
131361,1313.61
131441,1314.41
131522,1315.22
131603,1316.03
131685,1316.85
131765,1317.65
131847,1318.47
131929,1319.29
132012,1320.12
132094,1320.94
132178,1321.78
132263,1322.63
132346,1323.46
132430,1324.3
132517,1325.17
132606,1326.06
132693,1326.93
132782,1327.82
132871,1328.71
132960,1329.6
133048,1330.48
133136,1331.36
133222,1332.22
133310,1333.1
133396,1333.96
133481,1334.81
133565,1335.65
133648,1336.48
133730,1337.3
133811,1338.11
133893,1338.93
133975,1339.75
134058,1340.58
134141,1341.41
134226,1342.26
134313,1343.13
134399,1343.99
134484,1344.84
134571,1345.71
134657,1346.57
134742,1347.42
134826,1348.26
134913,1349.13
135001,1350.01
135089,1350.89
135180,1351.8
135271,1352.71
135365,1353.65
135458,1354.58
135549,1355.49
135642,1356.42
135732,1357.32
135823,1358.23
135912,1359.12
136001,1360.01
136087,1360.87
136175,1361.75
136265,1362.65
136352,1363.52
136440,1364.4
136529,1365.29
136617,1366.17
136705,1367.05
136794,1367.94
136881,1368.81
136966,1369.66
137052,1370.52
137136,1371.36
137219,1372.19
137303,1373.03
137385,1373.85
137465,1374.65
137546,1375.46
137624,1376.24
137701,1377.01
137778,1377.78
137855,1378.55
137930,1379.3
138007,1380.07
138084,1380.84
138161,1381.61
138239,1382.39
138316,1383.16
138394,1383.94
138471,1384.71
138549,1385.49
138627,1386.27
138706,1387.06
138783,1387.83
138862,1388.62
138941,1389.41
139019,1390.19
139096,1390.96
139173,1391.73
139250,1392.5
139328,1393.28
139404,1394.04
139479,1394.79
139555,1395.55
139632,1396.32
139708,1397.08
139784,1397.84
139861,1398.61
139937,1399.37
140014,1400.14
140089,1400.89
140165,1401.65
140241,1402.41
140318,1403.18
140395,1403.95
140473,1404.73
140553,1405.53
140635,1406.35
140718,1407.18
140803,1408.03
140889,1408.89
140976,1409.76
141062,1410.62
141148,1411.48
141234,1412.34
141319,1413.19
141403,1414.03
141488,1414.88
141572,1415.72
141654,1416.54
141738,1417.38
141822,1418.22
141904,1419.04
141985,1419.85
142069,1420.69
142150,1421.5
142229,1422.29
142309,1423.09
142387,1423.87
142465,1424.65
142542,1425.42
142620,1426.2
142697,1426.97
142774,1427.74
142851,1428.51
142928,1429.28
143005,1430.05
143082,1430.82
143161,1431.61
143240,1432.4
143318,1433.18
143396,1433.96
143475,1434.75
143554,1435.54
143634,1436.34
143714,1437.14
143794,1437.94
143876,1438.76
143958,1439.58
144038,1440.38
144121,1441.21
144205,1442.05
144289,1442.89
144372,1443.72
144456,1444.56
144542,1445.42
144627,1446.27
144712,1447.12
144797,1447.97
144880,1448.8
144966,1449.66
145051,1450.51
145138,1451.38
145222,1452.22
145306,1453.06
145392,1453.92
145477,1454.77
145562,1455.62
145649,1456.49
145734,1457.34
145818,1458.18
145902,1459.02
145987,1459.87
146071,1460.71
146154,1461.54
146238,1462.38
146322,1463.22
146404,1464.04
146486,1464.86
146567,1465.67
146648,1466.48
146728,1467.28
146806,1468.06
146885,1468.85
146966,1469.66
147046,1470.46
147126,1471.26
147209,1472.09
147291,1472.91
147373,1473.73
147455,1474.55
147536,1475.36
147619,1476.19
147700,1477.0
147781,1477.81
147863,1478.63
147944,1479.44
148026,1480.26
148108,1481.08
148191,1481.91
148272,1482.72
148354,1483.54
148436,1484.36
148518,1485.18
148598,1485.98
148679,1486.79
148760,1487.6
148841,1488.41
148921,1489.21
149002,1490.02
149084,1490.84
149164,1491.64
149244,1492.44
149326,1493.26
149409,1494.09
149490,1494.9
149571,1495.71
149653,1496.53
149734,1497.34
149814,1498.14
149894,1498.94
149975,1499.75
150059,1500.59
150145,1501.45
150230,1502.3
150318,1503.18
150405,1504.05
150494,1504.94
150580,1505.8
150666,1506.66
150749,1507.49
150834,1508.34
150918,1509.18
151001,1510.01
151084,1510.84
151168,1511.68
151250,1512.5
151331,1513.31
151413,1514.13
151492,1514.92
151570,1515.7
151647,1516.47
151725,1517.25
151801,1518.01
151875,1518.75
151949,1519.49
152026,1520.26
152103,1521.03
152179,1521.79
152255,1522.55
152333,1523.33
152410,1524.1
152488,1524.88
152566,1525.66
152645,1526.45
152722,1527.22
152801,1528.01
152879,1528.79
152957,1529.57
153034,1530.34
153111,1531.11
153188,1531.88
153266,1532.66
153342,1533.42
153420,1534.2
153498,1534.98
153575,1535.75
153653,1536.53
153731,1537.31
153809,1538.09
153890,1538.9
153971,1539.71
154052,1540.52
154132,1541.32
154214,1542.14
154294,1542.94
154374,1543.74
154455,1544.55
154535,1545.35
154615,1546.15
154698,1546.98
154783,1547.83
154869,1548.69
154959,1549.59
155047,1550.47
155137,1551.37
155227,1552.27
155316,1553.16
155406,1554.06
155496,1554.96
155587,1555.87
155676,1556.76
155768,1557.68
155857,1558.57
155945,1559.45
156034,1560.34
156118,1561.18
156203,1562.03
156285,1562.85
156365,1563.65
156444,1564.44
156524,1565.24
156602,1566.02
156680,1566.8
156759,1567.59
156837,1568.37
156915,1569.15
156994,1569.94
157074,1570.74
157153,1571.53
157233,1572.33
157312,1573.12
157392,1573.92
157473,1574.73
157553,1575.53
157634,1576.34
157716,1577.16
157799,1577.99
157882,1578.82
157967,1579.67
158051,1580.51
158135,1581.35
158220,1582.2
158302,1583.02
158382,1583.82
158462,1584.62
158542,1585.42
158620,1586.2
158700,1587.0
158783,1587.83
158865,1588.65
158950,1589.5
159034,1590.34
159118,1591.18
159203,1592.03
159286,1592.86
159371,1593.71
159456,1594.56
159540,1595.4
159624,1596.24
159710,1597.1
159795,1597.95
159879,1598.79
159963,1599.63
160047,1600.47
160129,1601.29
160211,1602.11
160293,1602.93
160372,1603.72
160450,1604.5
160529,1605.29
160608,1606.08
160685,1606.85
160761,1607.61
160838,1608.38
160914,1609.14
160990,1609.9
161067,1610.67
161144,1611.44
161221,1612.21
161300,1613.0
161379,1613.79
161461,1614.61
161541,1615.41
161623,1616.23
161706,1617.06
161788,1617.88
161870,1618.7
161952,1619.52
162034,1620.34
162116,1621.16
162198,1621.98
162281,1622.81
162362,1623.62
162445,1624.45
162528,1625.28
162607,1626.07
162686,1626.86
162764,1627.64
162840,1628.4
162917,1629.17
162995,1629.95
163072,1630.72
163152,1631.52
163236,1632.36
163316,1633.16
163397,1633.97
163482,1634.82
163568,1635.68
163656,1636.56
163742,1637.42
163828,1638.28
163912,1639.12
163995,1639.95
164080,1640.8
164165,1641.65
164249,1642.49
164333,1643.33
164417,1644.17
164501,1645.01
164588,1645.88
164674,1646.74
164759,1647.59
164844,1648.44
164930,1649.3
165013,1650.13
165096,1650.96
165178,1651.78
165258,1652.58
165338,1653.38
165418,1654.18
165498,1654.98
165577,1655.77
165656,1656.56
165735,1657.35
165813,1658.13
165891,1658.91
165968,1659.68
166048,1660.48
166127,1661.27
166206,1662.06
166285,1662.85
166367,1663.67
166449,1664.49
166531,1665.31
166616,1666.16
166702,1667.02
166789,1667.89
166874,1668.74
166962,1669.62
167047,1670.47
167134,1671.34
167219,1672.19
167306,1673.06
167388,1673.88
167473,1674.73
167555,1675.55
167640,1676.4
167725,1677.25
167809,1678.09
167896,1678.96
167981,1679.81
168066,1680.66
168152,1681.52
168235,1682.35
168317,1683.17
168400,1684.0
168480,1684.8
168560,1685.6
168641,1686.41
168721,1687.21
168801,1688.01
168881,1688.81
168958,1689.58
169035,1690.35
169112,1691.12
169188,1691.88
169262,1692.62
169336,1693.36
169410,1694.1
169483,1694.83
169558,1695.58
169632,1696.32
169708,1697.08
169784,1697.84
169860,1698.6
169936,1699.36
170014,1700.14
170093,1700.93
170172,1701.72
170252,1702.52
170333,1703.33
170413,1704.13
170492,1704.92
170573,1705.73
170653,1706.53
170732,1707.32
170810,1708.1
170888,1708.88
170964,1709.64
171039,1710.39
171114,1711.14
171188,1711.88
171262,1712.62
171335,1713.35
171410,1714.1
171486,1714.86
171561,1715.61
171638,1716.38
171716,1717.16
171796,1717.96
171875,1718.75
171957,1719.57
172040,1720.4
172123,1721.23
172206,1722.06
172290,1722.9
172371,1723.71
172453,1724.53
172536,1725.36
172618,1726.18
172699,1726.99
172780,1727.8
172863,1728.63
172947,1729.47
173028,1730.28
173112,1731.12
173194,1731.94
173274,1732.74
173355,1733.55
173434,1734.34
173512,1735.12
173588,1735.88
173666,1736.66
173746,1737.46
173827,1738.27
173908,1739.08
173988,1739.88
174070,1740.7
174151,1741.51
174232,1742.32
174314,1743.14
174397,1743.97
174479,1744.79
174561,1745.61
174642,1746.42
174722,1747.22
174801,1748.01
174882,1748.82
174962,1749.62
175041,1750.41
175120,1751.2
175199,1751.99
175279,1752.79
175359,1753.59
175438,1754.38
175518,1755.18
175598,1755.98
175679,1756.79
175760,1757.6
175839,1758.39
175922,1759.22
176005,1760.05
176089,1760.89
176173,1761.73
176259,1762.59
176345,1763.45
176431,1764.31
176519,1765.19
176607,1766.07
176695,1766.95
176783,1767.83
176871,1768.71
176961,1769.61
177050,1770.5
177136,1771.36
177221,1772.21
177308,1773.08
177392,1773.92
177475,1774.75
177559,1775.59
177642,1776.42
177725,1777.25
177807,1778.07
177890,1778.9
177972,1779.72
178053,1780.53
178134,1781.34
178215,1782.15
178297,1782.97
178378,1783.78
178461,1784.61
178544,1785.44
178625,1786.25
178705,1787.05
178787,1787.87
178866,1788.66
178944,1789.44
179023,1790.23
179102,1791.02
179181,1791.81
179260,1792.6
179340,1793.4
179417,1794.17
179494,1794.94
179571,1795.71
179649,1796.49
179725,1797.25
179799,1797.99
179874,1798.74
179949,1799.49
180022,1800.22
180096,1800.96
180170,1801.7
180243,1802.43
180316,1803.16
180398,1803.98
180480,1804.8
180547,1805.47
180615,1806.15
180688,1806.88
180761,1807.61
180832,1808.32
180902,1809.02
180970,1809.7
181038,1810.38
181106,1811.06
181173,1811.73
181239,1812.39
181305,1813.05
181371,1813.71
181437,1814.37
181502,1815.02
181566,1815.66
181629,1816.29
181694,1816.94
181757,1817.57
181823,1818.23
181895,1818.95
181968,1819.68
182038,1820.38
182109,1821.09
182182,1821.82
182256,1822.56
182329,1823.29
182403,1824.03
182476,1824.76
182550,1825.5
182627,1826.27
182706,1827.06
182785,1827.85
182864,1828.64
182945,1829.45
183024,1830.24
183104,1831.04
183185,1831.85
183265,1832.65
183343,1833.43
183421,1834.21
183499,1834.99
183574,1835.74
183649,1836.49
183725,1837.25
183800,1838.0
183874,1838.74
183950,1839.5
184026,1840.26
184101,1841.01
184179,1841.79
184258,1842.58
184338,1843.38
184416,1844.16
184495,1844.95
184575,1845.75
184656,1846.56
184735,1847.35
184816,1848.16
184898,1848.98
184981,1849.81
185063,1850.63
185145,1851.45
185225,1852.25
185307,1853.07
185389,1853.89
185470,1854.7
185551,1855.51
185631,1856.31
185712,1857.12
185793,1857.93
185874,1858.74
185955,1859.55
186035,1860.35
186114,1861.14
186195,1861.95
186274,1862.74
186352,1863.52
186430,1864.3
186508,1865.08
186585,1865.85
186662,1866.62
186739,1867.39
186815,1868.15
186892,1868.92
186967,1869.67
187042,1870.42
187118,1871.18
187192,1871.92
187266,1872.66
187342,1873.42
187415,1874.15
187491,1874.91
187567,1875.67
187644,1876.44
187720,1877.2
187798,1877.98
187877,1878.77
187955,1879.55
188034,1880.34
188115,1881.15
188196,1881.96
188276,1882.76
188357,1883.57
188439,1884.39
188521,1885.21
188602,1886.02
188683,1886.83
188764,1887.64
188846,1888.46
188926,1889.26
189006,1890.06
189088,1890.88
189169,1891.69
189250,1892.5
189329,1893.29
189408,1894.08
189486,1894.86
189562,1895.62
189638,1896.38
189714,1897.14
189788,1897.88
189862,1898.62
189937,1899.37
190012,1900.12
190088,1900.88
190167,1901.67
190246,1902.46
190328,1903.28
190410,1904.1
190494,1904.94
190577,1905.77
190663,1906.63
190748,1907.48
190834,1908.34
190927,1909.27
191018,1910.18
191111,1911.11
191204,1912.04
191296,1912.96
191390,1913.9
191484,1914.84
191576,1915.76
191671,1916.71
191766,1917.66
191857,1918.57
191946,1919.46
192031,1920.31
192113,1921.13
192193,1921.93
192271,1922.71
192349,1923.49
192427,1924.27
192503,1925.03
192579,1925.79
192657,1926.57
192735,1927.35
192812,1928.12
192890,1928.9
192969,1929.69
193050,1930.5
193130,1931.3
193211,1932.11
193293,1932.93
193375,1933.75
193456,1934.56
193538,1935.38
193620,1936.2
193703,1937.03
193784,1937.84
193865,1938.65
193947,1939.47
194028,1940.28
194108,1941.08
194187,1941.87
194267,1942.67
194348,1943.48
194430,1944.3
194510,1945.1
194592,1945.92
194673,1946.73
194755,1947.55
194836,1948.36
194916,1949.16
194997,1949.97
195078,1950.78
195157,1951.57
195236,1952.36
195316,1953.16
195396,1953.96
195475,1954.75
195554,1955.54
195633,1956.33
195711,1957.11
195790,1957.9
195869,1958.69
195948,1959.48
196030,1960.3
196111,1961.11
196192,1961.92
196271,1962.71
196351,1963.51
196433,1964.33
196516,1965.16
196600,1966.0
196686,1966.86
196770,1967.7
196854,1968.54
196937,1969.37
197021,1970.21
197102,1971.02
197182,1971.82
197264,1972.64
197343,1973.43
197421,1974.21
197497,1974.97
197571,1975.71
197645,1976.45
197719,1977.19
197791,1977.91
197865,1978.65
197939,1979.39
198011,1980.11
198083,1980.83
198156,1981.56
198230,1982.3
198304,1983.04
198381,1983.81
198459,1984.59
198535,1985.35
198611,1986.11
198687,1986.87
198791,1987.91
198896,1988.96
198982,1989.82
199068,1990.68
199139,1991.39
199210,1992.1
199281,1992.81
199349,1993.49
199418,1994.18
199485,1994.85
199551,1995.51
199615,1996.15
199680,1996.8
199744,1997.44
199807,1998.07
199941,1999.41
200076,2000.76
200163,2001.63
200250,2002.5
200314,2003.14
200378,2003.78
200441,2004.41
200506,2005.06
200571,2005.71
200636,2006.36
200703,2007.03
200770,2007.7
200839,2008.39
200909,2009.09
200981,2009.81
201052,2010.52
201125,2011.25
201198,2011.98
201271,2012.71
201344,2013.44
201418,2014.18
201491,2014.91
201562,2015.62
201633,2016.33
201703,2017.03
201773,2017.73
201843,2018.43
201915,2019.15
201991,2019.91
202066,2020.66
202142,2021.42
202219,2022.19
202296,2022.96
202372,2023.72
202447,2024.47
202523,2025.23
202600,2026.0
202677,2026.77
202753,2027.53
202828,2028.28
202905,2029.05
202981,2029.81
203057,2030.57
203134,2031.34
203211,2032.11
203288,2032.88
203366,2033.66
203444,2034.44
203522,2035.22
203599,2035.99
203678,2036.78
203757,2037.57
203836,2038.36
203915,2039.15
203995,2039.95
204075,2040.75
204153,2041.53
204231,2042.31
204309,2043.09
204386,2043.86
204463,2044.63
204541,2045.41
204619,2046.19
204695,2046.95
204771,2047.71
204847,2048.47
204921,2049.21
204993,2049.93
205064,2050.64
205136,2051.36
205207,2052.07
205278,2052.78
205348,2053.48
205420,2054.2
205492,2054.92
205566,2055.66
205641,2056.41
205718,2057.18
205796,2057.96
205874,2058.74
205954,2059.54
206035,2060.35
206118,2061.18
206202,2062.02
206288,2062.88
206372,2063.72
206456,2064.56
206538,2065.38
206619,2066.19
206701,2067.01
206781,2067.81
206861,2068.61
206942,2069.42
207024,2070.24
207103,2071.03
207182,2071.82
207261,2072.61
207340,2073.4
207418,2074.18
207497,2074.97
207574,2075.74
207651,2076.51
207728,2077.28
207804,2078.04
207879,2078.79
207955,2079.55
208029,2080.29
208103,2081.03
208177,2081.77
208250,2082.5
208323,2083.23
208397,2083.97
208473,2084.73
208548,2085.48
208624,2086.24
208702,2087.02
208777,2087.77
208851,2088.51
208925,2089.25
208997,2089.97
209068,2090.68
209138,2091.38
209208,2092.08
209279,2092.79
209350,2093.5
209422,2094.22
209497,2094.97
209571,2095.71
209647,2096.47
209724,2097.24
209803,2098.03
209884,2098.84
209963,2099.63
210046,2100.46
210128,2101.28
210209,2102.09
210289,2102.89
210367,2103.67
210445,2104.45
210523,2105.23
210603,2106.03
210683,2106.83
210764,2107.64
210844,2108.44
210927,2109.27
211011,2110.11
211096,2110.96
211181,2111.81
211265,2112.65
211345,2113.45
211424,2114.24
211503,2115.03
211580,2115.8
211657,2116.57
211733,2117.33
211809,2118.09
211885,2118.85
211960,2119.6
212035,2120.35
212110,2121.1
212184,2121.84
212259,2122.59
212333,2123.33
212406,2124.06
212479,2124.79
212552,2125.52
212628,2126.28
212705,2127.05
212781,2127.81
212857,2128.57
212935,2129.35
213010,2130.1
213086,2130.86
213162,2131.62
213239,2132.39
213314,2133.14
213386,2133.86
213459,2134.59
213532,2135.32
213603,2136.03
213675,2136.75
213747,2137.47
213819,2138.19
213890,2138.9
213962,2139.62
214034,2140.34
214106,2141.06
214180,2141.8
214254,2142.54
214331,2143.31
214409,2144.09
214488,2144.88
214568,2145.68
214647,2146.47
214727,2147.27
214808,2148.08
214888,2148.88
214967,2149.67
215046,2150.46
215124,2151.24
215201,2152.01
215278,2152.78
215354,2153.54
215430,2154.3
215505,2155.05
215581,2155.81
215655,2156.55
215730,2157.3
215803,2158.03
215877,2158.77
215950,2159.5
216022,2160.22
216093,2160.93
216163,2161.63
216233,2162.33
216302,2163.02
216372,2163.72
216444,2164.44
216516,2165.16
216590,2165.9
216663,2166.63
216737,2167.37
216812,2168.12
216889,2168.89
216963,2169.63
217037,2170.37
217113,2171.13
217189,2171.89
217263,2172.63
217341,2173.41
217419,2174.19
217494,2174.94
217567,2175.67
217642,2176.42
217716,2177.16
217790,2177.9
217863,2178.63
217936,2179.36
218008,2180.08
218080,2180.8
218154,2181.54
218228,2182.28
218303,2183.03
218379,2183.79
218458,2184.58
218536,2185.36
218618,2186.18
218701,2187.01
218783,2187.83
218866,2188.66
218951,2189.51
219036,2190.36
219122,2191.22
219206,2192.06
219291,2192.91
219375,2193.75
219456,2194.56
219536,2195.36
219614,2196.14
219691,2196.91
219768,2197.68
219843,2198.43
219918,2199.18
219994,2199.94
220069,2200.69
220144,2201.44
220218,2202.18
220292,2202.92
220366,2203.66
220439,2204.39
220514,2205.14
220589,2205.89
220665,2206.65
220739,2207.39
220814,2208.14
220890,2208.9
220966,2209.66
221042,2210.42
221118,2211.18
221195,2211.95
221275,2212.75
221350,2213.5
221425,2214.25
221499,2214.99
221572,2215.72
221643,2216.43
221715,2217.15
221788,2217.88
221860,2218.6
221933,2219.33
222006,2220.06
222079,2220.79
222152,2221.52
222226,2222.26
222301,2223.01
222379,2223.79
222456,2224.56
222535,2225.35
222615,2226.15
222697,2226.97
222781,2227.81
222867,2228.67
222950,2229.5
223034,2230.34
223119,2231.19
223202,2232.02
223284,2232.84
223365,2233.65
223446,2234.46
223526,2235.26
223604,2236.04
223682,2236.82
223759,2237.59
223835,2238.35
223910,2239.1
223986,2239.86
224063,2240.63
224139,2241.39
224215,2242.15
224291,2242.91
224369,2243.69
224447,2244.47
224523,2245.23
224600,2246.0
224678,2246.78
224754,2247.54
224828,2248.28
224904,2249.04
224982,2249.82
225060,2250.6
225138,2251.38
225215,2252.15
225295,2252.95
225370,2253.7
225446,2254.46
225520,2255.2
225594,2255.94
225666,2256.66
225737,2257.37
225809,2258.09
225880,2258.8
225952,2259.52
226024,2260.24
226096,2260.96
226170,2261.7
226245,2262.45
226320,2263.2
226398,2263.98
226476,2264.76
226556,2265.56
226636,2266.36
226718,2267.18
226800,2268.0
226880,2268.8
226962,2269.62
227043,2270.43
227124,2271.24
227205,2272.05
227286,2272.86
227366,2273.66
227444,2274.44
227522,2275.22
227598,2275.98
227675,2276.75
227750,2277.5
227826,2278.26
227902,2279.02
227979,2279.79
228058,2280.58
228136,2281.36
228213,2282.13
228291,2282.91
228368,2283.68
228445,2284.45
228523,2285.23
228598,2285.98
228674,2286.74
228751,2287.51
228828,2288.28
228905,2289.05
228982,2289.82
229057,2290.57
229137,2291.37
229218,2292.18
229294,2292.94
229370,2293.7
229446,2294.46
229520,2295.2
229595,2295.95
229669,2296.69
229744,2297.44
229821,2298.21
229896,2298.96
229972,2299.72
230049,2300.49
230125,2301.25
230203,2302.03
230282,2302.82
230363,2303.63
230445,2304.45
230528,2305.28
230610,2306.1
230694,2306.94
230779,2307.79
230863,2308.63
230946,2309.46
231027,2310.27
231107,2311.07
231187,2311.87
231268,2312.68
231349,2313.49
231429,2314.29
231508,2315.08
231588,2315.88
231666,2316.66
231744,2317.44
231820,2318.2
231896,2318.96
231971,2319.71
232046,2320.46
232119,2321.19
232193,2321.93
232266,2322.66
232339,2323.39
232412,2324.12
232487,2324.87
232562,2325.62
232643,2326.43
232722,2327.22
232804,2328.04
232884,2328.84
232966,2329.66
233048,2330.48
233129,2331.29
233211,2332.11
233294,2332.94
233373,2333.73
233451,2334.51
233527,2335.27
233602,2336.02
233677,2336.77
233751,2337.51
233825,2338.25
233899,2338.99
233973,2339.73
234048,2340.48
234122,2341.22
234199,2341.99
234277,2342.77
234359,2343.59
234441,2344.41
234524,2345.24
234608,2346.08
234693,2346.93
234778,2347.78
234862,2348.62
234948,2349.48
235034,2350.34
235116,2351.16
235198,2351.98
235278,2352.78
235360,2353.6
235440,2354.4
235520,2355.2
235603,2356.03
235686,2356.86
235770,2357.7
235853,2358.53
235936,2359.36
236019,2360.19
236101,2361.01
236182,2361.82
236262,2362.62
236341,2363.41
236419,2364.19
236497,2364.97
236576,2365.76
236654,2366.54
236731,2367.31
236808,2368.08
236886,2368.86
236967,2369.67
237048,2370.48
237125,2371.25
237205,2372.05
237287,2372.87
237364,2373.64
237439,2374.39
237514,2375.14
237586,2375.86
237658,2376.58
237730,2377.3
237802,2378.02
237875,2378.75
237947,2379.47
238020,2380.2
238094,2380.94
238168,2381.68
238242,2382.42
238317,2383.17
238394,2383.94
238470,2384.7
238547,2385.47
238627,2386.27
238710,2387.1
238793,2387.93
238879,2388.79
238968,2389.68
239058,2390.58
239146,2391.46
239237,2392.37
239328,2393.28
239418,2394.18
239510,2395.1
239601,2396.01
239690,2396.9
239777,2397.77
239862,2398.62
239946,2399.46
240029,2400.29
240111,2401.11
240191,2401.91
240270,2402.7
240348,2403.48
240425,2404.25
240502,2405.02
240580,2405.8
240659,2406.59
240737,2407.37
240817,2408.17
240897,2408.97
240978,2409.78
241057,2410.57
241137,2411.37
241216,2412.16
241296,2412.96
241375,2413.75
241457,2414.57
241540,2415.4
241620,2416.2
241699,2416.99
241780,2417.8
241857,2418.57
241933,2419.33
242008,2420.08
242080,2420.8
242152,2421.52
242225,2422.25
242298,2422.98
242369,2423.69
242441,2424.41
242515,2425.15
242590,2425.9
242666,2426.66
242744,2427.44
242823,2428.23
242903,2429.03
242985,2429.85
243072,2430.72
243162,2431.62
243250,2432.5
243341,2433.41
243432,2434.32
243524,2435.24
243616,2436.16
243705,2437.05
243790,2437.9
243876,2438.76
243960,2439.6
244042,2440.42
244124,2441.24
244203,2442.03
244282,2442.82
244360,2443.6
244438,2444.38
244516,2445.16
244595,2445.95
244674,2446.74
244752,2447.52
244833,2448.33
244916,2449.16
244997,2449.97
245078,2450.78
245162,2451.62
245246,2452.46
245326,2453.26
245405,2454.05
245482,2454.82
245559,2455.59
245635,2456.35
245710,2457.1
245787,2457.87
245864,2458.64
245940,2459.4
246019,2460.19
246098,2460.98
246177,2461.77
246258,2462.58
246341,2463.41
246427,2464.27
246511,2465.11
246598,2465.98
246686,2466.86
246775,2467.75
246866,2468.66
246956,2469.56
247046,2470.46
247138,2471.38
247232,2472.32
247326,2473.26
247416,2474.16
247506,2475.06
247594,2475.94
247681,2476.81
247766,2477.66
247850,2478.5
247933,2479.33
248013,2480.13
248091,2480.91
248170,2481.7
248250,2482.5
248328,2483.28
248408,2484.08
248488,2484.88
248567,2485.67
248649,2486.49
248732,2487.32
248813,2488.13
248896,2488.96
248980,2489.8
249064,2490.64
249146,2491.46
249229,2492.29
249308,2493.08
249388,2493.88
249468,2494.68
249548,2495.48
249626,2496.26
249701,2497.01
249775,2497.75
249849,2498.49
249923,2499.23
249996,2499.96
250070,2500.7
250145,2501.45
250220,2502.2
250296,2502.96
250374,2503.74
250451,2504.51
250531,2505.31
250613,2506.13
250698,2506.98
250781,2507.81
250870,2508.7
250958,2509.58
251046,2510.46
251137,2511.37
251228,2512.28
251317,2513.17
251407,2514.07
251500,2515.0
251591,2515.91
251681,2516.81
251770,2517.7
251857,2518.57
251944,2519.44
252030,2520.3
252116,2521.16
252200,2522.0
252284,2522.84
252368,2523.68
252453,2524.53
252536,2525.36
252621,2526.21
252707,2527.07
252792,2527.92
252875,2528.75
252959,2529.59
253044,2530.44
253126,2531.26
253208,2532.08
253292,2532.92
253372,2533.72
253453,2534.53
253534,2535.34
253614,2536.14
253698,2536.98
253780,2537.8
253861,2538.61
253943,2539.43
254022,2540.22
254101,2541.01
254177,2541.77
254254,2542.54
254330,2543.3
254405,2544.05
254480,2544.8
254554,2545.54
254628,2546.28
254703,2547.03
254777,2547.77
254851,2548.51
254927,2549.27
255003,2550.03
255084,2550.84
255165,2551.65
255250,2552.5
255338,2553.38
255430,2554.3
255518,2555.18
255612,2556.12
255706,2557.06
255794,2557.94
255887,2558.87
255979,2559.79
256068,2560.68
256159,2561.59
256250,2562.5
256335,2563.35
256419,2564.19
256503,2565.03
256588,2565.88
256670,2566.7
256754,2567.54
256838,2568.38
256922,2569.22
257006,2570.06
257088,2570.88
257168,2571.68
257245,2572.45
257322,2573.22
257404,2574.04
257485,2574.85
257564,2575.64
257647,2576.47
257732,2577.32
257814,2578.14
257897,2578.97
257979,2579.79
258060,2580.6
258144,2581.44
258223,2582.23
258304,2583.04
258388,2583.88
258469,2584.69
258553,2585.53
258637,2586.37
258717,2587.17
258797,2587.97
258874,2588.74
258950,2589.5
259024,2590.24
259097,2590.97
259170,2591.7
259242,2592.42
259315,2593.15
259387,2593.87
259460,2594.6
259534,2595.34
259608,2596.08
259684,2596.84
259766,2597.66
259851,2598.51
259938,2599.38
260024,2600.24
260116,2601.16
260211,2602.11
260305,2603.05
260393,2603.93
260483,2604.83
260570,2605.7
260658,2606.58
260748,2607.48
260836,2608.36
260924,2609.24
261011,2610.11
261094,2610.94
261179,2611.79
261263,2612.63
261343,2613.43
261423,2614.23
261503,2615.03
261585,2615.85
261665,2616.65
261749,2617.49
261832,2618.32
261914,2619.14
261996,2619.96
262082,2620.82
262163,2621.63
262244,2622.44
262327,2623.27
262405,2624.05
262489,2624.89
262574,2625.74
262656,2626.56
262741,2627.41
262825,2628.25
262906,2629.06
262989,2629.89
263073,2630.73
263155,2631.55
263240,2632.4
263322,2633.22
263406,2634.06
263491,2634.91
263571,2635.71
263649,2636.49
263725,2637.25
263800,2638.0
263874,2638.74
263947,2639.47
264020,2640.2
264092,2640.92
264164,2641.64
264236,2642.36
264308,2643.08
264382,2643.82
264456,2644.56
264532,2645.32
264614,2646.14
264697,2646.97
264786,2647.86
264873,2648.73
264967,2649.67
265061,2650.61
265155,2651.55
265244,2652.44
265338,2653.38
265430,2654.3
265525,2655.25
265617,2656.17
265708,2657.08
265797,2657.97
265885,2658.85
265970,2659.7
266052,2660.52
266131,2661.31
266207,2662.07
266285,2662.85
266364,2663.64
266441,2664.41
266520,2665.2
266604,2666.04
266692,2666.92
266774,2667.74
266857,2668.57
266941,2669.41
267022,2670.22
267104,2671.04
267190,2671.9
267272,2672.72
267354,2673.54
267440,2674.4
267521,2675.21
267603,2676.03
267692,2676.92
267774,2677.74
267856,2678.56
267941,2679.41
268022,2680.22
268102,2681.02
268179,2681.79
268255,2682.55
268330,2683.3
268404,2684.04
268476,2684.76
268548,2685.48
268621,2686.21
268692,2686.92
268764,2687.64
268837,2688.37
268911,2689.11
268986,2689.86
269063,2690.63
269144,2691.44
269227,2692.27
269315,2693.15
269402,2694.02
269488,2694.88
269578,2695.78
269668,2696.68
269754,2697.54
269843,2698.43
269933,2699.33
270021,2700.21
270106,2701.06
270192,2701.92
270285,2702.85
270374,2703.74
270462,2704.62
270546,2705.46
270631,2706.31
270717,2707.17
270802,2708.02
270885,2708.85
270970,2709.7
271053,2710.53
271134,2711.34
271222,2712.22
271305,2713.05
271386,2713.86
271473,2714.73
271554,2715.54
271642,2716.42
271724,2717.24
271810,2718.1
271897,2718.97
271981,2719.81
272070,2720.7
272157,2721.57
272241,2722.41
272331,2723.31
272414,2724.14
272502,2725.02
272583,2725.83
272663,2726.63
272742,2727.42
272818,2728.18
272893,2728.93
272968,2729.68
273042,2730.42
273116,2731.16
273190,2731.9
273264,2732.64
273337,2733.37
273411,2734.11
273483,2734.83
273555,2735.55
273628,2736.28
273700,2737.0
273774,2737.74
273850,2738.5
273933,2739.33
274016,2740.16
274100,2741.0
274185,2741.85
274268,2742.68
274355,2743.55
274438,2744.38
274527,2745.27
274612,2746.12
274694,2746.94
274776,2747.76
274857,2748.57
274940,2749.4
275021,2750.21
275103,2751.03
275183,2751.83
275263,2752.63
275345,2753.45
275424,2754.24
275503,2755.03
275581,2755.81
275662,2756.62
275741,2757.41
275820,2758.2
275901,2759.01
275985,2759.85
276065,2760.65
276151,2761.51
276238,2762.38
276320,2763.2
276406,2764.06
276488,2764.88
276571,2765.71
276661,2766.61
276747,2767.47
276833,2768.33
276922,2769.22
277006,2770.06
277087,2770.87
277168,2771.68
277246,2772.46
277321,2773.21
277396,2773.96
277469,2774.69
277542,2775.42
277614,2776.14
277686,2776.86
277759,2777.59
277833,2778.33
277912,2779.12
277993,2779.93
278074,2780.74
278158,2781.58
278249,2782.49
278343,2783.43
278433,2784.33
278528,2785.28
278624,2786.24
278715,2787.15
278806,2788.06
278893,2788.93
278980,2789.8
279070,2790.7
279160,2791.6
279250,2792.5
279339,2793.39
279427,2794.27
279510,2795.1
279597,2795.97
279678,2796.78
279757,2797.57
279835,2798.35
279915,2799.15
279996,2799.96
280078,2800.78
280157,2801.57
280244,2802.44
280331,2803.31
280414,2804.14
280504,2805.04
280594,2805.94
280681,2806.81
280768,2807.68
280859,2808.59
280944,2809.44
281030,2810.3
281113,2811.13
281196,2811.96
281281,2812.81
281363,2813.63
281442,2814.42
281518,2815.18
281594,2815.94
281667,2816.67
281740,2817.4
281813,2818.13
281884,2818.84
281954,2819.54
282026,2820.26
282099,2820.99
282174,2821.74
282251,2822.51
282328,2823.28
282412,2824.12
282494,2824.94
282579,2825.79
282663,2826.63
282750,2827.5
282839,2828.39
282925,2829.25
283013,2830.13
283100,2831.0
283190,2831.9
283280,2832.8
283371,2833.71
283463,2834.63
283555,2835.55
283644,2836.44
283732,2837.32
283816,2838.16
283901,2839.01
283985,2839.85
284069,2840.69
284153,2841.53
284237,2842.37
284317,2843.17
284399,2843.99
284477,2844.77
284553,2845.53
284632,2846.32
284713,2847.13
284794,2847.94
284876,2848.76
284959,2849.59
285042,2850.42
285121,2851.21
285203,2852.03
285285,2852.85
285362,2853.62
285443,2854.43
285529,2855.29
285609,2856.09
285687,2856.87
285763,2857.63
285838,2858.38
285912,2859.12
285985,2859.85
286057,2860.57
286128,2861.28
286199,2861.99
286271,2862.71
286343,2863.43
286415,2864.15
286488,2864.88
286561,2865.61
286636,2866.36
286712,2867.12
286787,2867.87
286863,2868.63
286939,2869.39
287015,2870.15
287095,2870.95
287179,2871.79
287269,2872.69
287346,2873.46
287441,2874.41
287512,2875.12
287590,2875.9
287657,2876.57
287723,2877.23
287788,2877.88
287852,2878.52
287916,2879.16
287979,2879.79
288042,2880.42
288104,2881.04
288166,2881.66
288230,2882.3
288294,2882.94
288359,2883.59
288424,2884.24
288489,2884.89
288554,2885.54
288621,2886.21
288690,2886.9
288763,2887.63
288838,2888.38
288916,2889.16
288995,2889.95
289073,2890.73
289151,2891.51
289235,2892.35
289321,2893.21
289403,2894.03
289483,2894.83
289560,2895.6
289635,2896.35
289708,2897.08
289782,2897.82
289861,2898.61
289949,2899.49
290037,2900.37
290123,2901.23
290206,2902.06
290287,2902.87
290367,2903.67
290445,2904.45
290522,2905.22
290596,2905.96
290668,2906.68
290740,2907.4
290812,2908.12
290885,2908.85
290960,2909.6
291038,2910.38
291119,2911.19
291199,2911.99
291282,2912.82
291368,2913.68
291453,2914.53
291540,2915.4
291628,2916.28
291714,2917.14
291803,2918.03
291891,2918.91
291981,2919.81
292068,2920.68
292154,2921.54
292239,2922.39
292323,2923.23
292408,2924.08
292494,2924.94
292575,2925.75
292657,2926.57
292739,2927.39
292818,2928.18
292897,2928.97
292978,2929.78
293056,2930.56
293134,2931.34
293215,2932.15
293298,2932.98
293376,2933.76
293453,2934.53
293528,2935.28
293605,2936.05
293680,2936.8
293753,2937.53
293827,2938.27
293901,2939.01
293974,2939.74
294048,2940.48
294120,2941.2
294193,2941.93
294265,2942.65
294337,2943.37
294410,2944.1
294481,2944.81
294553,2945.53
294625,2946.25
294697,2946.97
294772,2947.72
294848,2948.48
294927,2949.27
295009,2950.09
295093,2950.93
295178,2951.78
295264,2952.64
295351,2953.51
295439,2954.39
295527,2955.27
295615,2956.15
295706,2957.06
295797,2957.97
295889,2958.89
295980,2959.8
296068,2960.68
296154,2961.54
296241,2962.41
296325,2963.25
296409,2964.09
296490,2964.9
296572,2965.72
296653,2966.53
296735,2967.35
296817,2968.17
296897,2968.97
296979,2969.79
297062,2970.62
297146,2971.46
297228,2972.28
297311,2973.11
297392,2973.92
297472,2974.72
297554,2975.54
297635,2976.35
297715,2977.15
297796,2977.96
297877,2978.77
297955,2979.55
298032,2980.32
298108,2981.08
298183,2981.83
298258,2982.58
298332,2983.32
298406,2984.06
298479,2984.79
298551,2985.51
298623,2986.23
298696,2986.96
298768,2987.68
298842,2988.42
298917,2989.17
298993,2989.93
299072,2990.72
299152,2991.52
299234,2992.34
299316,2993.16
299402,2994.02
299490,2994.9
299576,2995.76
299664,2996.64
299752,2997.52
299838,2998.38
299923,2999.23
300009,3000.09
300094,3000.94
300178,3001.78
300260,3002.6
300343,3003.43
300425,3004.25
300504,3005.04
300582,3005.82
300660,3006.6
300737,3007.37
300814,3008.14
300891,3008.91
300969,3009.69
301047,3010.47
301125,3011.25
301203,3012.03
301280,3012.8
301358,3013.58
301439,3014.39
301518,3015.18
301595,3015.95
301674,3016.74
301753,3017.53
301833,3018.33
301911,3019.11
301990,3019.9
302070,3020.7
302147,3021.47
302224,3022.24
302300,3023.0
302375,3023.75
302449,3024.49
302521,3025.21
302593,3025.93
302666,3026.66
302738,3027.38
302810,3028.1
302883,3028.83
302957,3029.57
303031,3030.31
303107,3031.07
303185,3031.85
303265,3032.65
303349,3033.49
303435,3034.35
303519,3035.19
303608,3036.08
303697,3036.97
303785,3037.85
303876,3038.76
303967,3039.67
304056,3040.56
304144,3041.44
304233,3042.33
304321,3043.21
304410,3044.1
304495,3044.95
304580,3045.8
304664,3046.64
304746,3047.46
304828,3048.28
304909,3049.09
304986,3049.86
305063,3050.63
305140,3051.4
305218,3052.18
305297,3052.97
305375,3053.75
305455,3054.55
305536,3055.36
305618,3056.18
305698,3056.98
305779,3057.79
305862,3058.62
305942,3059.42
306022,3060.22
306101,3061.01
306179,3061.79
306260,3062.6
306342,3063.42
306422,3064.22
306504,3065.04
306586,3065.86
306666,3066.66
306747,3067.47
306829,3068.29
306908,3069.08
306986,3069.86
307061,3070.61
307134,3071.34
307207,3072.07
307280,3072.8
307352,3073.52
307425,3074.25
307497,3074.97
307569,3075.69
307641,3076.41
307713,3077.13
307787,3077.87
307861,3078.61
307936,3079.36
308014,3080.14
308091,3080.91
308170,3081.7
308248,3082.48
308328,3083.28
308409,3084.09
308490,3084.9
308571,3085.71
308654,3086.54
308739,3087.39
308825,3088.25
308912,3089.12
309001,3090.01
309089,3090.89
309178,3091.78
309262,3092.62
309344,3093.44
309425,3094.25
309507,3095.07
309589,3095.89
309669,3096.69
309751,3097.51
309832,3098.32
309913,3099.13
309992,3099.92
310069,3100.69
310147,3101.47
310224,3102.24
310301,3103.01
310377,3103.77
310454,3104.54
310533,3105.33
310612,3106.12
310693,3106.93
310776,3107.76
310856,3108.56
310936,3109.36
311018,3110.18
311096,3110.96
311174,3111.74
311254,3112.54
311331,3113.31
311408,3114.08
311487,3114.87
311566,3115.66
311642,3116.42
311717,3117.17
311791,3117.91
311864,3118.64
311938,3119.38
312011,3120.11
312084,3120.84
312156,3121.56
312229,3122.29
312302,3123.02
312376,3123.76
312451,3124.51
312527,3125.27
312604,3126.04
312682,3126.82
312762,3127.62
312843,3128.43
312925,3129.25
313005,3130.05
313085,3130.85
313169,3131.69
313251,3132.51
313339,3133.39
313427,3134.27
313514,3135.14
313601,3136.01
313693,3136.93
313785,3137.85
313871,3138.71
313955,3139.55
314035,3140.35
314115,3141.15
314191,3141.91
314268,3142.68
314344,3143.44
314419,3144.19
314493,3144.93
314569,3145.69
314645,3146.45
314721,3147.21
314799,3147.99
314880,3148.8
314962,3149.62
315045,3150.45
315126,3151.26
315207,3152.07
315290,3152.9
315372,3153.72
315456,3154.56
315538,3155.38
315618,3156.18
315703,3157.03
315786,3157.86
315871,3158.71
315951,3159.51
316034,3160.34
316112,3161.12
316189,3161.89
316263,3162.63
316338,3163.38
316411,3164.11
316486,3164.86
316560,3165.6
316634,3166.34
316709,3167.09
316782,3167.82
316858,3168.58
316934,3169.34
317010,3170.1
317088,3170.88
317166,3171.66
317245,3172.45
317323,3173.23
317402,3174.02
317481,3174.81
317560,3175.6
317639,3176.39
317718,3177.18
317799,3177.99
317878,3178.78
317957,3179.57
318036,3180.36
318116,3181.16
318196,3181.96
318278,3182.78
318359,3183.59
318441,3184.41
318524,3185.24
318607,3186.07
318692,3186.92
318775,3187.75
318858,3188.58
318940,3189.4
319022,3190.22
319103,3191.03
319183,3191.83
319261,3192.61
319339,3193.39
319417,3194.17
319494,3194.94
319571,3195.71
319651,3196.51
319730,3197.3
319808,3198.08
319888,3198.88
319971,3199.71
320055,3200.55
320135,3201.35
320216,3202.16
320297,3202.97
320376,3203.76
320457,3204.57
320540,3205.4
320623,3206.23
320703,3207.03
320783,3207.83
320865,3208.65
320943,3209.43
321019,3210.19
321097,3210.97
321174,3211.74
321253,3212.53
321333,3213.33
321411,3214.11
321490,3214.9
321568,3215.68
321647,3216.47
321726,3217.26
321806,3218.06
321890,3218.9
321977,3219.77
322063,3220.63
322151,3221.51
322240,3222.4
322329,3223.29
322416,3224.16
322505,3225.05
322592,3225.92
322678,3226.78
322767,3227.67
322855,3228.55
322944,3229.44
323029,3230.29
323115,3231.15
323200,3232.0
323284,3232.84
323370,3233.7
323453,3234.53
323534,3235.34
323615,3236.15
323694,3236.94
323777,3237.77
323856,3238.56
323936,3239.36
324019,3240.19
324103,3241.03
324183,3241.83
324266,3242.66
324350,3243.5
324430,3244.3
324515,3245.15
324599,3245.99
324681,3246.81
324766,3247.66
324852,3248.52
324935,3249.35
325022,3250.22
325105,3251.05
325189,3251.89
325273,3252.73
325356,3253.56
325441,3254.41
325527,3255.27
325607,3256.07
325684,3256.84
325761,3257.61
325835,3258.35
325907,3259.07
325979,3259.79
326049,3260.49
326117,3261.17
326187,3261.87
326256,3262.56
326329,3263.29
326402,3264.02
326476,3264.76
326554,3265.54
326633,3266.33
326719,3267.19
326807,3268.07
326893,3268.93
326984,3269.84
327076,3270.76
327162,3271.62
327252,3272.52
327343,3273.43
327433,3274.33
327521,3275.21
327607,3276.07
327695,3276.95
327780,3277.8
327866,3278.66
327952,3279.52
328037,3280.37
328120,3281.2
328202,3282.02
328284,3282.84
328364,3283.64
328441,3284.41
328519,3285.19
328600,3286.0
328683,3286.83
328766,3287.66
328852,3288.52
328935,3289.35
329018,3290.18
329105,3291.05
329187,3291.87
329269,3292.69
329360,3293.6
329448,3294.48
329540,3295.4
329631,3296.31
329718,3297.18
329810,3298.1
329898,3298.98
329991,3299.91
330075,3300.75
330157,3301.57
330238,3302.38
330316,3303.16
330393,3303.93
330469,3304.69
330544,3305.44
330619,3306.19
330696,3306.96
330772,3307.72
330847,3308.47
330924,3309.24
331002,3310.02
331082,3310.82
331165,3311.65
331250,3312.5
331336,3313.36
331426,3314.26
331518,3315.18
331608,3316.08
331703,3317.03
331797,3317.97
331888,3318.88
331980,3319.8
332074,3320.74
332168,3321.68
332257,3322.57
332349,3323.49
332440,3324.4
332526,3325.26
332615,3326.15
332700,3327.0
332786,3327.86
332870,3328.7
332953,3329.53
333035,3330.35
333114,3331.14
333193,3331.93
333273,3332.73
333352,3333.52
333433,3334.33
333517,3335.17
333598,3335.98
333682,3336.82
333762,3337.62
333844,3338.44
333930,3339.3
334016,3340.16
334101,3341.01
334183,3341.83
334266,3342.66
334353,3343.53
334434,3344.34
334515,3345.15
334594,3345.94
334671,3346.71
334747,3347.47
334820,3348.2
334895,3348.95
334969,3349.69
335044,3350.44
335119,3351.19
335194,3351.94
335270,3352.7
335346,3353.46
335423,3354.23
335501,3355.01
335581,3355.81
335662,3356.62
335744,3357.44
335826,3358.26
335909,3359.09
335991,3359.91
336074,3360.74
336155,3361.55
336238,3362.38
336323,3363.23
336407,3364.07
336494,3364.94
336581,3365.81
336671,3366.71
336758,3367.58
336846,3368.46
336931,3369.31
337015,3370.15
337099,3370.99
337181,3371.81
337263,3372.63
337342,3373.42
337422,3374.22
337502,3375.02
337582,3375.82
337660,3376.6
337738,3377.38
337818,3378.18
337897,3378.97
337975,3379.75
338056,3380.56
338137,3381.37
338217,3382.17
338296,3382.96
338380,3383.8
338458,3384.58
338537,3385.37
338621,3386.21
338700,3387.0
338781,3387.81
338863,3388.63
338946,3389.46
339026,3390.26
339102,3391.02
339176,3391.76
339249,3392.49
339320,3393.2
339390,3393.9
339459,3394.59
339528,3395.28
339597,3395.97
339665,3396.65
339733,3397.33
339808,3398.08
339884,3398.84
339944,3399.44
340005,3400.05
340073,3400.73
340140,3401.4
340206,3402.06
340272,3402.72
340338,3403.38
340409,3404.09
340469,3404.69
340525,3405.25
340593,3405.93
340653,3406.53
340719,3407.19
340781,3407.81
340843,3408.43
340904,3409.04
340966,3409.66
341028,3410.28
341089,3410.89
341152,3411.52
341215,3412.15
341279,3412.79
341343,3413.43
341408,3414.08
341478,3414.78
341557,3415.57
341637,3416.37
341719,3417.19
341802,3418.02
341887,3418.87
341973,3419.73
342055,3420.55
342137,3421.37
342222,3422.22
342305,3423.05
342390,3423.9
342471,3424.71
342553,3425.53
342634,3426.34
342712,3427.12
342791,3427.91
342871,3428.71
342949,3429.49
343030,3430.3
343112,3431.12
343191,3431.91
343272,3432.72
343348,3433.48
343423,3434.23
343498,3434.98
343571,3435.71
343642,3436.42
343712,3437.12
343782,3437.82
343853,3438.53
343923,3439.23
343994,3439.94
344065,3440.65
344137,3441.37
344210,3442.1
344283,3442.83
344357,3443.57
344431,3444.31
344506,3445.06
344580,3445.8
344657,3446.57
344733,3447.33
344810,3448.1
344888,3448.88
344967,3449.67
345049,3450.49
345132,3451.32
345218,3452.18
345306,3453.06
345395,3453.95
345483,3454.83
345570,3455.7
345656,3456.56
345742,3457.42
345826,3458.26
345909,3459.09
345988,3459.88
346067,3460.67
346144,3461.44
346221,3462.21
346298,3462.98
346375,3463.75
346451,3464.51
346530,3465.3
346611,3466.11
346688,3466.88
346763,3467.63
346842,3468.42
346916,3469.16
346987,3469.87
347058,3470.58
347128,3471.28
347198,3471.98
347266,3472.66
347334,3473.34
347403,3474.03
347470,3474.7
347537,3475.37
347604,3476.04
347671,3476.71
347737,3477.37
347804,3478.04
347871,3478.71
347938,3479.38
348005,3480.05
348072,3480.72
348139,3481.39
348206,3482.06
348272,3482.72
348338,3483.38
348405,3484.05
348472,3484.72
348540,3485.4
348611,3486.11
348686,3486.86
348762,3487.62
348842,3488.42
348922,3489.22
349004,3490.04
349084,3490.84
349166,3491.66
349245,3492.45
349324,3493.24
349400,3494.0
349476,3494.76
349551,3495.51
349626,3496.26
349700,3497.0
349774,3497.74
349850,3498.5
349927,3499.27
350004,3500.04
350081,3500.81
350159,3501.59
350235,3502.35
350313,3503.13
350391,3503.91
350467,3504.67
350543,3505.43
350618,3506.18
350692,3506.92
350767,3507.67
350840,3508.4
350914,3509.14
350985,3509.85
351057,3510.57
351129,3511.29
351200,3512.0
351271,3512.71
351343,3513.43
351416,3514.16
351491,3514.91
351565,3515.65
351642,3516.42
351720,3517.2
351802,3518.02
351883,3518.83
351965,3519.65
352047,3520.47
352133,3521.33
352218,3522.18
352300,3523.0
352383,3523.83
352464,3524.64
352546,3525.46
352628,3526.28
352706,3527.06
352783,3527.83
352860,3528.6
352934,3529.34
353009,3530.09
353083,3530.83
353157,3531.57
353229,3532.29
353303,3533.03
353377,3533.77
353453,3534.53
353526,3535.26
353603,3536.03
353682,3536.82
353756,3537.56
353832,3538.32
353906,3539.06
353980,3539.8
354053,3540.53
354125,3541.25
354195,3541.95
354267,3542.67
354339,3543.39
354411,3544.11
354486,3544.86
354562,3545.62
354640,3546.4
354721,3547.21
354802,3548.02
354886,3548.86
354970,3549.7
355054,3550.54
355138,3551.38
355220,3552.2
355305,3553.05
355388,3553.88
355470,3554.7
355552,3555.52
355634,3556.34
355714,3557.14
355796,3557.96
355877,3558.77
355958,3559.58
356041,3560.41
356122,3561.22
356203,3562.03
356282,3562.82
356361,3563.61
356439,3564.39
356515,3565.15
356591,3565.91
356666,3566.66
356740,3567.4
356816,3568.16
356891,3568.91
356966,3569.66
357044,3570.44
357120,3571.2
357196,3571.96
357274,3572.74
357349,3573.49
357426,3574.26
357502,3575.02
357578,3575.78
357653,3576.53
357728,3577.28
357803,3578.03
357878,3578.78
357953,3579.53
358028,3580.28
358103,3581.03
358179,3581.79
358255,3582.55
358331,3583.31
358407,3584.07
358486,3584.86
358564,3585.64
358641,3586.41
358718,3587.18
358795,3587.95
358874,3588.74
358951,3589.51
359031,3590.31
359114,3591.14
359195,3591.95
359280,3592.8
359367,3593.67
359453,3594.53
359538,3595.38
359627,3596.27
359713,3597.13
359795,3597.95
359876,3598.76
359959,3599.59
360040,3600.4
360118,3601.18
360194,3601.94
360271,3602.71
360346,3603.46
360419,3604.19
360494,3604.94
360569,3605.69
360644,3606.44
360718,3607.18
360792,3607.92
360866,3608.66
360940,3609.4
361014,3610.14
361088,3610.88
361161,3611.61
361236,3612.36
361311,3613.11
361386,3613.86
361460,3614.6
361536,3615.36
361614,3616.14
361693,3616.93
361776,3617.76
361860,3618.6
361945,3619.45
362033,3620.33
362119,3621.19
362204,3622.04
362290,3622.9
362374,3623.74
362457,3624.57
362539,3625.39
362619,3626.19
362698,3626.98
362776,3627.76
362854,3628.54
362933,3629.33
363011,3630.11
363088,3630.88
363166,3631.66
363245,3632.45
363322,3633.22
363400,3634.0
363479,3634.79
363558,3635.58
363636,3636.36
363715,3637.15
363794,3637.94
363872,3638.72
363953,3639.53
364036,3640.36
364119,3641.19
364199,3641.99
364274,3642.74
364348,3643.48
364419,3644.19
364491,3644.91
364563,3645.63
364635,3646.35
364708,3647.08
364783,3647.83
364860,3648.6
364936,3649.36
365012,3650.12
365090,3650.9
365168,3651.68
365246,3652.46
365324,3653.24
365403,3654.03
365481,3654.81
365559,3655.59
365638,3656.38
365714,3657.14
365791,3657.91
365868,3658.68
365945,3659.45
366022,3660.22
366100,3661.0
366179,3661.79
366258,3662.58
366337,3663.37
366417,3664.17
366498,3664.98
366576,3665.76
366656,3666.56
366736,3667.36
366816,3668.16
366896,3668.96
366977,3669.77
367059,3670.59
367141,3671.41
367226,3672.26
367309,3673.09
367392,3673.92
367471,3674.71
367550,3675.5
367627,3676.27
367705,3677.05
367784,3677.84
367862,3678.62
367941,3679.41
368020,3680.2
368097,3680.97
368176,3681.76
368254,3682.54
368329,3683.29
368403,3684.03
368477,3684.77
368549,3685.49
368622,3686.22
368695,3686.95
368767,3687.67
368840,3688.4
368913,3689.13
368985,3689.85
369058,3690.58
369131,3691.31
369204,3692.04
369276,3692.76
369348,3693.48
369422,3694.22
369495,3694.95
369571,3695.71
369646,3696.46
369723,3697.23
369801,3698.01
369881,3698.81
369962,3699.62
370045,3700.45
370131,3701.31
370215,3702.15
370303,3703.03
370392,3703.92
370481,3704.81
370572,3705.72
370662,3706.62
370752,3707.52
370840,3708.4
370928,3709.28
371016,3710.16
371102,3711.02
371188,3711.88
371273,3712.73
371357,3713.57
371440,3714.4
371523,3715.23
371605,3716.05
371687,3716.87
371767,3717.67
371844,3718.44
371922,3719.22
372002,3720.02
372082,3720.82
372161,3721.61
372242,3722.42
372325,3723.25
372404,3724.04
372483,3724.83
372564,3725.64
372644,3726.44
372722,3727.22
372805,3728.05
372883,3728.83
372962,3729.62
373045,3730.45
373123,3731.23
373204,3732.04
373282,3732.82
373358,3733.58
373433,3734.33
373507,3735.07
373580,3735.8
373652,3736.52
373723,3737.23
373793,3737.93
373864,3738.64
373934,3739.34
374005,3740.05
374075,3740.75
374147,3741.47
374220,3742.2
374295,3742.95
374373,3743.73
374451,3744.51
374532,3745.32
374611,3746.11
374692,3746.92
374772,3747.72
374853,3748.53
374932,3749.32
375012,3750.12
375094,3750.94
375176,3751.76
375255,3752.55
375337,3753.37
375417,3754.17
375497,3754.97
375574,3755.74
375648,3756.48
375719,3757.19
375786,3757.86
375864,3758.64
375942,3759.42
376012,3760.12
376080,3760.8
376148,3761.48
376215,3762.15
376284,3762.84
376355,3763.55
376429,3764.29
376504,3765.04
376582,3765.82
376665,3766.65
376752,3767.52
376843,3768.43
376933,3769.33
377021,3770.21
377111,3771.11
377197,3771.97
377280,3772.8
377362,3773.62
377443,3774.43
377521,3775.21
377600,3776.0
377677,3776.77
377753,3777.53
377830,3778.3
377909,3779.09
377989,3779.89
378068,3780.68
378150,3781.5
378232,3782.32
378311,3783.11
378392,3783.92
378469,3784.69
378545,3785.45
378621,3786.21
378695,3786.95
378769,3787.69
378843,3788.43
378917,3789.17
378992,3789.92
379067,3790.67
379141,3791.41
379217,3792.17
379292,3792.92
379367,3793.67
379442,3794.42
379517,3795.17
379592,3795.92
379668,3796.68
379745,3797.45
379823,3798.23
379903,3799.03
379982,3799.82
380065,3800.65
380149,3801.49
380233,3802.33
380312,3803.12
380392,3803.92
380485,3804.85
380579,3805.79
380666,3806.66
380754,3807.54
380840,3808.4
380922,3809.22
381005,3810.05
381088,3810.88
381170,3811.7
381252,3812.52
381334,3813.34
381417,3814.17
381496,3814.96
381575,3815.75
381653,3816.53
381730,3817.3
381807,3818.07
381881,3818.81
381957,3819.57
382034,3820.34
382111,3821.11
382188,3821.88
382266,3822.66
382346,3823.46
382426,3824.26
382504,3825.04
382585,3825.85
382662,3826.62
382739,3827.39
382819,3828.19
382903,3829.03
382980,3829.8
383059,3830.59
383135,3831.35
383211,3832.11
383285,3832.85
383359,3833.59
383431,3834.31
383503,3835.03
383575,3835.75
383647,3836.47
383718,3837.18
383790,3837.9
383862,3838.62
383934,3839.34
384006,3840.06
384080,3840.8
384153,3841.53
384229,3842.29
384306,3843.06
384388,3843.88
384467,3844.67
384550,3845.5
384636,3846.36
384720,3847.2
384815,3848.15
384905,3849.05
384999,3849.99
385085,3850.85
385169,3851.69
385254,3852.54
385336,3853.36
385417,3854.17
385498,3854.98
385578,3855.78
385658,3856.58
385737,3857.37
385817,3858.17
385895,3858.95
385972,3859.72
386049,3860.49
386128,3861.28
386213,3862.13
386293,3862.93
386373,3863.73
386453,3864.53
386532,3865.32
386612,3866.12
386691,3866.91
386777,3867.77
386859,3868.59
386940,3869.4
387026,3870.26
387115,3871.15
387198,3871.98
387281,3872.81
387364,3873.64
387442,3874.42
387524,3875.24
387608,3876.08
387687,3876.87
387765,3877.65
387842,3878.42
387920,3879.2
387992,3879.92
388065,3880.65
388137,3881.37
388209,3882.09
388281,3882.81
388353,3883.53
388426,3884.26
388500,3885.0
388573,3885.73
388647,3886.47
388721,3887.21
388797,3887.97
388874,3888.74
388952,3889.52
389031,3890.31
389111,3891.11
389191,3891.91
389271,3892.71
389353,3893.53
389433,3894.33
389515,3895.15
389600,3896.0
389682,3896.82
389768,3897.68
389852,3898.52
389936,3899.36
390019,3900.19
390102,3901.02
390184,3901.84
390264,3902.64
390344,3903.44
390423,3904.23
390501,3905.01
390579,3905.79
390655,3906.55
390731,3907.31
390808,3908.08
390884,3908.84
390962,3909.62
391039,3910.39
391118,3911.18
391197,3911.97
391274,3912.74
391353,3913.53
391432,3914.32
391512,3915.12
391593,3915.93
391672,3916.72
391753,3917.53
391834,3918.34
391916,3919.16
391996,3919.96
392078,3920.78
392157,3921.57
392238,3922.38
392322,3923.22
392400,3924.0
392477,3924.77
392552,3925.52
392626,3926.26
392698,3926.98
392771,3927.71
392845,3928.45
392917,3929.17
392989,3929.89
393062,3930.62
393134,3931.34
393207,3932.07
393279,3932.79
393351,3933.51
393423,3934.23
393496,3934.96
393569,3935.69
393642,3936.42
393715,3937.15
393788,3937.88
393862,3938.62
393938,3939.38
394016,3940.16
394099,3940.99
394185,3941.85
394271,3942.71
394365,3943.65
394457,3944.57
394551,3945.51
394638,3946.38
394725,3947.25
394808,3948.08
394890,3948.9
394971,3949.71
395050,3950.5
395127,3951.27
395202,3952.02
395276,3952.76
395350,3953.5
395424,3954.24
395498,3954.98
395573,3955.73
395647,3956.47
395722,3957.22
395797,3957.97
395873,3958.73
395950,3959.5
396029,3960.29
396105,3961.05
396182,3961.82
396261,3962.61
396339,3963.39
396415,3964.15
396495,3964.95
396577,3965.77
396657,3966.57
396737,3967.37
396816,3968.16
396893,3968.93
396971,3969.71
397054,3970.54
397133,3971.33
397215,3972.15
397298,3972.98
397378,3973.78
397459,3974.59
397535,3975.35
397611,3976.11
397686,3976.86
397760,3977.6
397834,3978.34
397906,3979.06
397976,3979.76
398047,3980.47
398118,3981.18
398189,3981.89
398260,3982.6
398332,3983.32
398404,3984.04
398479,3984.79
398555,3985.55
398631,3986.31
398707,3987.07
398786,3987.86
398864,3988.64
398943,3989.43
399023,3990.23
399111,3991.11
399198,3991.98
399287,3992.87
399375,3993.75
399464,3994.64
399551,3995.51
399637,3996.37
399719,3997.19
399802,3998.02
399884,3998.84
399965,3999.65
400046,4000.46
400124,4001.24
400201,4002.01
400277,4002.77
400353,4003.53
400429,4004.29
400505,4005.05
400581,4005.81
400656,4006.56
400733,4007.33
400812,4008.12
400891,4008.91
400968,4009.68
401047,4010.47
401126,4011.26
401203,4012.03
401282,4012.82
401363,4013.63
401443,4014.43
401523,4015.23
401604,4016.04
401682,4016.82
401760,4017.6
401839,4018.39
401918,4019.18
401995,4019.95
402075,4020.75
402156,4021.56
402235,4022.35
402310,4023.1
402385,4023.85
402457,4024.57
402528,4025.28
402599,4025.99
402669,4026.69
402739,4027.39
402810,4028.1
402881,4028.81
402951,4029.51
403022,4030.22
403092,4030.92
403163,4031.63
403234,4032.34
403306,4033.06
403378,4033.78
403455,4034.55
403530,4035.3
403604,4036.04
403679,4036.79
403755,4037.55
403834,4038.34
403912,4039.12
403991,4039.91
404073,4040.73
404156,4041.56
404237,4042.37
404321,4043.21
404407,4044.07
404492,4044.92
404577,4045.77
404661,4046.61
404742,4047.42
404822,4048.22
404901,4049.01
404979,4049.79
405057,4050.57
405137,4051.37
405214,4052.14
405290,4052.9
405366,4053.66
405443,4054.43
405519,4055.19
405598,4055.98
405682,4056.82
405764,4057.64
405844,4058.44
405925,4059.25
406008,4060.08
406090,4060.9
406170,4061.7
406248,4062.48
406328,4063.28
406408,4064.08
406487,4064.87
406568,4065.68
406646,4066.46
406725,4067.25
406806,4068.06
406888,4068.88
406966,4069.66
407048,4070.48
407125,4071.25
407201,4072.01
407275,4072.75
407348,4073.48
407418,4074.18
407487,4074.87
407556,4075.56
407625,4076.25
407693,4076.93
407763,4077.63
407832,4078.32
407903,4079.03
407974,4079.74
408047,4080.47
408122,4081.22
408198,4081.98
408276,4082.76
408355,4083.55
408436,4084.36
408519,4085.19
408599,4085.99
408686,4086.86
408776,4087.76
408864,4088.64
408950,4089.5
409036,4090.36
409122,4091.22
409204,4092.04
409287,4092.87
409371,4093.71
409454,4094.54
409536,4095.36
409616,4096.16
409695,4096.95
409774,4097.74
409850,4098.5
409926,4099.26
410012,4100.12
410094,4100.94
410178,4101.78
410264,4102.64
410344,4103.44
410424,4104.24
410507,4105.07
410587,4105.87
410668,4106.68
410752,4107.52
410840,4108.4
410922,4109.22
411004,4110.04
411087,4110.87
411166,4111.66
411250,4112.5
411337,4113.37
411421,4114.21
411500,4115.0
411583,4115.83
411660,4116.6
411735,4117.35
411809,4118.09
411881,4118.81
411953,4119.53
412024,4120.24
412094,4120.94
412164,4121.64
412234,4122.34
412304,4123.04
412374,4123.74
412444,4124.44
412516,4125.16
412589,4125.89
412664,4126.64
412740,4127.4
412818,4128.18
412898,4128.98
412975,4129.75
413054,4130.54
413134,4131.34
413213,4132.13
413290,4132.9
413372,4133.72
413457,4134.57
413545,4135.45
413629,4136.29
413715,4137.15
413804,4138.04
413890,4138.9
413974,4139.74
414059,4140.59
414143,4141.43
414229,4142.29
414311,4143.11
414391,4143.91
414472,4144.72
414551,4145.51
414630,4146.3
414712,4147.12
414792,4147.92
414870,4148.7
414950,4149.5
415034,4150.34
415118,4151.18
415197,4151.97
415276,4152.76
415356,4153.56
415434,4154.34
415512,4155.12
415593,4155.93
415675,4156.75
415755,4157.55
415835,4158.35
415914,4159.14
415991,4159.91
416070,4160.7
416146,4161.46
416221,4162.21
416294,4162.94
416367,4163.67
416439,4164.39
416512,4165.12
416583,4165.83
416655,4166.55
416727,4167.27
416799,4167.99
416873,4168.73
416948,4169.48
417023,4170.23
417098,4170.98
417174,4171.74
417250,4172.5
417326,4173.26
417400,4174.0
417475,4174.75
417551,4175.51
417629,4176.29
417706,4177.06
417786,4177.86
417867,4178.67
417950,4179.5
418033,4180.33
418117,4181.17
418199,4181.99
418281,4182.81
418362,4183.62
418443,4184.43
418522,4185.22
418601,4186.01
418678,4186.78
418753,4187.53
418827,4188.27
418903,4189.03
418979,4189.79
419055,4190.55
419133,4191.33
419212,4192.12
419293,4192.93
419372,4193.72
419453,4194.53
419535,4195.35
419615,4196.15
419696,4196.96
419779,4197.79
419860,4198.6
419939,4199.39
420021,4200.21
420098,4200.98
420176,4201.76
420258,4202.58
420340,4203.4
420417,4204.17
420493,4204.93
420564,4205.64
420635,4206.35
420705,4207.05
420774,4207.74
420844,4208.44
420913,4209.13
420984,4209.84
421055,4210.55
421126,4211.26
421197,4211.97
421269,4212.69
421341,4213.41
421414,4214.14
421489,4214.89
421564,4215.64
421643,4216.43
421723,4217.23
421807,4218.07
421888,4218.88
421972,4219.72
422059,4220.59
422148,4221.48
422235,4222.35
422332,4223.32
422424,4224.24
422512,4225.12
422602,4226.02
422689,4226.89
422771,4227.71
422853,4228.53
422934,4229.34
423013,4230.13
423091,4230.91
423170,4231.7
423248,4232.48
423325,4233.25
423402,4234.02
423480,4234.8
423560,4235.6
423637,4236.37
423718,4237.18
423798,4237.98
423880,4238.8
423961,4239.61
424045,4240.45
424126,4241.26
424208,4242.08
424293,4242.93
424374,4243.74
424455,4244.55
424534,4245.34
424612,4246.12
424693,4246.93
424769,4247.69
424850,4248.5
424932,4249.32
425011,4250.11
425090,4250.9
425165,4251.65
425240,4252.4
425313,4253.13
425385,4253.85
425457,4254.57
425529,4255.29
425600,4256.0
425672,4256.72
425743,4257.43
425814,4258.14
425886,4258.86
425958,4259.58
426031,4260.31
426103,4261.03
426177,4261.77
426251,4262.51
426326,4263.26
426401,4264.01
426476,4264.76
426552,4265.52
426628,4266.28
426706,4267.06
426783,4267.83
426861,4268.61
426942,4269.42
427026,4270.26
427106,4271.06
427190,4271.9
427281,4272.81
427376,4273.76
427466,4274.66
427550,4275.5
427631,4276.31
427710,4277.1
427787,4277.87
427864,4278.64
427941,4279.41
428016,4280.16
428090,4280.9
428164,4281.64
428238,4282.38
428312,4283.12
428390,4283.9
428464,4284.64
428541,4285.41
428618,4286.18
428696,4286.96
428773,4287.73
428853,4288.53
428933,4289.33
429011,4290.11
429092,4290.92
429170,4291.7
429249,4292.49
429333,4293.33
429411,4294.11
429490,4294.9
429566,4295.66
429639,4296.39
429712,4297.12
429786,4297.86
429850,4298.5
429918,4299.18
429986,4299.86
430052,4300.52
430116,4301.16
430181,4301.81
430244,4302.44
430306,4303.06
430368,4303.68
430429,4304.29
430491,4304.91
430552,4305.52
430613,4306.13
430674,4306.74
430737,4307.37
430809,4308.09
430882,4308.82
430959,4309.59
431038,4310.38
431123,4311.23
431212,4312.12
431303,4313.03
431394,4313.94
431487,4314.87
431583,4315.83
431676,4316.76
431770,4317.7
431863,4318.63
431954,4319.54
432046,4320.46
432136,4321.36
432224,4322.24
432311,4323.11
432397,4323.97
432482,4324.82
432566,4325.66
432649,4326.49
432731,4327.31
432812,4328.12
432893,4328.93
432973,4329.73
433050,4330.5
433129,4331.29
433206,4332.06
433281,4332.81
433354,4333.54
433427,4334.27
433501,4335.01
433574,4335.74
433648,4336.48
433720,4337.2
433793,4337.93
433865,4338.65
433936,4339.36
434007,4340.07
434078,4340.78
434150,4341.5
434223,4342.23
434299,4342.99
434376,4343.76
434453,4344.53
434535,4345.35
434619,4346.19
434705,4347.05
434789,4347.89
434874,4348.74
434958,4349.58
435039,4350.39
435120,4351.2
435201,4352.01
435283,4352.83
435363,4353.63
435442,4354.42
435520,4355.2
435596,4355.96
435671,4356.71
435746,4357.46
435820,4358.2
435895,4358.95
435973,4359.73
436051,4360.51
436127,4361.27
436203,4362.03
436281,4362.81
436359,4363.59
436436,4364.36
436517,4365.17
436598,4365.98
436676,4366.76
436758,4367.58
436836,4368.36
436912,4369.12
436987,4369.87
437062,4370.62
437135,4371.35
437208,4372.08
437281,4372.81
437353,4373.53
437427,4374.27
437500,4375.0
437573,4375.73
437647,4376.47
437721,4377.21
437794,4377.94
437867,4378.67
437940,4379.4
438012,4380.12
438084,4380.84
438157,4381.57
438230,4382.3
438303,4383.03
438377,4383.77
438452,4384.52
438528,4385.28
438604,4386.04
438681,4386.81
438758,4387.58
438836,4388.36
438912,4389.12
438986,4389.86
439059,4390.59
439131,4391.31
439202,4392.02
439271,4392.71
439339,4393.39
439406,4394.06
439473,4394.73
439538,4395.38
439603,4396.03
439668,4396.68
439732,4397.32
439796,4397.96
439861,4398.61
439926,4399.26
439992,4399.92
440058,4400.58
440126,4401.26
440194,4401.94
440264,4402.64
440332,4403.32
440402,4404.02
440471,4404.71
440540,4405.4
440608,4406.08
440677,4406.77
440744,4407.44
440812,4408.12
440879,4408.79
440946,4409.46
441014,4410.14
441082,4410.82
441152,4411.52
441225,4412.25
441300,4413.0
441377,4413.77
441456,4414.56
441536,4415.36
441616,4416.16
441696,4416.96
441775,4417.75
441852,4418.52
441927,4419.27
442002,4420.02
442074,4420.74
442145,4421.45
442215,4422.15
442285,4422.85
442355,4423.55
442425,4424.25
442495,4424.95
442564,4425.64
442634,4426.34
442703,4427.03
442774,4427.74
442844,4428.44
442916,4429.16
442988,4429.88
443061,4430.61
443134,4431.34
443207,4432.07
443280,4432.8
443353,4433.53
443428,4434.28
443504,4435.04
443580,4435.8
443657,4436.57
443733,4437.33
443809,4438.09
443886,4438.86
443962,4439.62
444037,4440.37
444110,4441.1
444185,4441.85
444258,4442.58
444332,4443.32
444404,4444.04
444477,4444.77
444550,4445.5
444622,4446.22
444694,4446.94
444765,4447.65
444837,4448.37
444907,4449.07
444976,4449.76
445046,4450.46
445115,4451.15
445186,4451.86
445258,4452.58
445330,4453.3
445405,4454.05
445479,4454.79
445553,4455.53
445627,4456.27
445701,4457.01
445774,4457.74
445844,4458.44
445915,4459.15
445987,4459.87
446058,4460.58
446129,4461.29
446200,4462.0
446271,4462.71
446343,4463.43
446415,4464.15
446488,4464.88
446561,4465.61
446636,4466.36
446710,4467.1
446785,4467.85
446861,4468.61
446938,4469.38
447016,4470.16
447093,4470.93
447171,4471.71
447248,4472.48
447327,4473.27
447404,4474.04
447483,4474.83
447563,4475.63
447641,4476.41
447721,4477.21
447799,4477.99
447877,4478.77
447954,4479.54
448031,4480.31
448107,4481.07
448184,4481.84
448261,4482.61
448340,4483.4
448418,4484.18
448498,4484.98
448577,4485.77
448657,4486.57
448735,4487.35
448813,4488.13
448889,4488.89
448963,4489.63
449037,4490.37
449110,4491.1
449182,4491.82
449253,4492.53
449325,4493.25
449398,4493.98
449473,4494.73
449547,4495.47
449623,4496.23
449699,4496.99
449774,4497.74
449847,4498.47
449920,4499.2
449990,4499.9
450061,4500.61
450132,4501.32
450206,4502.06
450283,4502.83
450360,4503.6
450438,4504.38
450517,4505.17
450598,4505.98
450678,4506.78
450758,4507.58
450839,4508.39
450920,4509.2
451001,4510.01
451082,4510.82
451161,4511.61
451242,4512.42
451323,4513.23
451402,4514.02
451482,4514.82
451566,4515.66
451648,4516.48
451736,4517.36
451826,4518.26
451914,4519.14
452003,4520.03
452091,4520.91
452178,4521.78
452265,4522.65
452350,4523.5
452434,4524.34
452517,4525.17
452595,4525.95
452671,4526.71
452746,4527.46
452819,4528.19
452893,4528.93
452967,4529.67
453039,4530.39
453112,4531.12
453188,4531.88
453261,4532.61
453339,4533.39
453419,4534.19
453494,4534.94
453567,4535.67
453639,4536.39
453712,4537.12
453785,4537.85
453858,4538.58
453931,4539.31
454004,4540.04
454077,4540.77
454150,4541.5
454224,4542.24
454298,4542.98
454375,4543.75
454452,4544.52
454530,4545.3
454609,4546.09
454689,4546.89
454770,4547.7
454850,4548.5
454932,4549.32
455014,4550.14
455095,4550.95
455177,4551.77
455260,4552.6
455339,4553.39
455420,4554.2
455500,4555.0
455580,4555.8
455662,4556.62
455744,4557.44
455829,4558.29
455913,4559.13
455997,4559.97
456080,4560.8
456165,4561.65
456247,4562.47
456326,4563.26
456404,4564.04
456482,4564.82
456558,4565.58
456633,4566.33
456708,4567.08
456783,4567.83
456856,4568.56
456931,4569.31
457005,4570.05
457079,4570.79
457156,4571.56
457231,4572.31
457307,4573.07
457385,4573.85
457462,4574.62
457538,4575.38
457614,4576.14
457692,4576.92
457767,4577.67
457842,4578.42
457919,4579.19
457993,4579.93
458068,4580.68
458142,4581.42
458213,4582.13
458283,4582.83
458353,4583.53
458423,4584.23
458493,4584.93
458564,4585.64
458635,4586.35
458706,4587.06
458778,4587.78
458851,4588.51
458924,4589.24
458997,4589.97
459071,4590.71
459145,4591.45
459221,4592.21
459299,4592.99
459376,4593.76
459452,4594.52
459530,4595.3
459608,4596.08
459684,4596.84
459763,4597.63
459843,4598.43
459921,4599.21
460006,4600.06
460093,4600.93
460178,4601.78
460261,4602.61
460342,4603.42
460422,4604.22
460501,4605.01
460579,4605.79
460655,4606.55
460731,4607.31
460806,4608.06
460879,4608.79
460954,4609.54
461028,4610.28
461101,4611.01
461174,4611.74
461248,4612.48
461322,4613.22
461397,4613.97
461470,4614.7
461546,4615.46
461622,4616.22
461696,4616.96
461771,4617.71
461849,4618.49
461926,4619.26
462003,4620.03
462086,4620.86
462167,4621.67
462250,4622.5
462331,4623.31
462412,4624.12
462488,4624.88
462565,4625.65
462639,4626.39
462712,4627.12
462785,4627.85
462857,4628.57
462928,4629.28
462998,4629.98
463069,4630.69
463138,4631.38
463207,4632.07
463277,4632.77
463346,4633.46
463417,4634.17
463488,4634.88
463560,4635.6
463633,4636.33
463708,4637.08
463784,4637.84
463861,4638.61
463939,4639.39
464019,4640.19
464098,4640.98
464178,4641.78
464256,4642.56
464334,4643.34
464410,4644.1
464485,4644.85
464560,4645.6
464633,4646.33
464707,4647.07
464780,4647.8
464852,4648.52
464924,4649.24
464998,4649.98
465072,4650.72
465145,4651.45
465219,4652.19
465293,4652.93
465369,4653.69
465445,4654.45
465521,4655.21
465596,4655.96
465670,4656.7
465745,4657.45
465821,4658.21
465899,4658.99
465975,4659.75
466052,4660.52
466129,4661.29
466205,4662.05
466281,4662.81
466359,4663.59
466434,4664.34
466509,4665.09
466586,4665.86
466661,4666.61
466737,4667.37
466816,4668.16
466895,4668.95
466972,4669.72
467051,4670.51
467127,4671.27
467204,4672.04
467282,4672.82
467360,4673.6
467436,4674.36
467510,4675.1
467580,4675.8
467650,4676.5
467720,4677.2
467790,4677.9
467859,4678.59
467929,4679.29
467999,4679.99
468068,4680.68
468138,4681.38
468208,4682.08
468279,4682.79
468350,4683.5
468421,4684.21
468494,4684.94
468566,4685.66
468641,4686.41
468718,4687.18
468793,4687.93
468870,4688.7
468947,4689.47
469026,4690.26
469103,4691.03
469180,4691.8
469257,4692.57
469336,4693.36
469414,4694.14
469495,4694.95
469577,4695.77
469663,4696.63
469747,4697.47
469831,4698.31
469913,4699.13
469995,4699.95
470076,4700.76
470155,4701.55
470233,4702.33
470310,4703.1
470384,4703.84
470458,4704.58
470530,4705.3
470603,4706.03
470677,4706.77
470753,4707.53
470828,4708.28
470904,4709.04
470983,4709.83
471061,4710.61
471139,4711.39
471218,4712.18
471296,4712.96
471374,4713.74
471451,4714.51
471530,4715.3
471604,4716.04
471681,4716.81
471755,4717.55
471829,4718.29
471902,4719.02
471973,4719.73
472044,4720.44
472114,4721.14
472183,4721.83
472252,4722.52
472321,4723.21
472391,4723.91
472460,4724.6
472531,4725.31
472602,4726.02
472675,4726.75
472750,4727.5
472827,4728.27
472904,4729.04
472986,4729.86
473068,4730.68
473148,4731.48
473233,4732.33
473318,4733.18
473401,4734.01
473486,4734.86
473569,4735.69
473651,4736.51
473733,4737.33
473818,4738.18
473901,4739.01
473981,4739.81
474061,4740.61
474141,4741.41
474219,4742.19
474297,4742.97
474373,4743.73
474449,4744.49
474526,4745.26
474602,4746.02
474678,4746.78
474756,4747.56
474836,4748.36
474916,4749.16
474995,4749.95
475075,4750.75
475153,4751.53
475230,4752.3
475309,4753.09
475387,4753.87
475463,4754.63
475541,4755.41
475621,4756.21
475697,4756.97
475774,4757.74
475853,4758.53
475930,4759.3
476009,4760.09
476088,4760.88
476163,4761.63
476237,4762.37
476309,4763.09
476380,4763.8
476450,4764.5
476520,4765.2
476590,4765.9
476660,4766.6
476729,4767.29
476799,4767.99
476869,4768.69
476940,4769.4
477009,4770.09
477081,4770.81
477152,4771.52
477224,4772.24
477296,4772.96
477368,4773.68
477441,4774.41
477514,4775.14
477589,4775.89
477664,4776.64
477740,4777.4
477816,4778.16
477893,4778.93
477971,4779.71
478049,4780.49
478127,4781.27
478207,4782.07
478285,4782.85
478364,4783.64
478444,4784.44
478524,4785.24
478603,4786.03
478682,4786.82
478761,4787.61
478839,4788.39
478917,4789.17
478996,4789.96
479073,4790.73
479150,4791.5
479226,4792.26
479302,4793.02
479377,4793.77
479452,4794.52
479527,4795.27
479603,4796.03
479677,4796.77
479751,4797.51
479828,4798.28
479904,4799.04
479979,4799.79
480058,4800.58
480137,4801.37
480217,4802.17
480295,4802.95
480377,4803.77
480455,4804.55
480534,4805.34
480613,4806.13
480688,4806.88
480766,4807.66
480845,4808.45
480920,4809.2
480994,4809.94
481068,4810.68
481141,4811.41
481214,4812.14
481286,4812.86
481358,4813.58
481430,4814.3
481502,4815.02
481574,4815.74
481645,4816.45
481716,4817.16
481788,4817.88
481862,4818.62
481934,4819.34
482008,4820.08
482082,4820.82
482157,4821.57
482233,4822.33
482311,4823.11
482391,4823.91
482472,4824.72
482550,4825.5
482632,4826.32
482714,4827.14
482799,4827.99
482880,4828.8
482964,4829.64
483050,4830.5
483135,4831.35
483218,4832.18
483302,4833.02
483384,4833.84
483467,4834.67
483549,4835.49
483628,4836.28
483706,4837.06
483784,4837.84
483862,4838.62
483937,4839.37
484012,4840.12
484088,4840.88
484164,4841.64
484240,4842.4
484316,4843.16
484395,4843.95
484474,4844.74
484553,4845.53
484631,4846.31
484712,4847.12
484791,4847.91
484867,4848.67
484947,4849.47
485023,4850.23
485103,4851.03
485187,4851.87
485265,4852.65
485348,4853.48
485436,4854.36
485515,4855.15
485593,4855.93
485668,4856.68
485742,4857.42
485814,4858.14
485884,4858.84
485955,4859.55
486024,4860.24
486093,4860.93
486162,4861.62
486231,4862.31
486301,4863.01
486371,4863.71
486441,4864.41
486514,4865.14
486586,4865.86
486660,4866.6
486734,4867.34
486811,4868.11
486886,4868.86
486961,4869.61
487039,4870.39
487117,4871.17
487192,4871.92
487268,4872.68
487345,4873.45
487421,4874.21
487497,4874.97
487575,4875.75
487655,4876.55
487736,4877.36
487815,4878.15
487892,4878.92
487968,4879.68
488045,4880.45
488122,4881.22
488197,4881.97
488272,4882.72
488347,4883.47
488422,4884.22
488495,4884.95
488570,4885.7
488645,4886.45
488720,4887.2
488794,4887.94
488869,4888.69
488947,4889.47
489025,4890.25
489101,4891.01
489178,4891.78
489256,4892.56
489333,4893.33
489411,4894.11
489492,4894.92
489574,4895.74
489654,4896.54
489736,4897.36
489812,4898.12
489889,4898.89
489965,4899.65
490042,4900.42
490113,4901.13
490183,4901.83
490252,4902.52
490322,4903.22
490391,4903.91
490459,4904.59
490528,4905.28
490598,4905.98
490667,4906.67
490738,4907.38
490810,4908.1
490881,4908.81
490953,4909.53
491025,4910.25
491098,4910.98
491172,4911.72
491245,4912.45
491319,4913.19
491395,4913.95
491469,4914.69
491542,4915.42
491617,4916.17
491690,4916.9
491766,4917.66
491842,4918.42
491921,4919.21
491999,4919.99
492078,4920.78
492158,4921.58
492237,4922.37
492318,4923.18
492399,4923.99
492482,4924.82
492562,4925.62
492640,4926.4
492718,4927.18
492797,4927.97
492874,4928.74
492949,4929.49
493023,4930.23
493100,4931.0
493178,4931.78
493257,4932.57
493337,4933.37
493416,4934.16
493493,4934.93
493570,4935.7
493650,4936.5
493731,4937.31
493812,4938.12
493891,4938.91
493973,4939.73
494059,4940.59
494144,4941.44
494230,4942.3
494308,4943.08
494386,4943.86
494460,4944.6
494531,4945.31
494602,4946.02
494673,4946.73
494742,4947.42
494811,4948.11
494880,4948.8
494949,4949.49
495018,4950.18
495087,4950.87
495157,4951.57
495228,4952.28
495300,4953.0
495372,4953.72
495445,4954.45
495520,4955.2
495595,4955.95
495671,4956.71
495748,4957.48
495829,4958.29
495908,4959.08
495988,4959.88
496068,4960.68
496147,4961.47
496227,4962.27
496309,4963.09
496392,4963.92
496476,4964.76
496556,4965.56
496636,4966.36
496715,4967.15
496792,4967.92
496871,4968.71
496951,4969.51
497032,4970.32
497110,4971.1
497186,4971.86
497264,4972.64
497342,4973.42
497418,4974.18
497495,4974.95
497574,4975.74
497652,4976.52
497730,4977.3
497807,4978.07
497886,4978.86
497963,4979.63
498039,4980.39
498119,4981.19
498200,4982.0
498279,4982.79
498360,4983.6
498435,4984.35
498511,4985.11
498588,4985.88
498666,4986.66
498742,4987.42
498820,4988.2
498894,4988.94
498967,4989.67
499032,4990.32
499097,4990.97
499167,4991.67
499240,4992.4
499313,4993.13
499382,4993.82
499451,4994.51
499520,4995.2
499589,4995.89
499659,4996.59
499728,4997.28
499798,4997.98
499868,4998.68
499939,4999.39
500009,5000.09
500081,5000.81
500152,5001.52
500224,5002.24
500296,5002.96
500368,5003.68
500441,5004.41
500515,5005.15
500587,5005.87
500661,5006.61
500732,5007.32
500804,5008.04
500875,5008.75
500945,5009.45
501013,5010.13
501082,5010.82
501152,5011.52
501221,5012.21
501289,5012.89
501358,5013.58
501426,5014.26
501494,5014.94
501562,5015.62
501629,5016.29
501696,5016.96
501763,5017.63
501830,5018.3
501895,5018.95
501961,5019.61
502027,5020.27
502093,5020.93
502158,5021.58
502224,5022.24
502289,5022.89
502355,5023.55
502422,5024.22
502490,5024.9
502560,5025.6
502631,5026.31
502706,5027.06
502788,5027.88
502872,5028.72
502954,5029.54
503042,5030.42
503130,5031.3
503214,5032.14
503298,5032.98
503384,5033.84
503467,5034.67
503548,5035.48
503627,5036.27
503704,5037.04
503782,5037.82
503857,5038.57
503933,5039.33
504008,5040.08
504084,5040.84
504158,5041.58
504234,5042.34
504309,5043.09
504386,5043.86
504460,5044.6
504535,5045.35
504612,5046.12
504690,5046.9
504766,5047.66
504845,5048.45
504924,5049.24
505004,5050.04
505086,5050.86
505164,5051.64
505241,5052.41
505319,5053.19
505391,5053.91
505462,5054.62
505533,5055.33
505604,5056.04
505673,5056.73
505742,5057.42
505811,5058.11
505880,5058.8
505949,5059.49
506019,5060.19
506090,5060.9
506157,5061.57
506225,5062.25
506294,5062.94
506363,5063.63
506432,5064.32
506502,5065.02
506572,5065.72
506642,5066.42
506712,5067.12
506783,5067.83
506854,5068.54
506926,5069.26
507000,5070.0
507075,5070.75
507149,5071.49
507225,5072.25
507302,5073.02
507381,5073.81
507461,5074.61
507543,5075.43
507625,5076.25
507707,5077.07
507791,5077.91
507873,5078.73
507955,5079.55
508038,5080.38
508122,5081.22
508203,5082.03
508282,5082.82
508363,5083.63
508443,5084.43
508525,5085.25
508605,5086.05
508687,5086.87
508767,5087.67
508846,5088.46
508927,5089.27
509013,5090.13
509099,5090.99
509184,5091.84
509267,5092.67
509347,5093.47
509425,5094.25
509501,5095.01
509576,5095.76
509649,5096.49
509723,5097.23
509795,5097.95
509869,5098.69
509942,5099.42
510015,5100.15
510088,5100.88
510162,5101.62
510235,5102.35
510310,5103.1
510385,5103.85
510461,5104.61
510536,5105.36
510613,5106.13
510690,5106.9
510768,5107.68
510849,5108.49
510931,5109.31
511012,5110.12
511096,5110.96
511180,5111.8
511264,5112.64
511347,5113.47
511432,5114.32
511516,5115.16
511599,5115.99
511684,5116.84
511769,5117.69
511851,5118.51
511933,5119.33
512012,5120.12
512093,5120.93
512171,5121.71
512249,5122.49
512326,5123.26
512402,5124.02
512478,5124.78
512553,5125.53
512629,5126.29
512707,5127.07
512785,5127.85
512861,5128.61
512937,5129.37
513013,5130.13
513087,5130.87
513164,5131.64
513241,5132.41
513319,5133.19
513398,5133.98
513479,5134.79
513559,5135.59
513639,5136.39
513719,5137.19
513796,5137.96
513871,5138.71
513944,5139.44
514017,5140.17
514089,5140.89
514159,5141.59
514229,5142.29
514299,5142.99
514369,5143.69
514438,5144.38
514506,5145.06
514575,5145.75
514643,5146.43
514713,5147.13
514783,5147.83
514857,5148.57
514935,5149.35
515017,5150.17
515106,5151.06
515193,5151.93
515282,5152.82
515368,5153.68
515452,5154.52
515534,5155.34
515615,5156.15
515693,5156.93
515772,5157.72
515852,5158.52
515933,5159.33
516012,5160.12
516093,5160.93
516173,5161.73
516251,5162.51
516327,5163.27
516401,5164.01
516473,5164.73
516545,5165.45
516616,5166.16
516690,5166.9
516766,5167.66
516845,5168.45
516925,5169.25
517008,5170.08
517090,5170.9
517171,5171.71
517254,5172.54
517335,5173.35
517417,5174.17
517498,5174.98
517579,5175.79
517659,5176.59
517738,5177.38
517814,5178.14
517891,5178.91
517969,5179.69
518046,5180.46
518124,5181.24
518200,5182.0
518275,5182.75
518347,5183.47
518419,5184.19
518490,5184.9
518560,5185.6
518630,5186.3
518701,5187.01
518772,5187.72
518842,5188.42
518914,5189.14
518987,5189.87
519061,5190.61
519137,5191.37
519213,5192.13
519290,5192.9
519368,5193.68
519447,5194.47
519524,5195.24
519603,5196.03
519682,5196.82
519762,5197.62
519845,5198.45
519928,5199.28
520010,5200.1
520095,5200.95
520181,5201.81
520264,5202.64
520349,5203.49
520436,5204.36
520521,5205.21
520605,5206.05
520689,5206.89
520771,5207.71
520852,5208.52
520933,5209.33
521014,5210.14
521095,5210.95
521175,5211.75
521252,5212.52
521331,5213.31
521410,5214.1
521489,5214.89
521567,5215.67
521647,5216.47
521727,5217.27
521807,5218.07
521887,5218.87
521969,5219.69
522050,5220.5
522129,5221.29
522209,5222.09
522293,5222.93
522375,5223.75
522458,5224.58
522539,5225.39
522619,5226.19
522699,5226.99
522779,5227.79
522854,5228.54
522928,5229.28
523000,5230.0
523071,5230.71
523142,5231.42
523213,5232.13
523283,5232.83
523354,5233.54
523425,5234.25
523496,5234.96
523568,5235.68
523641,5236.41
523714,5237.14
523786,5237.86
523859,5238.59
523933,5239.33
524007,5240.07
524082,5240.82
524158,5241.58
524236,5242.36
524312,5243.12
524391,5243.91
524470,5244.7
524548,5245.48
524632,5246.32
524715,5247.15
524796,5247.96
524879,5248.79
524959,5249.59
525037,5250.37
525114,5251.14
525190,5251.9
525266,5252.66
525340,5253.4
525416,5254.16
525492,5254.92
525569,5255.69
525647,5256.47
525728,5257.28
525808,5258.08
525887,5258.87
525968,5259.68
526048,5260.48
526126,5261.26
526205,5262.05
526283,5262.83
526358,5263.58
526435,5264.35
526512,5265.12
526590,5265.9
526666,5266.66
526744,5267.44
526821,5268.21
526898,5268.98
526979,5269.79
527058,5270.58
527137,5271.37
527218,5272.18
527296,5272.96
527371,5273.71
527446,5274.46
527520,5275.2
527592,5275.92
527665,5276.65
527737,5277.37
527809,5278.09
527880,5278.8
527950,5279.5
528020,5280.2
528090,5280.9
528160,5281.6
528231,5282.31
528305,5283.05
528382,5283.82
528460,5284.6
528545,5285.45
528630,5286.3
528713,5287.13
528797,5287.97
528883,5288.83
528968,5289.68
529052,5290.52
529138,5291.38
529224,5292.24
529309,5293.09
529397,5293.97
529485,5294.85
529573,5295.73
529656,5296.56
529741,5297.41
529826,5298.26
529906,5299.06
529988,5299.88
530070,5300.7
530148,5301.48
530228,5302.28
530308,5303.08
530386,5303.86
530464,5304.64
530543,5305.43
530622,5306.22
530700,5307.0
530779,5307.79
530858,5308.58
530937,5309.37
531016,5310.16
531097,5310.97
531177,5311.77
531255,5312.55
531332,5313.32
531406,5314.06
531479,5314.79
531552,5315.52
531626,5316.26
531698,5316.98
531770,5317.7
531843,5318.43
531915,5319.15
531987,5319.87
532060,5320.6
532133,5321.33
532207,5322.07
532281,5322.81
532356,5323.56
532435,5324.35
532514,5325.14
532595,5325.95
532676,5326.76
532760,5327.6
532844,5328.44
532928,5329.28
533010,5330.1
533091,5330.91
533171,5331.71
533248,5332.48
533324,5333.24
533401,5334.01
533478,5334.78
533554,5335.54
533630,5336.3
533708,5337.08
533787,5337.87
533869,5338.69
533951,5339.51
534031,5340.31
534114,5341.14
534199,5341.99
534285,5342.85
534368,5343.68
534451,5344.51
534534,5345.34
534615,5346.15
534695,5346.95
534775,5347.75
534853,5348.53
534933,5349.33
535015,5350.15
535095,5350.95
535179,5351.79
535264,5352.64
535344,5353.44
535422,5354.22
535498,5354.98
535572,5355.72
535645,5356.45
535717,5357.17
535788,5357.88
535860,5358.6
535931,5359.31
536002,5360.02
536074,5360.74
536147,5361.47
536219,5362.19
536293,5362.93
536368,5363.68
536442,5364.42
536518,5365.18
536593,5365.93
536669,5366.69
536743,5367.43
536820,5368.2
536898,5368.98
536980,5369.8
537060,5370.6
537148,5371.48
537236,5372.36
537323,5373.23
537411,5374.11
537496,5374.96
537581,5375.81
537666,5376.66
537750,5377.5
537833,5378.33
537917,5379.17
537996,5379.96
538075,5380.75
538153,5381.53
538230,5382.3
538307,5383.07
538385,5383.85
538462,5384.62
538537,5385.37
538615,5386.15
538694,5386.94
538773,5387.73
538853,5388.53
538937,5389.37
539021,5390.21
539101,5391.01
539183,5391.83
539266,5392.66
539346,5393.46
539425,5394.25
539506,5395.06
539583,5395.83
539661,5396.61
539742,5397.42
539824,5398.24
539904,5399.04
539981,5399.81
540056,5400.56
540129,5401.29
540202,5402.02
540274,5402.74
540347,5403.47
540419,5404.19
540492,5404.92
540565,5405.65
540638,5406.38
540711,5407.11
540785,5407.85
540859,5408.59
540932,5409.32
541007,5410.07
541082,5410.82
541159,5411.59
541235,5412.35
541313,5413.13
541395,5413.95
541477,5414.77
541561,5415.61
541647,5416.47
541732,5417.32
541816,5418.16
541900,5419.0
541985,5419.85
542067,5420.67
542146,5421.46
542227,5422.27
542307,5423.07
542387,5423.87
542465,5424.65
542543,5425.43
542620,5426.2
542698,5426.98
542776,5427.76
542855,5428.55
542935,5429.35
543016,5430.16
543098,5430.98
543179,5431.79
543258,5432.58
543340,5433.4
543424,5434.24
543506,5435.06
543589,5435.89
543672,5436.72
543754,5437.54
543833,5438.33
543913,5439.13
543993,5439.93
544071,5440.71
544151,5441.51
544231,5442.31
544311,5443.11
544393,5443.93
544470,5444.7
544551,5445.51
544633,5446.33
544711,5447.11
544786,5447.86
544860,5448.6
544934,5449.34
545007,5450.07
545081,5450.81
545154,5451.54
545226,5452.26
545300,5453.0
545372,5453.72
545445,5454.45
545517,5455.17
545588,5455.88
545659,5456.59
545731,5457.31
545802,5458.02
545874,5458.74
545947,5459.47
546019,5460.19
546092,5460.92
546165,5461.65
546239,5462.39
546313,5463.13
546388,5463.88
546463,5464.63
546538,5465.38
546613,5466.13
546689,5466.89
546765,5467.65
546843,5468.43
546921,5469.21
546999,5469.99
547077,5470.77
547156,5471.56
547234,5472.34
547312,5473.12
547389,5473.89
547465,5474.65
547541,5475.41
547617,5476.17
547692,5476.92
547767,5477.67
547841,5478.41
547916,5479.16
547990,5479.9
548064,5480.64
548138,5481.38
548213,5482.13
548289,5482.89
548363,5483.63
548439,5484.39
548516,5485.16
548594,5485.94
548670,5486.7
548749,5487.49
548829,5488.29
548907,5489.07
548985,5489.85
549065,5490.65
549144,5491.44
549222,5492.22
549300,5493.0
549381,5493.81
549460,5494.6
549537,5495.37
549611,5496.11
549684,5496.84
549756,5497.56
549827,5498.27
549898,5498.98
549969,5499.69
550040,5500.4
550110,5501.1
550182,5501.82
550254,5502.54
550327,5503.27
550401,5504.01
550475,5504.75
550549,5505.49
550625,5506.25
550702,5507.02
550778,5507.78
550855,5508.55
550932,5509.32
551010,5510.1
551088,5510.88
551169,5511.69
551249,5512.49
551328,5513.28
551408,5514.08
551490,5514.9
551572,5515.72
551652,5516.52
551730,5517.3
551808,5518.08
551886,5518.86
551963,5519.63
552039,5520.39
552115,5521.15
552191,5521.91
552269,5522.69
552345,5523.45
552421,5524.21
552498,5524.98
552573,5525.73
552651,5526.51
552729,5527.29
552805,5528.05
552883,5528.83
552963,5529.63
553046,5530.46
553126,5531.26
553206,5532.06
553286,5532.86
553362,5533.62
553438,5534.38
553513,5535.13
553587,5535.87
553660,5536.6
553734,5537.34
553807,5538.07
553881,5538.81
553954,5539.54
554027,5540.27
554100,5541.0
554174,5541.74
554248,5542.48
554321,5543.21
554395,5543.95
554469,5544.69
554543,5545.43
554618,5546.18
554693,5546.93
554769,5547.69
554845,5548.45
554925,5549.25
555003,5550.03
555085,5550.85
555167,5551.67
555246,5552.46
555327,5553.27
555407,5554.07
555488,5554.88
555567,5555.67
555646,5556.46
555726,5557.26
555808,5558.08
555889,5558.89
555968,5559.68
556048,5560.48
556127,5561.27
556204,5562.04
556282,5562.82
556361,5563.61
556437,5564.37
556515,5565.15
556593,5565.93
556669,5566.69
556746,5567.46
556827,5568.27
556908,5569.08
556988,5569.88
557070,5570.7
557153,5571.53
557234,5572.34
557317,5573.17
557398,5573.98
557479,5574.79
557562,5575.62
557645,5576.45
557729,5577.29
557815,5578.15
557902,5579.02
557985,5579.85
558067,5580.67
558151,5581.51
558233,5582.33
558311,5583.11
558387,5583.87
558463,5584.63
558537,5585.37
558610,5586.1
558682,5586.82
558753,5587.53
558822,5588.22
558892,5588.92
558963,5589.63
559033,5590.33
559104,5591.04
559176,5591.76
559248,5592.48
559320,5593.2
559394,5593.94
559468,5594.68
559542,5595.42
559618,5596.18
559694,5596.94
559770,5597.7
559846,5598.46
559923,5599.23
560003,5600.03
560081,5600.81
560161,5601.61
560242,5602.42
560321,5603.21
560402,5604.02
560480,5604.8
560558,5605.58
560634,5606.34
560709,5607.09
560783,5607.83
560857,5608.57
560930,5609.3
561004,5610.04
561078,5610.78
561154,5611.54
561229,5612.29
561305,5613.05
561380,5613.8
561454,5614.54
561530,5615.3
561608,5616.08
561685,5616.85
561762,5617.62
561843,5618.43
561924,5619.24
562004,5620.04
562086,5620.86
562169,5621.69
562249,5622.49
562331,5623.31
562415,5624.15
562499,5624.99
562579,5625.79
562662,5626.62
562740,5627.4
562821,5628.21
562902,5629.02
562984,5629.84
563062,5630.62
563138,5631.38
563214,5632.14
563283,5632.83
563353,5633.53
563424,5634.24
563494,5634.94
563565,5635.65
563636,5636.36
563707,5637.07
563778,5637.78
563850,5638.5
563921,5639.21
563993,5639.93
564067,5640.67
564140,5641.4
564214,5642.14
564291,5642.91
564368,5643.68
564446,5644.46
564524,5645.24
564603,5646.03
564683,5646.83
564761,5647.61
564843,5648.43
564925,5649.25
565008,5650.08
565091,5650.91
565176,5651.76
565261,5652.61
565345,5653.45
565430,5654.3
565514,5655.14
565596,5655.96
565677,5656.77
565758,5657.58
565838,5658.38
565916,5659.16
565995,5659.95
566076,5660.76
566157,5661.57
566235,5662.35
566316,5663.16
566397,5663.97
566478,5664.78
566557,5665.57
566637,5666.37
566718,5667.18
566797,5667.97
566875,5668.75
566955,5669.55
567034,5670.34
567113,5671.13
567194,5671.94
567273,5672.73
567352,5673.52
567435,5674.35
567519,5675.19
567598,5675.98
567675,5676.75
567750,5677.5
567825,5678.25
567900,5679.0
567973,5679.73
568047,5680.47
568120,5681.2
568193,5681.93
568267,5682.67
568340,5683.4
568413,5684.13
568488,5684.88
568562,5685.62
568637,5686.37
568714,5687.14
568791,5687.91
568869,5688.69
568946,5689.46
569024,5690.24
569100,5691.0
569179,5691.79
569257,5692.57
569337,5693.37
569417,5694.17
569497,5694.97
569580,5695.8
569663,5696.63
569745,5697.45
569828,5698.28
569911,5699.11
569995,5699.95
570078,5700.78
570161,5701.61
570242,5702.42
570323,5703.23
570402,5704.02
570482,5704.82
570561,5705.61
570639,5706.39
570719,5707.19
570799,5707.99
570878,5708.78
570957,5709.57
571035,5710.35
571115,5711.15
571197,5711.97
571276,5712.76
571360,5713.6
571445,5714.45
571528,5715.28
571613,5716.13
571695,5716.95
571776,5717.76
571855,5718.55
571938,5719.38
572021,5720.21
572100,5721.0
572180,5721.8
572256,5722.56
572330,5723.3
572404,5724.04
572476,5724.76
572547,5725.47
572618,5726.18
572689,5726.89
572760,5727.6
572830,5728.3
572902,5729.02
572973,5729.73
573045,5730.45
573116,5731.16
573188,5731.88
573261,5732.61
573334,5733.34
573408,5734.08
573483,5734.83
573559,5735.59
573638,5736.38
573716,5737.16
573794,5737.94
573875,5738.75
573956,5739.56
574038,5740.38
574118,5741.18
574201,5742.01
574284,5742.84
574364,5743.64
574445,5744.45
574527,5745.27
574608,5746.08
574687,5746.87
574767,5747.67
574845,5748.45
574922,5749.22
575000,5750.0
575077,5750.77
575154,5751.54
575232,5752.32
575310,5753.1
575387,5753.87
575467,5754.67
575547,5755.47
575625,5756.25
575704,5757.04
575787,5757.87
575870,5758.7
575950,5759.5
576031,5760.31
576112,5761.12
576191,5761.91
576275,5762.75
576360,5763.6
576443,5764.43
576523,5765.23
576600,5766.0
576676,5766.76
576751,5767.51
576825,5768.25
576900,5769.0
576973,5769.73
577046,5770.46
577119,5771.19
577191,5771.91
577263,5772.63
577336,5773.36
577411,5774.11
577486,5774.86
577563,5775.63
577639,5776.39
577717,5777.17
577797,5777.97
577877,5778.77
577957,5779.57
578041,5780.41
578126,5781.26
578210,5782.1
578295,5782.95
578382,5783.82
578469,5784.69
578552,5785.52
578632,5786.32
578712,5787.12
578791,5787.91
578870,5788.7
578948,5789.48
579024,5790.24
579101,5791.01
579178,5791.78
579256,5792.56
579333,5793.33
579411,5794.11
579490,5794.9
579570,5795.7
579648,5796.48
579728,5797.28
579809,5798.09
579889,5798.89
579968,5799.68
580049,5800.49
580131,5801.31
580211,5802.11
580293,5802.93
580375,5803.75
580455,5804.55
580536,5805.36
580619,5806.19
580697,5806.97
580774,5807.74
580849,5808.49
580922,5809.22
580993,5809.93
581064,5810.64
581136,5811.36
581205,5812.05
581275,5812.75
581346,5813.46
581416,5814.16
581487,5814.87
581558,5815.58
581631,5816.31
581706,5817.06
581781,5817.81
581859,5818.59
581938,5819.38
582019,5820.19
582100,5821.0
582180,5821.8
582261,5822.61
582342,5823.42
582422,5824.22
582500,5825.0
582578,5825.78
582656,5826.56
582732,5827.32
582810,5828.1
582886,5828.86
582963,5829.63
583038,5830.38
583114,5831.14
583193,5831.93
583272,5832.72
583351,5833.51
583432,5834.32
583514,5835.14
583596,5835.96
583677,5836.77
583760,5837.6
583844,5838.44
583925,5839.25
584006,5840.06
584087,5840.87
584167,5841.67
584246,5842.46
584327,5843.27
584409,5844.09
584489,5844.89
584570,5845.7
584652,5846.52
584734,5847.34
584816,5848.16
584898,5848.98
584978,5849.78
585058,5850.58
585136,5851.36
585212,5852.12
585287,5852.87
585361,5853.61
585434,5854.34
585507,5855.07
585580,5855.8
585652,5856.52
585725,5857.25
585797,5857.97
585870,5858.7
585944,5859.44
586018,5860.18
586094,5860.94
586170,5861.7
586245,5862.45
586321,5863.21
586397,5863.97
586475,5864.75
586551,5865.51
586627,5866.27
586702,5867.02
586779,5867.79
586856,5868.56
586934,5869.34
587014,5870.14
587097,5870.97
587183,5871.83
587267,5872.67
587354,5873.54
587441,5874.41
587524,5875.24
587606,5876.06
587688,5876.88
587767,5877.67
587846,5878.46
587924,5879.24
588001,5880.01
588076,5880.76
588153,5881.53
588228,5882.28
588303,5883.03
588377,5883.77
588452,5884.52
588528,5885.28
588603,5886.03
588679,5886.79
588758,5887.58
588839,5888.39
588922,5889.22
589004,5890.04
589087,5890.87
589169,5891.69
589252,5892.52
589336,5893.36
589421,5894.21
589502,5895.02
589581,5895.81
589662,5896.62
589741,5897.41
589820,5898.2
589895,5898.95
589971,5899.71
590044,5900.44
590115,5901.15
590187,5901.87
590259,5902.59
590331,5903.31
590403,5904.03
590476,5904.76
590549,5905.49
590624,5906.24
590697,5906.97
590774,5907.74
590851,5908.51
590930,5909.3
591010,5910.1
591089,5910.89
591169,5911.69
591249,5912.49
591332,5913.32
591414,5914.14
591496,5914.96
591580,5915.8
591664,5916.64
591746,5917.46
591831,5918.31
591915,5919.15
591998,5919.98
592078,5920.78
592159,5921.59
592239,5922.39
592318,5923.18
592397,5923.97
592476,5924.76
592555,5925.55
592634,5926.34
592711,5927.11
592789,5927.89
592867,5928.67
592946,5929.46
593023,5930.23
593104,5931.04
593185,5931.85
593265,5932.65
593347,5933.47
593429,5934.29
593509,5935.09
593587,5935.87
593667,5936.67
593747,5937.47
593825,5938.25
593904,5939.04
593985,5939.85
594065,5940.65
594145,5941.45
594228,5942.28
594305,5943.05
594382,5943.82
594458,5944.58
594533,5945.33
594606,5946.06
594681,5946.81
594755,5947.55
594829,5948.29
594903,5949.03
594977,5949.77
595051,5950.51
595125,5951.25
595199,5951.99
595273,5952.73
595348,5953.48
595424,5954.24
595500,5955.0
595576,5955.76
595652,5956.52
595728,5957.28
595805,5958.05
595882,5958.82
595959,5959.59
596040,5960.4
596124,5961.24
596207,5962.07
596296,5962.96
596382,5963.82
596467,5964.67
596554,5965.54
596641,5966.41
596726,5967.26
596809,5968.09
596889,5968.89
596969,5969.69
597050,5970.5
597128,5971.28
597208,5972.08
597286,5972.86
597364,5973.64
597440,5974.4
597517,5975.17
597594,5975.94
597673,5976.73
597753,5977.53
597833,5978.33
597912,5979.12
597995,5979.95
598072,5980.72
598150,5981.5
598229,5982.29
598305,5983.05
598379,5983.79
598452,5984.52
598525,5985.25
598597,5985.97
598668,5986.68
598735,5987.35
598803,5988.03
598887,5988.87
598980,5989.8
599068,5990.68
599156,5991.56
599223,5992.23
599290,5992.9
599356,5993.56
599421,5994.21
599485,5994.85
599548,5995.48
599611,5996.11
599674,5996.74
599737,5997.37
599799,5997.99
599866,5998.66
599940,5999.4
600022,6000.22
600109,6001.09
600199,6001.99
600289,6002.89
600377,6003.77
600465,6004.65
600552,6005.52
600639,6006.39
600723,6007.23
600810,6008.1
600895,6008.95
600979,6009.79
601063,6010.63
601147,6011.47
601228,6012.28
601309,6013.09
601389,6013.89
601463,6014.63
601538,6015.38
601613,6016.13
601687,6016.87
601760,6017.6
601833,6018.33
601906,6019.06
601978,6019.78
602051,6020.51
602124,6021.24
602199,6021.99
602272,6022.72
602346,6023.46
602419,6024.19
602492,6024.92
602564,6025.64
602635,6026.35
602707,6027.07
602778,6027.78
602848,6028.48
602919,6029.19
602989,6029.89
603061,6030.61
603135,6031.35
603210,6032.1
603286,6032.86
603365,6033.65
603444,6034.44
603523,6035.23
603602,6036.02
603680,6036.8
603759,6037.59
603836,6038.36
603912,6039.12
603987,6039.87
604063,6040.63
604140,6041.4
604217,6042.17
604296,6042.96
604376,6043.76
604459,6044.59
604541,6045.41
604622,6046.22
604703,6047.03
604782,6047.82
604861,6048.61
604939,6049.39
605015,6050.15
605093,6050.93
605168,6051.68
605244,6052.44
605320,6053.2
605394,6053.94
605472,6054.72
605551,6055.51
605626,6056.26
605701,6057.01
605775,6057.75
605849,6058.49
605922,6059.22
605995,6059.95
606067,6060.67
606140,6061.4
606212,6062.12
606284,6062.84
606357,6063.57
606429,6064.29
606502,6065.02
606575,6065.75
606649,6066.49
606722,6067.22
606797,6067.97
606871,6068.71
606946,6069.46
607021,6070.21
607098,6070.98
607175,6071.75
607253,6072.53
607333,6073.33
607415,6074.15
607497,6074.97
607581,6075.81
607664,6076.64
607749,6077.49
607830,6078.3
607910,6079.1
607989,6079.89
608066,6080.66
608142,6081.42
608216,6082.16
608290,6082.9
608363,6083.63
608436,6084.36
608510,6085.1
608582,6085.82
608655,6086.55
608729,6087.29
608805,6088.05
608881,6088.81
608957,6089.57
609034,6090.34
609110,6091.1
609187,6091.87
609263,6092.63
609339,6093.39
609415,6094.15
609491,6094.91
609564,6095.64
609638,6096.38
609711,6097.11
609782,6097.82
609853,6098.53
609923,6099.23
609996,6099.96
610069,6100.69
610143,6101.43
610216,6102.16
610289,6102.89
610362,6103.62
610435,6104.35
610508,6105.08
610581,6105.81
610655,6106.55
610729,6107.29
610802,6108.02
610877,6108.77
610953,6109.53
611028,6110.28
611105,6111.05
611182,6111.82
611260,6112.6
611339,6113.39
611418,6114.18
611497,6114.97
611577,6115.77
611656,6116.56
611735,6117.35
611814,6118.14
611893,6118.93
611973,6119.73
612053,6120.53
612134,6121.34
612214,6122.14
612295,6122.95
612375,6123.75
612455,6124.55
612534,6125.34
612612,6126.12
612689,6126.89
612765,6127.65
612840,6128.4
612913,6129.13
612987,6129.87
613061,6130.61
613134,6131.34
613207,6132.07
613281,6132.81
613354,6133.54
613429,6134.29
613502,6135.02
613574,6135.74
613647,6136.47
613722,6137.22
613796,6137.96
613870,6138.7
613945,6139.45
614021,6140.21
614098,6140.98
614175,6141.75
614253,6142.53
614329,6143.29
614404,6144.04
614479,6144.79
614554,6145.54
614627,6146.27
614699,6146.99
614771,6147.71
614842,6148.42
614912,6149.12
614982,6149.82
615053,6150.53
615124,6151.24
615196,6151.96
615269,6152.69
615342,6153.42
615416,6154.16
615491,6154.91
615568,6155.68
615644,6156.44
615723,6157.23
615803,6158.03
615883,6158.83
615963,6159.63
616045,6160.45
616126,6161.26
616206,6162.06
616286,6162.86
616365,6163.65
616445,6164.45
616523,6165.23
616602,6166.02
616679,6166.79
616756,6167.56
616831,6168.31
616907,6169.07
616983,6169.83
617058,6170.58
617132,6171.32
617205,6172.05
617279,6172.79
617354,6173.54
617429,6174.29
617503,6175.03
617578,6175.78
617653,6176.53
617730,6177.3
617805,6178.05
617880,6178.8
617956,6179.56
618031,6180.31
618104,6181.04
618177,6181.77
618251,6182.51
618326,6183.26
618400,6184.0
618476,6184.76
618551,6185.51
618625,6186.25
618703,6187.03
618782,6187.82
618859,6188.59
618940,6189.4
619021,6190.21
619100,6191.0
619181,6191.81
619263,6192.63
619343,6193.43
619423,6194.23
619501,6195.01
619577,6195.77
619655,6196.55
619730,6197.3
619804,6198.04
619877,6198.77
619949,6199.49
620020,6200.2
620093,6200.93
620165,6201.65
620237,6202.37
620310,6203.1
620383,6203.83
620455,6204.55
620528,6205.28
620601,6206.01
620673,6206.73
620746,6207.46
620820,6208.2
620894,6208.94
620968,6209.68
621044,6210.44
621120,6211.2
621197,6211.97
621276,6212.76
621357,6213.57
621436,6214.36
621517,6215.17
621599,6215.99
621680,6216.8
621760,6217.6
621843,6218.43
621927,6219.27
622008,6220.08
622088,6220.88
622167,6221.67
622246,6222.46
622326,6223.26
622405,6224.05
622481,6224.81
622557,6225.57
622634,6226.34
622709,6227.09
622784,6227.84
622860,6228.6
622936,6229.36
623011,6230.11
623085,6230.85
623162,6231.62
623239,6232.39
623314,6233.14
623394,6233.94
623473,6234.73
623553,6235.53
623635,6236.35
623727,6237.27
623820,6238.2
623909,6239.09
623999,6239.99
624087,6240.87
624182,6241.82
624276,6242.76
624387,6243.87
624498,6244.98
624599,6245.99
624699,6246.99
624796,6247.96
624892,6248.92
624990,6249.9
625083,6250.83
625174,6251.74
625267,6252.67
625348,6253.48
625428,6254.28
625507,6255.07
625585,6255.85
625662,6256.62
625739,6257.39
625815,6258.15
625891,6258.91
625967,6259.67
626044,6260.44
626120,6261.2
626197,6261.97
626274,6262.74
626355,6263.55
626437,6264.37
626520,6265.2
626607,6266.07
626693,6266.93
626777,6267.77
626863,6268.63
626948,6269.48
627032,6270.32
627116,6271.16
627200,6272.0
627282,6272.82
627362,6273.62
627443,6274.43
627524,6275.24
627605,6276.05
627686,6276.86
627766,6277.66
627845,6278.45
627923,6279.23
628001,6280.01
628080,6280.8
628159,6281.59
628238,6282.38
628321,6283.21
628406,6284.06
628489,6284.89
628574,6285.74
628660,6286.6
628744,6287.44
628827,6288.27
628911,6289.11
628998,6289.98
629084,6290.84
629171,6291.71
629260,6292.6
629350,6293.5
629437,6294.37
629527,6295.27
629617,6296.17
629707,6297.07
629791,6297.91
629877,6298.77
629961,6299.61
630047,6300.47
630133,6301.33
630216,6302.16
630301,6303.01
630383,6303.83
630464,6304.64
630546,6305.46
630626,6306.26
630706,6307.06
630786,6307.86
630865,6308.65
630944,6309.44
631023,6310.23
631099,6310.99
631174,6311.74
631248,6312.48
631320,6313.2
631393,6313.93
631464,6314.64
631536,6315.36
631608,6316.08
631679,6316.79
631750,6317.5
631820,6318.2
631891,6318.91
631963,6319.63
632035,6320.35
632109,6321.09
632185,6321.85
632260,6322.6
632337,6323.37
632414,6324.14
632491,6324.91
632569,6325.69
632645,6326.45
632721,6327.21
632797,6327.97
632871,6328.71
632943,6329.43
633015,6330.15
633086,6330.86
633158,6331.58
633229,6332.29
633300,6333.0
633373,6333.73
633446,6334.46
633520,6335.2
633594,6335.94
633669,6336.69
633747,6337.47
633825,6338.25
633901,6339.01
633979,6339.79
634056,6340.56
634133,6341.33
634213,6342.13
634292,6342.92
634372,6343.72
634451,6344.51
634531,6345.31
634612,6346.12
634692,6346.92
634770,6347.7
634846,6348.46
634927,6349.27
635008,6350.08
635098,6350.98
635188,6351.88
635272,6352.72
635356,6353.56
635436,6354.36
635515,6355.15
635596,6355.96
635676,6356.76
635754,6357.54
635834,6358.34
635913,6359.13
635988,6359.88
636061,6360.61
636134,6361.34
636205,6362.05
636275,6362.75
636346,6363.46
636416,6364.16
636487,6364.87
636557,6365.57
636627,6366.27
636698,6366.98
636770,6367.7
636843,6368.43
636919,6369.19
636998,6369.98
637080,6370.8
637163,6371.63
637245,6372.45
637330,6373.3
637416,6374.16
637502,6375.02
637588,6375.88
637672,6376.72
637756,6377.56
637839,6378.39
637921,6379.21
638001,6380.01
638080,6380.8
638159,6381.59
638237,6382.37
638315,6383.15
638392,6383.92
638469,6384.69
638545,6385.45
638620,6386.2
638697,6386.97
638774,6387.74
638851,6388.51
638930,6389.3
639010,6390.1
639089,6390.89
639166,6391.66
639245,6392.45
639325,6393.25
639403,6394.03
639482,6394.82
639562,6395.62
639638,6396.38
639715,6397.15
639794,6397.94
639874,6398.74
639952,6399.52
640031,6400.31
640106,6401.06
640180,6401.8
640256,6402.56
640332,6403.32
640406,6404.06
640479,6404.79
640552,6405.52
640623,6406.23
640698,6406.98
640772,6407.72
640846,6408.46
640921,6409.21
640998,6409.98
641074,6410.74
641153,6411.53
641232,6412.32
641312,6413.12
641394,6413.94
641477,6414.77
641558,6415.58
641643,6416.43
641727,6417.27
641809,6418.09
641891,6418.91
641973,6419.73
642053,6420.53
642130,6421.3
642207,6422.07
642282,6422.82
642356,6423.56
642428,6424.28
642498,6424.98
642568,6425.68
642638,6426.38
642715,6427.15
642792,6427.92
642867,6428.67
642942,6429.42
643017,6430.17
643092,6430.92
643169,6431.69
643246,6432.46
643326,6433.26
643405,6434.05
643488,6434.88
643571,6435.71
643653,6436.53
643734,6437.34
643817,6438.17
643899,6438.99
643980,6439.8
644061,6440.61
644142,6441.42
