sample,time_sec
48,0.48
147,1.47
223,2.23
288,2.88
373,3.73
449,4.49
526,5.26
602,6.02
678,6.78
766,7.66
854,8.54
946,9.46
1041,10.41
1133,11.33
1225,12.25
1321,13.21
1416,14.16
1508,15.08
1599,15.99
1691,16.91
1784,17.84
1877,18.77
1967,19.67
2054,20.54
2140,21.4
2227,22.27
2313,23.13
2371,23.71
2429,24.29
2486,24.86
2570,25.7
2655,26.55
2740,27.4
2823,28.23
2905,29.05
2989,29.89
3073,30.73
3158,31.58
3242,32.42
3325,33.25
3409,34.09
3495,34.95
3580,35.8
3655,36.55
3730,37.3
3824,38.24
3918,39.18
4001,40.01
4083,40.83
4166,41.66
4252,42.52
4336,43.36
4419,44.19
4503,45.03
4588,45.88
4674,46.74
4748,47.48
4822,48.22
4913,49.13
5004,50.04
5083,50.83
5161,51.61
5240,52.4
5318,53.18
5396,53.96
5476,54.76
5557,55.57
5640,56.4
5721,57.21
5803,58.03
5887,58.87
5971,59.71
6055,60.55
6137,61.37
6219,62.19
6303,63.03
6388,63.88
6471,64.71
6555,65.55
6639,66.39
6726,67.26
6813,68.13
6899,68.99
6982,69.82
7066,70.66
7149,71.49
7233,72.33
7314,73.14
7393,73.93
7473,74.73
7550,75.5
7628,76.28
7705,77.05
7773,77.73
7842,78.42
7924,79.24
8006,80.06
8080,80.8
8155,81.55
8230,82.3
8306,83.06
8383,83.83
8461,84.61
8541,85.41
8619,86.19
8698,86.98
8779,87.79
8861,88.61
8926,89.26
9003,90.03
9069,90.69
9164,91.64
9249,92.49
9351,93.51
9443,94.43
9535,95.35
9626,96.26
9716,97.16
9807,98.07
9900,99.0
9995,99.95
10089,100.89
10183,101.83
10279,102.79
10380,103.8
10480,104.8
10580,105.8
10680,106.8
10785,107.85
10891,108.91
10989,109.89
11081,110.81
11175,111.75
11268,112.68
11358,113.58
11447,114.47
11533,115.33
11620,116.2
11707,117.07
11795,117.95
11881,118.81
11967,119.67
12053,120.53
12140,121.4
12226,122.26
12313,123.13
12398,123.98
12483,124.83
12569,125.69
12655,126.55
12740,127.4
12825,128.25
12910,129.1
12998,129.98
13087,130.87
13175,131.75
13265,132.65
13358,133.58
13452,134.52
13544,135.44
13636,136.36
13727,137.27
13820,138.2
13914,139.14
14006,140.06
14095,140.95
14184,141.84
14274,142.74
14364,143.64
14453,144.53
14541,145.41
14629,146.29
14719,147.19
14809,148.09
14896,148.96
14983,149.83
15071,150.71
15163,151.63
15256,152.56
15346,153.46
15437,154.37
15527,155.27
15618,156.18
15710,157.1
15798,157.98
15884,158.84
15969,159.69
16050,160.5
16129,161.29
16208,162.08
16287,162.87
16368,163.68
16451,164.51
16535,165.35
16618,166.18
16701,167.01
16786,167.86
16871,168.71
16957,169.57
17041,170.41
17125,171.25
17211,172.11
17297,172.97
17384,173.84
17473,174.73
17564,175.64
17654,176.54
17745,177.45
17835,178.35
17922,179.22
18010,180.1
18100,181.0
18188,181.88
18277,182.77
18367,183.67
18464,184.64
18568,185.68
18672,186.72
18770,187.7
18869,188.69
18969,189.69
19058,190.58
19148,191.48
19236,192.36
19321,193.21
19405,194.05
19491,194.91
19575,195.75
19657,196.57
19738,197.38
19820,198.2
19900,199.0
19980,199.8
20061,200.61
20142,201.42
20220,202.2
20298,202.98
20376,203.76
20455,204.55
20533,205.33
20611,206.11
20688,206.88
20767,207.67
20846,208.46
20926,209.26
21005,210.05
21085,210.85
21167,211.67
21248,212.48
21329,213.29
21411,214.11
21491,214.91
21571,215.71
21652,216.52
21732,217.32
21813,218.13
21892,218.92
21972,219.72
22054,220.54
22134,221.34
22216,222.16
22300,223.0
22387,223.87
22475,224.75
22561,225.61
22645,226.45
22732,227.32
22822,228.22
22913,229.13
23003,230.03
23091,230.91
23176,231.76
23259,232.59
23342,233.42
23426,234.26
23510,235.1
23595,235.95
23681,236.81
23766,237.66
23849,238.49
23932,239.32
24017,240.17
24103,241.03
24190,241.9
24277,242.77
24363,243.63
24448,244.48
24531,245.31
24613,246.13
24696,246.96
24779,247.79
24862,248.62
24944,249.44
25028,250.28
25112,251.12
25200,252.0
25291,252.91
25385,253.85
25477,254.77
25569,255.69
25661,256.61
25751,257.51
25841,258.41
25929,259.29
26017,260.17
26105,261.05
26191,261.91
26276,262.76
26356,263.56
26434,264.34
26510,265.1
26583,265.83
26655,266.55
26728,267.28
26801,268.01
26876,268.76
26954,269.54
27034,270.34
27115,271.15
27198,271.98
27283,272.83
27367,273.67
27452,274.52
27538,275.38
27627,276.27
27720,277.2
27816,278.16
27913,279.13
28006,280.06
28098,280.98
28188,281.88
28274,282.74
28360,283.6
28444,284.44
28528,285.28
28610,286.1
28691,286.91
28769,287.69
28844,288.44
28919,289.19
28992,289.92
29065,290.65
29137,291.37
29210,292.1
29283,292.83
29358,293.58
29434,294.34
29511,295.11
29589,295.89
29669,296.69
29753,297.53
29837,298.37
29920,299.2
30006,300.06
30092,300.92
30177,301.77
30261,302.61
30343,303.43
30423,304.23
30502,305.02
30581,305.81
30660,306.6
30740,307.4
30818,308.18
30897,308.97
30978,309.78
31058,310.58
31138,311.38
31220,312.2
31301,313.01
31383,313.83
31467,314.67
31551,315.51
31636,316.36
31721,317.21
31805,318.05
31887,318.87
31968,319.68
32049,320.49
32130,321.3
32211,322.11
32291,322.91
32373,323.73
32455,324.55
32536,325.36
32618,326.18
32702,327.02
32787,327.87
32872,328.72
32959,329.59
33047,330.47
33140,331.4
33234,332.34
33326,333.26
33414,334.14
33503,335.03
33584,335.84
33666,336.66
33752,337.52
33840,338.4
33928,339.28
34012,340.12
34096,340.96
34179,341.79
34262,342.62
34345,343.45
34429,344.29
34513,345.13
34597,345.97
34680,346.8
34765,347.65
34850,348.5
34935,349.35
35019,350.19
35102,351.02
35184,351.84
35266,352.66
35347,353.47
35427,354.27
35506,355.06
35586,355.86
35668,356.68
35753,357.53
35839,358.39
35927,359.27
36017,360.17
36111,361.11
36205,362.05
36296,362.96
36381,363.81
36466,364.66
36549,365.49
36630,366.3
36707,367.07
36784,367.84
36859,368.59
36935,369.35
37008,370.08
37081,370.81
37156,371.56
37211,372.11
37266,372.66
37321,373.21
37388,373.88
37455,374.55
37530,375.3
37606,376.06
37676,376.76
37747,377.47
37834,378.34
37921,379.21
38001,380.01
38081,380.81
38162,381.62
38246,382.46
38330,383.3
38413,384.13
38497,384.97
38583,385.83
38671,386.71
38759,387.59
38848,388.48
38936,389.36
39025,390.25
39114,391.14
39204,392.04
39292,392.92
39380,393.8
39468,394.68
39557,395.57
39646,396.46
39734,397.34
39821,398.21
39907,399.07
39994,399.94
40081,400.81
40167,401.67
40254,402.54
40343,403.43
40434,404.34
40524,405.24
40615,406.15
40703,407.03
40792,407.92
40880,408.8
40968,409.68
41056,410.56
41142,411.42
41226,412.26
41310,413.1
41392,413.92
41473,414.73
41554,415.54
41633,416.33
41712,417.12
41789,417.89
41867,418.67
41947,419.47
42029,420.29
42112,421.12
42195,421.95
42281,422.81
42367,423.67
42452,424.52
42539,425.39
42627,426.27
42715,427.15
42803,428.03
42892,428.92
42983,429.83
43074,430.74
43167,431.67
43260,432.6
43354,433.54
43450,434.5
43545,435.45
43644,436.44
43747,437.47
43860,438.6
43970,439.7
44085,440.85
44187,441.87
44282,442.82
44376,443.76
44473,444.73
44566,445.66
44654,446.54
44742,447.42
44827,448.27
44910,449.1
44992,449.92
45071,450.71
45150,451.5
45229,452.29
45309,453.09
45388,453.88
45467,454.67
45546,455.46
45626,456.26
45708,457.08
45783,457.83
45859,458.59
45950,459.5
46041,460.41
46126,461.26
46212,462.12
46300,463.0
46387,463.87
46475,464.75
46563,465.63
46652,466.52
46742,467.42
46834,468.34
46926,469.26
47016,470.16
47106,471.06
47196,471.96
47286,472.86
47375,473.75
47463,474.63
47550,475.5
47638,476.38
47726,477.26
47814,478.14
47902,479.02
47989,479.89
48077,480.77
48165,481.65
48254,482.54
48342,483.42
48431,484.31
48521,485.21
48612,486.12
48703,487.03
48797,487.97
48891,488.91
48988,489.88
49083,490.83
49177,491.77
49274,492.74
49373,493.73
49480,494.8
49594,495.94
49713,497.13
49826,498.26
49933,499.33
50038,500.38
50143,501.43
50244,502.44
50341,503.41
50441,504.41
50544,505.44
50651,506.51
50749,507.49
50844,508.44
50939,509.39
51032,510.32
51125,511.25
51219,512.19
51314,513.14
51406,514.06
51498,514.98
51590,515.9
51684,516.84
51775,517.75
51862,518.62
51951,519.51
52040,520.4
52128,521.28
52216,522.16
52305,523.05
52397,523.97
52489,524.89
52581,525.81
52674,526.74
52768,527.68
52861,528.61
52954,529.54
53043,530.43
53132,531.32
53222,532.22
53313,533.13
53405,534.05
53497,534.97
53592,535.92
53690,536.9
53789,537.89
53886,538.86
53979,539.79
54072,540.72
54166,541.66
54262,542.62
54361,543.61
54458,544.58
54553,545.53
54652,546.52
54755,547.55
54863,548.63
54971,549.71
55075,550.75
55182,551.82
55290,552.9
55390,553.9
55484,554.84
55576,555.76
55668,556.68
55757,557.57
55842,558.42
55926,559.26
56010,560.1
56095,560.95
56179,561.79
56262,562.62
56347,563.47
56432,564.32
56517,565.17
56603,566.03
56689,566.89
56776,567.76
56863,568.63
56951,569.51
57040,570.4
57132,571.32
57230,572.3
57330,573.3
57429,574.29
57527,575.27
57626,576.26
57729,577.29
57830,578.3
57927,579.27
58019,580.19
58111,581.11
58204,582.04
58298,582.98
58388,583.88
58478,584.78
58568,585.68
58657,586.57
58747,587.47
58835,588.35
58927,589.27
59018,590.18
59104,591.04
59190,591.9
59274,592.74
59357,593.57
59441,594.41
59526,595.26
59613,596.13
59700,597.0
59789,597.89
59880,598.8
59972,599.72
60065,600.65
60159,601.59
60252,602.52
60346,603.46
60440,604.4
60533,605.33
60626,606.26
60719,607.19
60815,608.15
60915,609.15
61020,610.2
61131,611.31
61237,612.37
61337,613.37
61438,614.38
61546,615.46
61646,616.46
61747,617.47
61851,618.51
61955,619.55
62046,620.46
62137,621.37
62227,622.27
62312,623.12
62396,623.96
62480,624.8
62564,625.64
62650,626.5
62737,627.37
62824,628.24
62912,629.12
63002,630.02
63093,630.93
63186,631.86
63279,632.79
63371,633.71
63460,634.6
63544,635.44
63629,636.29
63713,637.13
63796,637.96
63879,638.79
63967,639.67
64060,640.6
64157,641.57
64255,642.55
64354,643.54
64456,644.56
64560,645.6
64657,646.57
64750,647.5
64846,648.46
64943,649.43
65039,650.39
65143,651.43
65248,652.48
65346,653.46
65444,654.44
65543,655.43
65635,656.35
65726,657.26
65816,658.16
65905,659.05
65993,659.93
66081,660.81
66168,661.68
66255,662.55
66341,663.41
66423,664.23
66505,665.05
66585,665.85
66665,666.65
66744,667.44
66821,668.21
66899,668.99
66976,669.76
67053,670.53
67128,671.28
67205,672.05
67284,672.84
67363,673.63
67443,674.43
67526,675.26
67612,676.12
67699,676.99
67788,677.88
67876,678.76
67967,679.67
68057,680.57
68148,681.48
68239,682.39
68331,683.31
68424,684.24
68516,685.16
68607,686.07
68700,687.0
68797,687.97
68900,689.0
69003,690.03
69103,691.03
69198,691.98
69295,692.95
69392,693.92
69485,694.85
69579,695.79
69674,696.74
69769,697.69
69859,698.59
69949,699.49
70038,700.38
70123,701.23
70207,702.07
70292,702.92
70376,703.76
70461,704.61
70544,705.44
70627,706.27
70710,707.1
70794,707.94
70879,708.79
70965,709.65
71053,710.53
71143,711.43
71233,712.33
71323,713.23
71415,714.15
71509,715.09
71599,715.99
71687,716.87
71779,717.79
71879,718.79
71984,719.84
72084,720.84
72178,721.78
72270,722.7
72361,723.61
72448,724.48
72534,725.34
72619,726.19
72707,727.07
72794,727.94
72880,728.8
72966,729.66
73053,730.53
73141,731.41
73230,732.3
73319,733.19
73409,734.09
73499,734.99
73589,735.89
73682,736.82
73774,737.74
73869,738.69
73966,739.66
74068,740.68
74178,741.78
74292,742.92
74399,743.99
74496,744.96
74592,745.92
74691,746.91
74785,747.85
74884,748.84
74987,749.87
75082,750.82
75171,751.71
75255,752.55
75336,753.36
75416,754.16
75495,754.95
75571,755.71
75646,756.46
75723,757.23
75800,758.0
75877,758.77
75955,759.55
76036,760.36
76119,761.19
76205,762.05
76295,762.95
76388,763.88
76483,764.83
76579,765.79
76675,766.75
76771,767.71
76868,768.68
76964,769.64
77061,770.61
77161,771.61
77261,772.61
77359,773.59
77464,774.64
77575,775.75
77684,776.84
77790,777.9
77904,779.04
78010,780.1
78107,781.07
78204,782.04
78301,783.01
78392,783.92
78478,784.78
78563,785.63
78646,786.46
78726,787.26
78806,788.06
78888,788.88
78972,789.72
79057,790.57
79145,791.45
79235,792.35
79327,793.27
79420,794.2
79514,795.14
79610,796.1
79707,797.07
79807,798.07
79908,799.08
80010,800.1
80116,801.16
80225,802.25
80338,803.38
80453,804.53
80567,805.67
80672,806.72
80774,807.74
80878,808.78
80975,809.75
81073,810.73
81176,811.76
81280,812.8
81379,813.79
81479,814.79
81560,815.6
81642,816.42
81737,817.37
81832,818.32
81916,819.16
82007,820.07
82093,820.93
82180,821.8
82268,822.68
82358,823.58
82447,824.47
82536,825.36
82624,826.24
82711,827.11
82799,827.99
82888,828.88
82979,829.79
83071,830.71
83163,831.63
83251,832.51
83336,833.36
83418,834.18
83499,834.99
83577,835.77
83656,836.56
83734,837.34
83812,838.12
83889,838.89
83968,839.68
84046,840.46
84123,841.23
84202,842.02
84279,842.79
84359,843.59
84440,844.4
84525,845.25
84612,846.12
84703,847.03
84796,847.96
84892,848.92
84988,849.88
85085,850.85
85180,851.8
85275,852.75
85371,853.71
85469,854.69
85572,855.72
85681,856.81
85793,857.93
85907,859.07
86017,860.17
86125,861.25
86233,862.33
86345,863.45
86454,864.54
86565,865.65
86676,866.76
86779,867.79
86882,868.82
86988,869.88
87084,870.84
87181,871.81
87269,872.69
87354,873.54
87440,874.4
87524,875.24
87607,876.07
87689,876.89
87772,877.72
87847,878.47
87923,879.23
88015,880.15
88108,881.08
88194,881.94
88281,882.81
88371,883.71
88462,884.62
88555,885.55
88650,886.5
88745,887.45
88839,888.39
88932,889.32
89026,890.26
89119,891.19
89213,892.13
89309,893.09
89406,894.06
89506,895.06
89605,896.05
89704,897.04
89805,898.05
89910,899.1
90008,900.08
90108,901.08
90229,902.29
90350,903.5
90447,904.47
90543,905.43
90651,906.51
90755,907.55
90858,908.58
90974,909.74
91078,910.78
91175,911.75
91273,912.73
91364,913.64
91450,914.5
91537,915.37
91622,916.22
91706,917.06
91790,917.9
91876,918.76
91963,919.63
92054,920.54
92147,921.47
92242,922.42
92337,923.37
92433,924.33
92528,925.28
92623,926.23
92716,927.16
92807,928.07
92900,929.0
92996,929.96
93093,930.93
93194,931.94
93299,932.99
93406,934.06
93512,935.12
93619,936.19
93751,937.51
93888,938.88
94025,940.25
94158,941.58
94271,942.71
94391,943.91
94497,944.97
94595,945.95
94695,946.95
94802,948.02
94909,949.09
95002,950.02
95097,950.97
95185,951.85
95269,952.69
95353,953.53
95437,954.37
95520,955.2
95603,956.03
95689,956.89
95777,957.77
95868,958.68
95963,959.63
96060,960.6
96158,961.58
96257,962.57
96355,963.55
96454,964.54
96549,965.49
96645,966.45
96740,967.4
96834,968.34
96931,969.31
97030,970.3
97131,971.31
97236,972.36
97346,973.46
97456,974.56
97563,975.63
97668,976.68
97776,977.76
97897,978.97
98026,980.26
98169,981.69
98312,983.12
98422,984.22
98533,985.33
98647,986.47
98761,987.61
98869,988.69
98982,989.82
99081,990.81
99179,991.79
99275,992.75
99363,993.63
99446,994.46
99531,995.31
99615,996.15
99698,996.98
99781,997.81
99869,998.69
99960,999.6
100054,1000.54
100151,1001.51
100250,1002.5
100351,1003.51
100452,1004.52
100552,1005.52
100652,1006.52
100750,1007.5
100848,1008.48
100946,1009.46
101045,1010.45
101144,1011.44
101242,1012.42
101342,1013.42
101444,1014.44
101548,1015.48
101653,1016.53
101758,1017.58
101866,1018.66
101979,1019.79
102095,1020.95
102207,1022.07
102315,1023.15
102419,1024.19
102533,1025.33
102653,1026.53
102777,1027.77
102902,1029.02
103004,1030.04
103106,1031.06
103213,1032.13
103320,1033.2
103418,1034.18
103518,1035.18
103621,1036.21
103714,1037.14
103807,1038.07
103897,1038.97
103982,1039.82
104066,1040.66
104151,1041.51
104236,1042.36
104320,1043.2
104404,1044.04
104491,1044.91
104581,1045.81
104673,1046.73
104768,1047.68
104865,1048.65
104964,1049.64
105062,1050.62
105159,1051.59
105255,1052.55
105351,1053.51
105448,1054.48
105545,1055.45
105641,1056.41
105738,1057.38
105837,1058.37
105937,1059.37
106039,1060.39
106144,1061.44
106254,1062.54
106364,1063.64
106470,1064.7
106576,1065.76
106692,1066.92
106825,1068.25
106958,1069.58
107078,1070.78
107199,1071.99
107365,1073.65
107532,1075.32
107694,1076.94
107841,1078.41
107965,1079.65
108076,1080.76
108172,1081.72
108268,1082.68
108371,1083.71
108474,1084.74
108569,1085.69
108657,1086.57
108738,1087.38
108818,1088.18
108897,1088.97
108976,1089.76
109052,1090.52
109128,1091.28
109205,1092.05
109284,1092.84
109363,1093.63
109443,1094.43
109528,1095.28
109615,1096.15
109707,1097.07
109802,1098.02
109897,1098.97
109995,1099.95
110093,1100.93
110191,1101.91
110288,1102.88
110385,1103.85
110480,1104.8
110576,1105.76
110671,1106.71
110765,1107.65
110859,1108.59
110953,1109.53
111048,1110.48
111145,1111.45
111244,1112.44
111346,1113.46
111449,1114.49
111553,1115.53
111652,1116.52
111748,1117.48
111848,1118.48
111960,1119.6
112087,1120.87
112223,1122.23
112350,1123.5
112461,1124.61
112572,1125.72
112699,1126.99
112827,1128.27
112935,1129.35
113045,1130.45
113141,1131.41
113240,1132.4
113333,1133.33
113422,1134.22
113511,1135.11
113600,1136.0
113685,1136.85
113770,1137.7
113857,1138.57
113946,1139.46
114038,1140.38
114133,1141.33
114232,1142.32
114331,1143.31
114431,1144.31
114530,1145.3
114632,1146.32
114731,1147.31
114831,1148.31
114932,1149.32
115033,1150.33
115135,1151.35
115241,1152.41
115350,1153.5
115459,1154.59
115568,1155.68
115670,1156.7
115770,1157.7
115877,1158.77
115995,1159.95
116118,1161.18
116248,1162.48
116372,1163.72
116487,1164.87
116597,1165.97
116717,1167.17
116838,1168.38
116938,1169.38
117051,1170.51
117156,1171.56
117261,1172.61
117360,1173.6
117450,1174.5
117541,1175.41
117631,1176.31
117715,1177.15
117798,1177.98
117882,1178.82
117966,1179.66
118051,1180.51
118135,1181.35
118219,1182.19
118306,1183.06
118392,1183.92
118480,1184.8
118569,1185.69
118660,1186.6
118754,1187.54
118851,1188.51
118948,1189.48
119046,1190.46
119147,1191.47
119250,1192.5
119357,1193.57
119467,1194.67
119577,1195.77
119690,1196.9
119803,1198.03
119920,1199.2
120034,1200.34
120145,1201.45
120257,1202.57
120388,1203.88
120525,1205.25
120665,1206.65
120789,1207.89
120896,1208.96
121003,1210.03
121112,1211.12
121220,1212.2
121323,1213.23
121426,1214.26
121536,1215.36
121635,1216.35
121725,1217.25
121814,1218.14
121903,1219.03
121988,1219.88
122071,1220.71
122155,1221.55
122242,1222.42
122329,1223.29
122419,1224.19
122512,1225.12
122607,1226.07
122704,1227.04
122802,1228.02
122900,1229.0
122999,1229.99
123096,1230.96
123193,1231.93
123289,1232.89
123384,1233.84
123478,1234.78
123574,1235.74
123671,1236.71
123769,1237.69
123872,1238.72
123976,1239.76
124083,1240.83
124195,1241.95
124302,1243.02
124410,1244.1
124531,1245.31
124668,1246.68
124805,1248.05
124940,1249.4
125051,1250.51
125162,1251.62
125288,1252.88
125415,1254.15
125514,1255.14
125614,1256.14
125716,1257.16
125819,1258.19
125913,1259.13
126002,1260.02
126086,1260.86
126172,1261.72
126256,1262.56
126341,1263.41
126423,1264.23
126505,1265.05
126589,1265.89
126676,1266.76
126765,1267.65
126857,1268.57
126951,1269.51
127046,1270.46
127143,1271.43
127241,1272.41
127338,1273.38
127434,1274.34
127530,1275.3
127626,1276.26
127725,1277.25
127827,1278.27
127934,1279.34
128044,1280.44
128157,1281.57
128271,1282.71
128380,1283.8
128485,1284.85
128592,1285.92
128717,1287.17
128851,1288.51
128983,1289.83
129112,1291.12
129241,1292.41
129413,1294.13
129575,1295.75
129746,1297.46
129906,1299.06
130056,1300.56
130207,1302.07
130329,1303.29
130429,1304.29
130519,1305.19
130608,1306.08
130705,1307.05
130790,1307.9
130872,1308.72
130951,1309.51
131025,1310.25
131099,1310.99
131169,1311.69
131240,1312.4
131312,1313.12
131384,1313.84
131457,1314.57
131530,1315.3
131606,1316.06
131684,1316.84
131764,1317.64
131846,1318.46
131931,1319.31
132018,1320.18
132108,1321.08
132199,1321.99
132291,1322.91
132383,1323.83
132476,1324.76
132569,1325.69
132661,1326.61
132753,1327.53
132844,1328.44
132936,1329.36
133027,1330.27
133120,1331.2
133214,1332.14
133310,1333.1
133404,1334.04
133496,1334.96
133587,1335.87
133689,1336.89
133807,1338.07
133933,1339.33
134059,1340.59
134167,1341.67
134267,1342.67
134371,1343.71
134490,1344.9
134613,1346.13
134726,1347.26
134826,1348.26
134925,1349.25
135013,1350.13
135101,1351.01
135187,1351.87
135273,1352.73
135357,1353.57
135439,1354.39
135525,1355.25
135610,1356.1
135695,1356.95
135781,1357.81
135868,1358.68
135957,1359.57
136049,1360.49
136141,1361.41
136237,1362.37
136332,1363.32
136426,1364.26
136520,1365.2
136615,1366.15
136711,1367.11
136811,1368.11
136914,1369.14
137022,1370.22
137134,1371.34
137247,1372.47
137361,1373.61
137476,1374.76
137588,1375.88
137694,1376.94
137795,1377.95
137919,1379.19
138049,1380.49
138190,1381.9
138305,1383.05
138421,1384.21
138532,1385.32
138650,1386.5
138747,1387.47
138848,1388.48
138956,1389.56
139060,1390.6
139153,1391.53
139238,1392.38
139322,1393.22
139405,1394.05
139487,1394.87
139567,1395.67
139648,1396.48
139731,1397.31
139816,1398.16
139903,1399.03
139992,1399.92
140082,1400.82
140173,1401.73
140265,1402.65
140358,1403.58
140450,1404.5
140543,1405.43
140636,1406.36
140729,1407.29
140822,1408.22
140915,1409.15
141009,1410.09
141105,1411.05
141203,1412.03
141303,1413.03
141408,1414.08
141516,1415.16
141630,1416.3
141746,1417.46
141853,1418.53
141956,1419.56
142057,1420.57
142191,1421.91
142331,1423.31
142471,1424.71
142601,1426.01
142731,1427.31
142868,1428.68
142984,1429.84
143102,1431.02
143204,1432.04
143306,1433.06
143419,1434.19
143532,1435.32
143631,1436.31
143722,1437.22
143806,1438.06
143890,1438.9
143971,1439.71
144052,1440.52
144131,1441.31
144209,1442.09
144290,1442.9
144372,1443.72
144455,1444.55
144541,1445.41
144627,1446.27
144716,1447.16
144808,1448.08
144903,1449.03
144999,1449.99
145095,1450.95
145192,1451.92
145288,1452.88
145385,1453.85
145482,1454.82
145579,1455.79
145678,1456.78
145776,1457.76
145874,1458.74
145975,1459.75
146079,1460.79
146184,1461.84
146294,1462.94
146403,1464.03
146511,1465.11
146618,1466.18
146738,1467.38
146872,1468.72
147006,1470.06
147126,1471.26
147247,1472.47
147396,1473.96
147546,1475.46
147680,1476.8
147798,1477.98
147905,1479.05
148019,1480.19
148131,1481.31
148227,1482.27
148326,1483.26
148414,1484.14
148497,1484.97
148580,1485.8
148661,1486.61
148742,1487.42
148820,1488.2
148899,1488.99
148980,1489.8
149062,1490.62
149148,1491.48
149236,1492.36
149329,1493.29
149423,1494.23
149519,1495.19
149616,1496.16
149714,1497.14
149812,1498.12
149909,1499.09
150005,1500.05
150101,1501.01
150195,1501.95
150290,1502.9
150390,1503.9
150495,1504.95
150605,1506.05
150721,1507.21
150837,1508.37
150957,1509.57
151077,1510.77
151191,1511.91
151302,1513.02
151429,1514.29
151575,1515.75
151721,1517.21
151854,1518.54
151968,1519.68
152083,1520.83
152245,1522.45
152407,1524.07
152527,1525.27
152637,1526.37
152744,1527.44
152837,1528.37
152925,1529.25
153011,1530.11
153098,1530.98
153185,1531.85
153273,1532.73
153363,1533.63
153453,1534.53
153544,1535.44
153636,1536.36
153729,1537.29
153824,1538.24
153919,1539.19
154015,1540.15
154113,1541.13
154213,1542.13
154315,1543.15
154414,1544.14
154513,1545.13
154610,1546.1
154707,1547.07
154802,1548.02
154899,1548.99
154998,1549.98
155097,1550.97
155198,1551.98
155302,1553.02
155406,1554.06
155513,1555.13
155617,1556.17
155720,1557.2
155838,1558.38
155974,1559.74
156112,1561.12
156246,1562.46
156374,1563.74
156518,1565.18
156662,1566.62
156803,1568.03
156945,1569.45
157066,1570.66
157171,1571.71
157277,1572.77
157390,1573.9
157504,1575.04
157604,1576.04
157700,1577.0
157787,1577.87
157874,1578.74
157958,1579.58
158041,1580.41
158121,1581.21
158203,1582.03
158286,1582.86
158371,1583.71
158458,1584.58
158548,1585.48
158641,1586.41
158737,1587.37
158834,1588.34
158932,1589.32
159032,1590.32
159131,1591.31
159230,1592.3
159329,1593.29
159427,1594.27
159526,1595.26
159625,1596.25
159724,1597.24
159826,1598.26
159930,1599.3
160038,1600.38
160151,1601.51
160268,1602.68
160380,1603.8
160493,1604.93
160620,1606.2
160755,1607.55
160890,1608.9
161012,1610.12
161134,1611.34
161300,1613.0
161466,1614.66
161594,1615.94
161720,1617.2
161840,1618.4
161957,1619.57
162077,1620.77
162180,1621.8
162286,1622.86
162393,1623.93
162495,1624.95
162590,1625.9
162682,1626.82
162773,1627.73
162864,1628.64
162953,1629.53
163038,1630.38
163121,1631.21
163206,1632.06
163294,1632.94
163382,1633.82
163472,1634.72
163564,1635.64
163657,1636.57
163750,1637.5
163845,1638.45
163938,1639.38
164033,1640.33
164129,1641.29
164227,1642.27
164328,1643.28
164431,1644.31
164536,1645.36
164642,1646.42
164748,1647.48
164856,1648.56
164967,1649.67
165075,1650.75
165182,1651.82
165298,1652.98
165427,1654.27
165564,1655.64
165702,1657.02
165825,1658.25
165948,1659.48
166114,1661.14
166280,1662.8
166418,1664.18
166535,1665.35
166660,1666.6
166768,1667.68
166876,1668.76
166996,1669.96
167114,1671.14
167224,1672.24
167318,1673.18
167412,1674.12
167499,1674.99
167581,1675.81
167663,1676.63
167746,1677.46
167828,1678.28
167910,1679.1
167991,1679.91
168073,1680.73
168157,1681.57
168243,1682.43
168332,1683.32
168423,1684.23
168516,1685.16
168610,1686.1
168706,1687.06
168803,1688.03
168902,1689.02
169000,1690.0
169098,1690.98
169197,1691.97
169297,1692.97
169400,1694.0
169504,1695.04
169614,1696.14
169727,1697.27
169839,1698.39
169945,1699.45
170049,1700.49
170160,1701.6
170286,1702.86
170423,1704.23
170545,1705.45
170668,1706.68
170822,1708.22
170977,1709.77
171112,1711.12
171235,1712.35
171363,1713.63
171477,1714.77
171601,1716.01
171712,1717.12
171827,1718.27
171928,1719.28
172019,1720.19
172097,1720.97
172175,1721.75
172275,1722.75
172358,1723.58
172441,1724.41
172525,1725.25
172605,1726.05
172683,1726.83
172759,1727.59
172836,1728.36
172911,1729.11
172987,1729.87
173065,1730.65
173147,1731.47
173232,1732.32
173323,1733.23
173417,1734.17
173514,1735.14
173612,1736.12
173712,1737.12
173815,1738.15
173916,1739.16
174019,1740.19
174123,1741.23
174228,1742.28
174332,1743.32
174438,1744.38
174545,1745.45
174651,1746.51
174759,1747.59
174870,1748.7
174987,1749.87
175105,1751.05
175218,1752.18
175328,1753.28
175447,1754.47
175583,1755.83
175724,1757.24
175849,1758.49
175974,1759.74
176126,1761.26
176279,1762.79
176414,1764.14
176530,1765.3
176660,1766.6
176770,1767.7
176869,1768.69
176971,1769.71
177087,1770.87
177203,1772.03
177300,1773.0
177391,1773.91
177477,1774.77
177558,1775.58
177634,1776.34
177709,1777.09
177786,1777.86
177863,1778.63
177941,1779.41
178019,1780.19
178100,1781.0
178184,1781.84
178270,1782.7
178358,1783.58
178449,1784.49
178542,1785.42
178638,1786.38
178735,1787.35
178831,1788.31
178928,1789.28
179026,1790.26
179126,1791.26
179229,1792.29
179334,1793.34
179442,1794.42
179552,1795.52
179663,1796.63
179767,1797.67
179872,1798.72
179986,1799.86
180109,1801.09
180239,1802.39
180367,1803.67
180484,1804.84
180608,1806.08
180763,1807.63
180919,1809.19
181039,1810.39
181160,1811.6
181283,1812.83
181411,1814.11
181526,1815.26
181634,1816.34
181740,1817.4
181835,1818.35
181924,1819.24
182011,1820.11
182095,1820.95
182175,1821.75
182255,1822.55
182335,1823.35
182416,1824.16
182490,1824.9
182565,1825.65
182658,1826.58
182751,1827.51
182837,1828.37
182927,1829.27
183019,1830.19
183113,1831.13
183208,1832.08
183300,1833.0
183393,1833.93
183486,1834.86
183579,1835.79
183675,1836.75
183771,1837.71
183871,1838.71
183974,1839.74
184080,1840.8
184188,1841.88
184297,1842.97
184407,1844.07
184517,1845.17
184621,1846.21
184722,1847.22
184828,1848.28
184940,1849.4
185059,1850.59
185183,1851.83
185297,1852.97
185411,1854.11
185551,1855.51
185691,1856.91
185817,1858.17
185938,1859.38
186061,1860.61
186187,1861.87
186294,1862.94
186408,1864.08
186534,1865.34
186645,1866.45
186748,1867.48
186845,1868.45
186941,1869.41
187026,1870.26
187110,1871.1
187191,1871.91
187271,1872.71
187348,1873.48
187425,1874.25
187502,1875.02
187580,1875.8
187660,1876.6
187739,1877.39
187820,1878.2
187902,1879.02
187986,1879.86
188074,1880.74
188164,1881.64
188257,1882.57
188350,1883.5
188444,1884.44
188538,1885.38
188631,1886.31
188724,1887.24
188815,1888.15
188906,1889.06
188999,1889.99
189092,1890.92
189186,1891.86
189284,1892.84
189388,1893.88
189495,1894.95
189607,1896.07
189714,1897.14
189819,1898.19
189938,1899.38
190067,1900.67
190202,1902.02
190327,1903.27
190452,1904.52
190598,1905.98
190745,1907.45
190867,1908.67
190983,1909.83
191104,1911.04
191215,1912.15
191327,1913.27
191442,1914.42
191551,1915.51
191647,1916.47
191739,1917.39
191828,1918.28
191910,1919.1
191990,1919.9
192070,1920.7
192149,1921.49
192229,1922.29
192311,1923.11
192393,1923.93
192476,1924.76
192560,1925.6
192647,1926.47
192736,1927.36
192826,1928.26
192917,1929.17
193009,1930.09
193101,1931.01
193195,1931.95
193289,1932.89
193385,1933.85
193481,1934.81
193578,1935.78
193677,1936.77
193778,1937.78
193880,1938.8
193982,1939.82
194086,1940.86
194186,1941.86
194283,1942.83
194385,1943.85
194495,1944.95
194611,1946.11
194729,1947.29
194840,1948.4
194957,1949.57
195090,1950.9
195224,1952.24
195357,1953.57
195490,1954.9
195622,1956.22
195755,1957.55
195878,1958.78
195948,1959.48
196018,1960.18
196091,1960.91
196165,1961.65
196269,1962.69
196374,1963.74
196459,1964.59
196542,1965.42
196619,1966.19
196694,1966.94
196771,1967.71
196848,1968.48
196926,1969.26
197006,1970.06
197088,1970.88
197173,1971.73
197259,1972.59
197348,1973.48
197437,1974.37
197527,1975.27
197617,1976.17
197709,1977.09
197802,1978.02
197898,1978.98
197996,1979.96
198096,1980.96
198198,1981.98
198301,1983.01
198405,1984.05
198508,1985.08
198612,1986.12
198717,1987.17
198824,1988.24
198930,1989.3
199039,1990.39
199152,1991.52
199267,1992.67
199388,1993.88
199513,1995.13
199620,1996.2
199728,1997.28
199846,1998.46
199975,1999.75
200110,2001.1
200246,2002.46
200373,2003.73
200508,2005.08
200644,2006.44
200769,2007.69
200893,2008.93
201002,2010.02
201109,2011.09
201221,2012.21
201316,2013.16
201413,2014.13
201503,2015.03
201588,2015.88
201672,2016.72
201756,2017.56
201836,2018.36
201915,2019.15
201996,2019.96
202079,2020.79
202163,2021.63
202250,2022.5
202340,2023.4
202432,2024.32
202527,2025.27
202622,2026.22
202716,2027.16
202811,2028.11
202906,2029.06
203001,2030.01
203094,2030.94
203186,2031.86
203278,2032.78
203372,2033.72
203471,2034.71
203574,2035.74
203679,2036.79
203788,2037.88
203902,2039.02
204016,2040.16
204132,2041.32
204246,2042.46
204359,2043.59
204486,2044.86
204627,2046.27
204768,2047.68
204898,2048.98
205029,2050.29
205192,2051.92
205355,2053.55
205508,2055.08
205633,2056.33
205755,2057.55
205872,2058.72
205994,2059.94
206116,2061.16
206229,2062.29
206324,2063.24
206419,2064.19
206509,2065.09
206592,2065.92
206673,2066.73
206754,2067.54
206836,2068.36
206919,2069.19
207004,2070.04
207089,2070.89
207175,2071.75
207265,2072.65
207357,2073.57
207451,2074.51
207547,2075.47
207643,2076.43
207739,2077.39
207836,2078.36
207933,2079.33
208032,2080.32
208131,2081.31
208233,2082.33
208337,2083.37
208441,2084.41
208547,2085.47
208654,2086.54
208760,2087.6
208868,2088.68
208980,2089.8
209096,2090.96
209210,2092.1
209319,2093.19
209436,2094.36
209570,2095.7
209713,2097.13
209858,2098.58
209986,2099.86
210115,2101.15
210278,2102.78
210441,2104.41
210569,2105.69
210691,2106.91
210837,2108.37
210959,2109.59
211082,2110.82
211189,2111.89
211298,2112.98
211395,2113.95
211487,2114.87
211577,2115.77
211665,2116.65
211747,2117.47
211829,2118.29
211884,2118.84
211984,2119.84
212084,2120.84
212171,2121.71
212261,2122.61
212353,2123.53
212446,2124.46
212541,2125.41
212639,2126.39
212738,2127.38
212838,2128.38
212938,2129.38
213038,2130.38
213140,2131.4
213243,2132.43
213350,2133.5
213463,2134.63
213576,2135.76
213688,2136.88
213799,2137.99
213918,2139.18
214039,2140.39
214151,2141.51
214261,2142.61
214383,2143.83
214514,2145.14
214644,2146.44
214760,2147.6
214888,2148.88
215055,2150.55
215222,2152.22
215360,2153.6
215474,2154.74
215596,2155.96
215705,2157.05
215811,2158.11
215918,2159.18
216011,2160.11
216101,2161.01
216188,2161.88
216272,2162.72
216351,2163.51
216431,2164.31
216511,2165.11
216592,2165.92
216671,2166.71
216749,2167.49
216830,2168.3
216913,2169.13
217000,2170.0
217088,2170.88
217180,2171.8
217276,2172.76
217374,2173.74
217472,2174.72
217570,2175.7
217669,2176.69
217768,2177.68
217867,2178.67
217967,2179.67
218066,2180.66
218165,2181.65
218264,2182.64
218364,2183.64
218465,2184.65
218569,2185.69
218673,2186.73
218778,2187.78
218878,2188.78
218976,2189.76
219082,2190.82
219200,2192.0
219326,2193.26
219446,2194.46
219563,2195.63
219706,2197.06
219843,2198.43
219991,2199.91
220140,2201.4
220287,2202.87
220435,2204.35
220581,2205.81
220727,2207.27
220838,2208.38
220940,2209.4
221046,2210.46
221150,2211.5
221243,2212.43
221332,2213.32
221414,2214.14
221494,2214.94
221573,2215.73
221652,2216.52
221729,2217.29
221806,2218.06
221885,2218.85
221965,2219.65
222047,2220.47
222131,2221.31
222217,2222.17
222306,2223.06
222396,2223.96
222488,2224.88
222581,2225.81
222674,2226.74
222766,2227.66
222859,2228.59
222951,2229.51
223045,2230.45
223140,2231.4
223239,2232.39
223339,2233.39
223441,2234.41
223548,2235.48
223657,2236.57
223769,2237.69
223886,2238.86
224000,2240.0
224111,2241.11
224228,2242.28
224354,2243.54
224487,2244.87
224619,2246.19
224738,2247.38
224858,2248.58
225007,2250.07
225156,2251.56
225298,2252.98
225441,2254.41
225590,2255.9
225726,2257.26
225863,2258.63
225975,2259.75
226095,2260.95
226215,2262.15
226319,2263.19
226422,2264.22
226510,2265.1
226598,2265.98
226691,2266.91
226785,2267.85
226863,2268.63
226938,2269.38
227014,2270.14
227088,2270.88
227164,2271.64
227240,2272.4
227314,2273.14
227390,2273.9
227469,2274.69
227549,2275.49
227633,2276.33
227720,2277.2
227809,2278.09
227901,2279.01
227996,2279.96
228093,2280.93
228194,2281.94
228295,2282.95
228395,2283.95
228496,2284.96
228598,2285.98
228700,2287.0
228806,2288.06
228914,2289.14
229021,2290.21
229127,2291.27
229235,2292.35
229344,2293.44
229448,2294.48
229554,2295.54
229666,2296.66
229785,2297.85
229909,2299.09
230023,2300.23
230142,2301.42
230292,2302.92
230443,2304.43
230572,2305.72
230709,2307.09
230830,2308.3
230951,2309.51
231068,2310.68
231186,2311.86
231294,2312.94
231395,2313.95
231485,2314.85
231573,2315.73
231657,2316.57
231736,2317.36
231814,2318.14
231892,2318.92
231972,2319.72
232052,2320.52
232136,2321.36
232222,2322.22
232311,2323.11
232403,2324.03
232496,2324.96
232589,2325.89
232684,2326.84
232779,2327.79
232873,2328.73
232968,2329.68
233063,2330.63
233157,2331.57
233250,2332.5
233345,2333.45
233440,2334.4
233536,2335.36
233633,2336.33
233734,2337.34
233836,2338.36
233941,2339.41
234050,2340.5
234163,2341.63
234279,2342.79
234400,2344.0
234511,2345.11
234623,2346.23
234749,2347.49
234887,2348.87
235022,2350.22
235148,2351.48
235295,2352.95
235461,2354.61
235628,2356.28
235757,2357.57
235876,2358.76
236007,2360.07
236119,2361.19
236232,2362.32
236337,2363.37
236442,2364.42
236535,2365.35
236626,2366.26
236715,2367.15
236798,2367.98
236878,2368.78
236959,2369.59
237039,2370.39
237120,2371.2
237204,2372.04
237292,2372.92
237383,2373.83
237478,2374.78
237578,2375.78
237680,2376.8
237784,2377.84
237891,2378.91
237998,2379.98
238104,2381.04
238210,2382.1
238313,2383.13
238412,2384.12
238511,2385.11
238608,2386.08
238705,2387.05
238801,2388.01
238900,2389.0
239002,2390.02
239106,2391.06
239208,2392.08
239308,2393.08
239414,2394.14
239529,2395.29
239651,2396.51
239767,2397.67
239885,2398.85
240022,2400.22
240168,2401.68
240313,2403.13
240437,2404.37
240561,2405.61
240709,2407.09
240858,2408.58
240981,2409.81
241096,2410.96
241217,2412.17
241320,2413.2
241439,2414.39
241560,2415.6
241683,2416.83
241783,2417.83
241880,2418.8
241969,2419.69
242051,2420.51
242133,2421.33
242213,2422.13
242293,2422.93
242372,2423.72
242451,2424.51
242532,2425.32
242616,2426.16
242702,2427.02
242791,2427.91
242885,2428.85
242981,2429.81
243079,2430.79
243176,2431.76
243272,2432.72
243367,2433.67
243463,2434.63
243560,2435.6
243657,2436.57
243759,2437.59
243868,2438.68
243976,2439.76
244086,2440.86
244196,2441.96
244308,2443.08
244424,2444.24
244541,2445.41
244649,2446.49
244755,2447.55
244870,2448.7
245001,2450.01
245132,2451.32
245257,2452.57
245373,2453.73
245490,2454.9
245644,2456.44
245799,2457.99
245924,2459.24
246046,2460.46
246167,2461.67
246284,2462.84
246405,2464.05
246516,2465.16
246628,2466.28
246724,2467.24
246815,2468.15
246903,2469.03
246989,2469.89
247073,2470.73
247156,2471.56
247239,2472.39
247324,2473.24
247411,2474.11
247501,2475.01
247590,2475.9
247681,2476.81
247773,2477.73
247866,2478.66
247961,2479.61
248055,2480.55
248150,2481.5
248245,2482.45
248340,2483.4
248436,2484.36
248530,2485.3
248624,2486.24
248718,2487.18
248811,2488.11
248906,2489.06
249002,2490.02
249102,2491.02
249201,2492.01
249302,2493.02
249406,2494.06
249514,2495.14
249624,2496.24
249735,2497.35
249843,2498.43
249951,2499.51
250067,2500.67
250197,2501.97
250328,2503.28
250451,2504.51
250567,2505.67
250690,2506.9
250839,2508.39
250989,2509.89
251107,2511.07
251230,2512.3
251345,2513.45
251461,2514.61
251569,2515.69
251678,2516.78
251791,2517.91
251896,2518.96
251994,2519.94
252082,2520.82
252171,2521.71
252257,2522.57
252339,2523.39
252420,2524.2
252501,2525.01
252583,2525.83
252666,2526.66
252748,2527.48
252829,2528.29
252909,2529.09
252989,2529.89
253072,2530.72
253159,2531.59
253248,2532.48
253341,2533.41
253437,2534.37
253534,2535.34
253633,2536.33
253732,2537.32
253832,2538.32
253933,2539.33
254034,2540.34
254138,2541.38
254245,2542.45
254352,2543.52
254459,2544.59
254569,2545.69
254681,2546.81
254796,2547.96
254914,2549.14
255025,2550.25
255138,2551.38
255255,2552.55
255386,2553.86
255517,2555.17
255638,2556.38
255759,2557.59
255910,2559.1
256062,2560.62
256189,2561.89
256321,2563.21
256436,2564.36
256552,2565.52
256657,2566.57
256762,2567.62
256874,2568.74
256967,2569.67
257062,2570.62
257151,2571.51
257238,2572.38
257321,2573.21
257400,2574.0
257477,2574.77
257553,2575.53
257630,2576.3
257708,2577.08
257789,2577.89
257872,2578.72
257959,2579.59
258049,2580.49
258143,2581.43
258237,2582.37
258333,2583.33
258429,2584.29
258526,2585.26
258623,2586.23
258720,2587.2
258817,2588.17
258914,2589.14
259012,2590.12
259112,2591.12
259214,2592.14
259318,2593.18
259423,2594.23
259527,2595.27
259626,2596.26
259724,2597.24
259834,2598.34
259953,2599.53
260075,2600.75
260187,2601.87
260304,2603.04
260435,2604.35
260573,2605.73
260712,2607.12
260836,2608.36
260961,2609.61
261116,2611.16
261271,2612.71
261387,2613.87
261510,2615.1
261621,2616.21
261733,2617.33
261846,2618.46
261942,2619.42
262033,2620.33
262121,2621.21
262205,2622.05
262284,2622.84
262360,2623.6
262436,2624.36
262509,2625.09
262582,2625.82
262658,2626.58
262734,2627.34
262814,2628.14
262897,2628.97
262981,2629.81
263066,2630.66
263152,2631.52
263239,2632.39
263327,2633.27
263415,2634.15
263503,2635.03
263590,2635.9
263679,2636.79
263768,2637.68
263857,2638.57
263947,2639.47
264038,2640.38
264131,2641.31
264224,2642.24
264319,2643.19
264415,2644.15
264511,2645.11
264610,2646.1
264710,2647.1
264808,2648.08
264907,2649.07
265015,2650.15
265134,2651.34
265258,2652.58
265383,2653.83
265497,2654.97
265611,2656.11
265743,2657.43
265876,2658.76
265987,2659.87
266104,2661.04
266217,2662.17
266327,2663.27
266440,2664.4
266556,2665.56
266664,2666.64
266759,2667.59
266848,2668.48
266932,2669.32
267014,2670.14
267096,2670.96
267177,2671.77
267260,2672.6
267345,2673.45
267426,2674.26
267507,2675.07
267591,2675.91
267677,2676.77
267766,2677.66
267858,2678.58
267952,2679.52
268048,2680.48
268148,2681.48
268249,2682.49
268350,2683.5
268451,2684.51
268553,2685.53
268656,2686.56
268759,2687.59
268865,2688.65
268974,2689.74
269084,2690.84
269193,2691.93
269304,2693.04
269417,2694.17
269523,2695.23
269631,2696.31
269737,2697.37
269842,2698.42
269944,2699.44
270046,2700.46
270155,2701.55
270273,2702.73
270392,2703.92
270503,2705.03
270615,2706.15
270741,2707.41
270868,2708.68
270983,2709.83
271089,2710.89
271190,2711.9
271292,2712.92
271401,2714.01
271507,2715.07
271617,2716.17
271727,2717.27
271829,2718.29
271928,2719.28
272017,2720.17
272102,2721.02
272186,2721.86
272269,2722.69
272348,2723.48
272428,2724.28
272509,2725.09
272593,2725.93
272678,2726.78
272765,2727.65
272853,2728.53
272942,2729.42
273034,2730.34
273126,2731.26
273218,2732.18
273308,2733.08
273398,2733.98
273488,2734.88
273579,2735.79
273671,2736.71
273765,2737.65
273862,2738.62
273964,2739.64
274069,2740.69
274177,2741.77
274285,2742.85
274392,2743.92
274502,2745.02
274608,2746.08
274712,2747.12
274825,2748.25
274942,2749.42
275062,2750.62
275177,2751.77
275298,2752.98
275443,2754.43
275588,2755.88
275718,2757.18
275848,2758.48
275987,2759.87
276119,2761.19
276239,2762.39
276353,2763.53
276475,2764.75
276584,2765.84
276685,2766.85
276796,2767.96
276899,2768.99
276994,2769.94
277085,2770.85
277168,2771.68
277248,2772.48
277329,2773.29
277407,2774.07
277483,2774.83
277557,2775.57
277632,2776.32
277709,2777.09
277790,2777.9
277874,2778.74
277962,2779.62
278054,2780.54
278147,2781.47
278240,2782.4
278332,2783.32
278423,2784.23
278515,2785.15
278607,2786.07
278700,2787.0
278796,2787.96
278894,2788.94
278994,2789.94
279095,2790.95
279197,2791.97
279300,2793.0
279400,2794.0
279502,2795.02
279607,2796.07
279716,2797.16
279827,2798.27
279939,2799.39
280044,2800.44
280147,2801.47
280257,2802.57
280379,2803.79
280502,2805.02
280617,2806.17
280733,2807.33
280875,2808.75
281026,2810.26
281178,2811.78
281314,2813.14
281451,2814.51
281583,2815.83
281720,2817.2
281843,2818.43
281967,2819.67
282080,2820.8
282189,2821.89
282292,2822.92
282382,2823.82
282470,2824.7
282555,2825.55
282635,2826.35
282712,2827.12
282790,2827.9
282868,2828.68
282946,2829.46
283024,2830.24
283103,2831.03
283185,2831.85
283271,2832.71
283360,2833.6
283452,2834.52
283543,2835.43
283635,2836.35
283727,2837.27
283819,2838.19
283913,2839.13
284009,2840.09
284105,2841.05
284202,2842.02
284299,2842.99
284397,2843.97
284494,2844.94
284591,2845.91
284690,2846.9
284793,2847.93
284898,2848.98
285001,2850.01
285107,2851.07
285215,2852.15
285324,2853.24
285431,2854.31
285534,2855.34
285645,2856.45
285762,2857.62
285882,2858.82
285993,2859.93
286105,2861.05
286253,2862.53
286396,2863.96
286548,2865.48
286694,2866.94
286814,2868.14
286940,2869.4
287053,2870.53
287161,2871.61
287275,2872.75
287381,2873.81
287492,2874.92
287587,2875.87
287682,2876.82
287776,2877.76
287861,2878.61
287942,2879.42
288023,2880.23
288103,2881.03
288185,2881.85
288266,2882.66
288350,2883.5
288439,2884.39
288531,2885.31
288627,2886.27
288727,2887.27
288829,2888.29
288932,2889.32
289039,2890.39
289146,2891.46
289252,2892.52
289359,2893.59
289464,2894.64
289566,2895.66
289667,2896.67
289767,2897.67
289868,2898.68
289971,2899.71
290076,2900.76
290183,2901.83
290292,2902.92
290404,2904.04
290511,2905.11
290622,2906.22
290739,2907.39
290867,2908.67
290991,2909.91
291109,2911.09
291235,2912.35
291381,2913.81
291527,2915.27
291664,2916.64
291802,2918.02
291976,2919.76
292151,2921.51
292312,2923.12
292430,2924.3
292555,2925.55
292670,2926.7
292776,2927.76
292883,2928.83
292991,2929.91
293087,2930.87
293178,2931.78
293264,2932.64
293344,2933.44
293422,2934.22
293499,2934.99
293577,2935.77
293655,2936.55
293732,2937.32
293811,2938.11
293888,2938.88
293964,2939.64
294040,2940.4
294116,2941.16
294192,2941.92
294269,2942.69
294349,2943.49
294433,2944.33
294520,2945.2
294611,2946.11
294705,2947.05
294800,2948.0
294898,2948.98
294996,2949.96
295094,2950.94
295194,2951.94
295296,2952.96
295400,2954.0
295504,2955.04
295610,2956.1
295719,2957.19
295830,2958.3
295942,2959.42
296054,2960.54
296161,2961.61
296263,2962.63
296363,2963.63
296473,2964.73
296602,2966.02
296731,2967.31
296854,2968.54
296978,2969.78
297129,2971.29
297281,2972.81
297428,2974.28
297553,2975.53
297683,2976.83
297805,2978.05
297920,2979.2
298028,2980.28
298131,2981.31
298239,2982.39
298337,2983.37
298424,2984.24
298510,2985.1
298593,2985.93
298673,2986.73
298752,2987.52
298831,2988.31
298909,2989.09
298985,2989.85
299064,2990.64
299147,2991.47
299234,2992.34
299325,2993.25
299420,2994.2
299519,2995.19
299619,2996.19
299720,2997.2
299822,2998.22
299924,2999.24
300026,3000.26
300129,3001.29
300231,3002.31
300334,3003.34
300438,3004.38
300544,3005.44
300651,3006.51
300759,3007.59
300872,3008.72
300985,3009.85
301091,3010.91
301194,3011.94
301302,3013.02
301427,3014.27
301560,3015.6
301681,3016.81
301810,3018.1
301959,3019.59
302108,3021.08
302242,3022.42
302386,3023.86
302519,3025.19
302635,3026.35
302759,3027.59
302866,3028.66
302976,3029.76
303103,3031.03
303221,3032.21
303329,3033.29
303419,3034.19
303507,3035.07
303589,3035.89
303665,3036.65
303741,3037.41
303817,3038.17
303892,3038.92
303968,3039.68
304043,3040.43
304121,3041.21
304202,3042.02
304285,3042.85
304372,3043.72
304461,3044.61
304553,3045.53
304646,3046.46
304740,3047.4
304835,3048.35
304931,3049.31
305028,3050.28
305126,3051.26
305224,3052.24
305323,3053.23
305422,3054.22
305520,3055.2
305616,3056.16
305714,3057.14
305813,3058.13
305917,3059.17
306025,3060.25
306130,3061.3
306236,3062.36
306348,3063.48
306467,3064.67
306594,3065.94
306730,3067.3
306853,3068.53
306974,3069.74
307116,3071.16
307258,3072.58
307380,3073.8
307503,3075.03
307635,3076.35
307741,3077.41
307848,3078.48
307962,3079.62
308076,3080.76
308170,3081.7
308256,3082.56
308338,3083.38
308417,3084.17
308493,3084.93
308568,3085.68
308645,3086.45
308722,3087.22
308801,3088.01
308880,3088.8
308961,3089.61
309046,3090.46
309134,3091.34
309226,3092.26
309320,3093.2
309415,3094.15
309510,3095.1
309605,3096.05
309699,3096.99
309795,3097.95
309892,3098.92
309990,3099.9
310089,3100.89
310191,3101.91
310296,3102.96
310402,3104.02
310510,3105.1
310620,3106.2
310736,3107.36
310847,3108.47
310955,3109.55
311072,3110.72
311199,3111.99
311325,3113.25
311449,3114.49
311566,3115.66
311684,3116.84
311819,3118.19
311955,3119.55
312073,3120.73
312194,3121.94
312321,3123.21
312438,3124.38
312548,3125.48
312666,3126.66
312772,3127.72
312863,3128.63
312950,3129.5
313033,3130.33
313115,3131.15
313197,3131.97
313279,3132.79
313361,3133.61
313439,3134.39
313518,3135.18
313599,3135.99
313682,3136.82
313769,3137.69
313857,3138.57
313946,3139.46
314036,3140.36
314125,3141.25
314216,3142.16
314307,3143.07
314399,3143.99
314489,3144.89
314578,3145.78
314668,3146.68
314760,3147.6
314853,3148.53
314949,3149.49
315045,3150.45
315144,3151.44
315246,3152.46
315352,3153.52
315460,3154.6
315569,3155.69
315680,3156.8
315786,3157.86
315894,3158.94
316010,3160.1
316132,3161.32
316254,3162.54
316367,3163.67
316486,3164.86
316621,3166.21
316764,3167.64
316899,3168.99
317013,3170.13
317126,3171.26
317248,3172.48
317356,3173.56
317465,3174.65
317577,3175.77
317690,3176.9
317788,3177.88
317881,3178.81
317966,3179.66
318047,3180.47
318129,3181.29
318210,3182.1
318288,3182.88
318366,3183.66
318446,3184.46
318527,3185.27
318613,3186.13
318701,3187.01
318795,3187.95
318892,3188.92
318992,3189.92
319091,3190.91
319192,3191.92
319293,3192.93
319393,3193.93
319494,3194.94
319595,3195.95
319697,3196.97
319802,3198.02
319908,3199.08
320010,3200.1
320110,3201.1
320211,3202.11
320311,3203.11
320412,3204.12
320522,3205.22
320641,3206.41
320759,3207.59
320874,3208.74
321005,3210.05
321149,3211.49
321299,3212.99
321440,3214.4
321571,3215.71
321706,3217.06
321843,3218.43
321981,3219.81
322085,3220.85
322189,3221.89
322303,3223.03
322418,3224.18
322523,3225.23
322633,3226.33
322730,3227.3
322827,3228.27
322917,3229.17
323000,3230.0
323083,3230.83
323163,3231.63
323242,3232.42
323319,3233.19
323397,3233.97
323474,3234.74
323549,3235.49
323625,3236.25
323703,3237.03
323783,3237.83
323867,3238.67
323955,3239.55
324046,3240.46
324139,3241.39
324231,3242.31
324323,3243.23
324416,3244.16
324510,3245.1
324605,3246.05
324698,3246.98
324792,3247.92
324886,3248.86
324977,3249.77
325065,3250.65
325154,3251.54
325248,3252.48
325347,3253.47
325451,3254.51
325562,3255.62
325673,3256.73
325780,3257.8
325891,3258.91
326009,3260.09
326130,3261.3
326248,3262.48
326357,3263.57
326471,3264.71
326592,3265.92
326705,3267.05
326813,3268.13
326939,3269.39
327065,3270.65
327187,3271.87
327293,3272.93
327404,3274.04
327496,3274.96
327582,3275.82
327666,3276.66
327745,3277.45
327824,3278.24
327902,3279.02
327982,3279.82
328063,3280.63
328145,3281.45
328230,3282.3
328317,3283.17
328406,3284.06
328498,3284.98
328590,3285.9
328682,3286.82
328774,3287.74
328867,3288.67
328960,3289.6
329052,3290.52
329144,3291.44
329233,3292.33
329321,3293.21
329409,3294.09
329496,3294.96
329585,3295.85
329675,3296.75
329766,3297.66
329860,3298.6
329955,3299.55
330051,3300.51
330148,3301.48
330247,3302.47
330346,3303.46
330447,3304.47
330550,3305.5
330658,3306.58
330763,3307.63
330865,3308.65
330980,3309.8
331102,3311.02
331230,3312.3
331357,3313.57
331467,3314.67
331572,3315.72
331683,3316.83
331801,3318.01
331905,3319.05
332010,3320.1
332124,3321.24
332238,3322.38
332347,3323.47
332466,3324.66
332565,3325.65
332660,3326.6
332750,3327.5
332832,3328.32
332912,3329.12
332992,3329.92
333071,3330.71
333148,3331.48
333226,3332.26
333305,3333.05
333387,3333.87
333471,3334.71
333558,3335.58
333649,3336.49
333743,3337.43
333838,3338.38
333936,3339.36
334033,3340.33
334131,3341.31
334228,3342.28
334324,3343.24
334421,3344.21
334517,3345.17
334614,3346.14
334711,3347.11
334807,3348.07
334901,3349.01
334995,3349.95
335089,3350.89
335183,3351.83
335283,3352.83
335389,3353.89
335497,3354.97
335607,3356.07
335717,3357.17
335824,3358.24
335929,3359.29
336044,3360.44
336168,3361.68
336293,3362.93
336410,3364.1
336528,3365.28
336672,3366.72
336816,3368.16
336946,3369.46
337059,3370.59
337181,3371.81
337302,3373.02
337414,3374.14
337526,3375.26
337642,3376.42
337752,3377.52
337844,3378.44
337932,3379.32
338018,3380.18
338097,3380.97
338176,3381.76
338254,3382.54
338333,3383.33
338412,3384.12
338491,3384.91
338570,3385.7
338652,3386.52
338735,3387.35
338819,3388.19
338901,3389.01
338981,3389.81
339061,3390.61
339143,3391.43
339226,3392.26
339312,3393.12
339402,3394.02
339494,3394.94
339588,3395.88
339684,3396.84
339781,3397.81
339880,3398.8
339982,3399.82
340082,3400.82
340183,3401.83
340284,3402.84
340391,3403.91
340501,3405.01
340612,3406.12
340723,3407.23
340839,3408.39
340965,3409.65
341099,3410.99
341227,3412.27
341338,3413.38
341450,3414.5
341577,3415.77
341705,3417.05
341823,3418.23
341940,3419.4
342066,3420.66
342174,3421.74
342282,3422.82
342385,3423.85
342481,3424.81
342576,3425.76
342662,3426.62
342744,3427.44
342827,3428.27
342907,3429.07
342985,3429.85
343063,3430.63
343142,3431.42
343222,3432.22
343306,3433.06
343393,3433.93
343484,3434.84
343580,3435.8
343679,3436.79
343780,3437.8
343882,3438.82
343984,3439.84
344086,3440.86
344187,3441.87
344289,3442.89
344387,3443.87
344482,3444.82
344580,3445.8
344678,3446.78
344778,3447.78
344878,3448.78
344978,3449.78
345078,3450.78
345179,3451.79
345283,3452.83
345385,3453.85
345483,3454.83
345586,3455.86
345700,3457.0
345828,3458.28
345956,3459.56
346074,3460.74
346193,3461.93
346335,3463.35
346477,3464.77
346617,3466.17
346737,3467.37
346852,3468.52
346966,3469.66
347081,3470.81
347192,3471.92
347306,3473.06
347423,3474.23
347532,3475.32
347629,3476.29
347722,3477.22
347812,3478.12
347897,3478.97
347977,3479.77
348057,3480.57
348137,3481.37
348217,3482.17
348295,3482.95
348375,3483.75
348457,3484.57
348542,3485.42
348629,3486.29
348721,3487.21
348816,3488.16
348913,3489.13
349012,3490.12
349113,3491.13
349216,3492.16
349319,3493.19
349422,3494.22
349524,3495.24
349627,3496.27
349730,3497.3
349829,3498.29
349927,3499.27
350027,3500.27
350127,3501.27
350227,3502.27
350328,3503.28
350433,3504.33
350537,3505.37
350640,3506.4
350749,3507.49
350865,3508.65
350988,3509.88
351116,3511.16
351244,3512.44
351369,3513.69
351517,3515.17
351665,3516.65
351805,3518.05
351915,3519.15
352026,3520.26
352140,3521.4
352254,3522.54
352362,3523.62
352478,3524.78
352577,3525.77
352678,3526.78
352777,3527.77
352865,3528.65
352949,3529.49
353033,3530.33
353115,3531.15
353196,3531.96
353275,3532.75
353356,3533.56
353438,3534.38
353521,3535.21
353606,3536.06
353693,3536.93
353782,3537.82
353872,3538.72
353963,3539.63
354054,3540.54
354145,3541.45
354236,3542.36
354328,3543.28
354422,3544.22
354518,3545.18
354616,3546.16
354717,3547.17
354821,3548.21
354926,3549.26
355035,3550.35
355146,3551.46
355260,3552.6
355370,3553.7
355480,3554.8
355603,3556.03
355732,3557.32
355856,3558.56
355969,3559.69
356078,3560.78
356196,3561.96
356332,3563.32
356459,3564.59
356580,3565.8
356725,3567.25
356876,3568.76
357022,3570.22
357164,3571.64
357326,3573.26
357488,3574.88
357616,3576.16
357750,3577.5
357867,3578.67
357984,3579.84
358091,3580.91
358195,3581.95
358285,3582.85
358364,3583.64
358442,3584.42
358515,3585.15
358586,3585.86
358656,3586.56
358724,3587.24
358792,3587.92
358861,3588.61
358930,3589.3
358999,3589.99
359068,3590.68
359136,3591.36
359205,3592.05
359275,3592.75
359345,3593.45
359416,3594.16
359482,3594.82
359548,3595.48
359625,3596.25
359703,3597.03
359774,3597.74
359844,3598.44
359913,3599.13
359981,3599.81
360050,3600.5
360119,3601.19
360189,3601.89
360262,3602.62
360337,3603.37
360415,3604.15
360496,3604.96
360580,3605.8
360665,3606.65
360750,3607.5
360834,3608.34
360916,3609.16
360999,3609.99
361081,3610.81
361165,3611.65
361250,3612.5
361333,3613.33
361415,3614.15
361497,3614.97
361581,3615.81
361661,3616.61
361739,3617.39
361815,3618.15
361890,3618.9
361963,3619.63
362036,3620.36
362109,3621.09
362182,3621.82
362258,3622.58
362334,3623.34
362411,3624.11
362486,3624.86
362562,3625.62
362638,3626.38
362715,3627.15
362791,3627.91
362867,3628.67
362943,3629.43
363020,3630.2
363097,3630.97
363175,3631.75
363254,3632.54
363332,3633.32
363410,3634.1
363483,3634.83
363555,3635.55
363626,3636.26
363696,3636.96
363766,3637.66
363837,3638.37
363914,3639.14
363990,3639.9
364073,3640.73
364152,3641.52
364228,3642.28
364302,3643.02
364373,3643.73
364444,3644.44
364514,3645.14
364585,3645.85
364655,3646.55
364725,3647.25
364795,3647.95
364865,3648.65
364937,3649.37
365010,3650.1
365085,3650.85
365163,3651.63
365240,3652.4
365318,3653.18
365398,3653.98
365479,3654.79
365563,3655.63
365646,3656.46
365728,3657.28
365810,3658.1
365894,3658.94
365978,3659.78
366062,3660.62
366144,3661.44
366226,3662.26
366308,3663.08
366391,3663.91
366475,3664.75
366559,3665.59
366642,3666.42
366727,3667.27
366813,3668.13
366899,3668.99
366986,3669.86
367073,3670.73
367158,3671.58
367244,3672.44
367332,3673.32
367423,3674.23
367514,3675.14
367608,3676.08
367698,3676.98
367785,3677.85
367871,3678.71
367957,3679.57
368047,3680.47
368137,3681.37
368224,3682.24
368310,3683.1
368399,3683.99
368489,3684.89
368575,3685.75
368660,3686.6
368745,3687.45
368830,3688.3
368916,3689.16
368999,3689.99
369082,3690.82
369166,3691.66
369251,3692.51
369336,3693.36
369421,3694.21
369505,3695.05
369590,3695.9
369675,3696.75
369762,3697.62
369848,3698.48
369937,3699.37
370028,3700.28
370121,3701.21
370216,3702.16
370314,3703.14
370407,3704.07
370497,3704.97
370584,3705.84
370675,3706.75
370775,3707.75
370871,3708.71
370970,3709.7
371062,3710.62
371155,3711.55
371249,3712.49
371337,3713.37
371422,3714.22
371508,3715.08
371594,3715.94
371679,3716.79
371761,3717.61
371845,3718.45
371928,3719.28
372011,3720.11
372093,3720.93
372174,3721.74
372256,3722.56
372339,3723.39
372423,3724.23
372509,3725.09
372595,3725.95
372683,3726.83
372771,3727.71
372859,3728.59
372949,3729.49
373039,3730.39
373131,3731.31
373222,3732.22
373315,3733.15
373412,3734.12
373511,3735.11
373607,3736.07
373698,3736.98
373790,3737.9
373887,3738.87
373986,3739.86
374086,3740.86
374177,3741.77
374273,3742.73
374373,3743.73
374467,3744.67
374555,3745.55
374644,3746.44
374734,3747.34
374824,3748.24
374910,3749.1
374994,3749.94
375080,3750.8
375167,3751.67
375254,3752.54
375339,3753.39
375423,3754.23
375510,3755.1
375595,3755.95
375680,3756.8
375765,3757.65
375849,3758.49
375933,3759.33
376017,3760.17
376103,3761.03
376191,3761.91
376276,3762.76
376363,3763.63
376452,3764.52
376544,3765.44
376639,3766.39
376734,3767.34
376826,3768.26
376920,3769.2
377017,3770.17
377116,3771.16
377211,3772.11
377300,3773.0
377387,3773.87
377475,3774.75
377565,3775.65
377652,3776.52
377738,3777.38
377829,3778.29
377923,3779.23
378018,3780.18
378109,3781.09
378199,3781.99
378290,3782.9
378382,3783.82
378476,3784.76
378572,3785.72
378667,3786.67
378760,3787.6
378849,3788.49
378940,3789.4
379031,3790.31
379121,3791.21
379212,3792.12
379303,3793.03
379397,3793.97
379494,3794.94
379598,3795.98
379703,3797.03
379804,3798.04
379901,3799.01
380003,3800.03
380109,3801.09
380219,3802.19
380321,3803.21
380416,3804.16
380515,3805.15
380614,3806.14
380708,3807.08
380796,3807.96
380882,3808.82
380967,3809.67
381054,3810.54
381137,3811.37
381219,3812.19
381302,3813.02
381386,3813.86
381472,3814.72
381559,3815.59
381644,3816.44
381732,3817.32
381822,3818.22
381913,3819.13
382004,3820.04
382093,3820.93
382185,3821.85
382276,3822.76
382367,3823.67
382456,3824.56
382545,3825.45
382636,3826.36
382728,3827.28
382825,3828.25
382924,3829.24
383024,3830.24
383121,3831.21
383220,3832.2
383319,3833.19
383410,3834.1
383502,3835.02
383597,3835.97
383698,3836.98
383799,3837.99
383894,3838.94
383987,3839.87
384085,3840.85
384186,3841.86
384286,3842.86
384379,3843.79
384468,3844.68
384559,3845.59
384651,3846.51
384740,3847.4
384827,3848.27
384913,3849.13
385000,3850.0
385088,3850.88
385177,3851.77
385263,3852.63
385349,3853.49
385438,3854.38
385525,3855.25
385611,3856.11
385695,3856.95
385779,3857.79
385864,3858.64
385952,3859.52
386041,3860.41
386132,3861.32
386224,3862.24
386319,3863.19
386415,3864.15
386511,3865.11
386605,3866.05
386696,3866.96
386788,3867.88
386880,3868.8
386972,3869.72
387066,3870.66
387161,3871.61
387262,3872.62
387361,3873.61
387459,3874.59
387555,3875.55
387643,3876.43
387727,3877.27
387813,3878.13
387903,3879.03
388000,3880.0
388096,3880.96
388189,3881.89
388286,3882.86
388385,3883.85
388486,3884.86
388581,3885.81
388675,3886.75
388771,3887.71
388869,3888.69
388964,3889.64
389055,3890.55
389150,3891.5
389244,3892.44
389339,3893.39
389431,3894.31
389523,3895.23
389617,3896.17
389711,3897.11
389806,3898.06
389902,3899.02
389997,3899.97
390091,3900.91
390188,3901.88
390285,3902.85
390378,3903.78
390469,3904.69
390560,3905.6
390654,3906.54
390752,3907.52
390851,3908.51
390948,3909.48
391042,3910.42
391140,3911.4
391243,3912.43
391347,3913.47
391447,3914.47
391544,3915.44
391647,3916.47
391750,3917.5
391853,3918.53
391950,3919.5
392045,3920.45
392141,3921.41
392240,3922.4
392337,3923.37
392430,3924.3
392522,3925.22
392617,3926.17
392715,3927.15
392813,3928.13
392907,3929.07
393004,3930.04
393099,3930.99
393196,3931.96
393291,3932.91
393386,3933.86
393483,3934.83
393580,3935.8
393676,3936.76
393769,3937.69
393860,3938.6
393953,3939.53
394048,3940.48
394145,3941.45
394243,3942.43
394338,3943.38
394435,3944.35
394534,3945.34
394633,3946.33
394728,3947.28
394821,3948.21
394915,3949.15
395010,3950.1
395105,3951.05
395199,3951.99
395291,3952.91
395381,3953.81
395473,3954.73
395562,3955.62
395649,3956.49
395735,3957.35
395820,3958.2
395909,3959.09
396001,3960.01
396097,3960.97
396188,3961.88
396277,3962.77
396367,3963.67
396458,3964.58
396549,3965.49
396638,3966.38
396730,3967.3
396812,3968.12
396895,3968.95
396995,3969.95
397096,3970.96
397188,3971.88
397283,3972.83
397380,3973.8
397477,3974.77
397572,3975.72
397668,3976.68
397766,3977.66
397863,3978.63
397961,3979.61
398055,3980.55
398149,3981.49
398245,3982.45
398344,3983.44
398442,3984.42
398536,3985.36
398626,3986.26
398717,3987.17
398812,3988.12
398907,3989.07
398997,3989.97
399086,3990.86
399175,3991.75
399266,3992.66
399357,3993.57
399447,3994.47
399535,3995.35
399624,3996.24
399716,3997.16
399810,3998.1
399901,3999.01
399991,3999.91
400083,4000.83
400177,4001.77
400274,4002.74
400371,4003.71
400468,4004.68
400564,4005.64
400661,4006.61
400757,4007.57
400851,4008.51
400942,4009.42
401035,4010.35
401129,4011.29
401225,4012.25
401323,4013.23
401417,4014.17
401509,4015.09
401604,4016.04
401701,4017.01
401799,4017.99
401895,4018.95
401987,4019.87
402084,4020.84
402180,4021.8
402277,4022.77
402371,4023.71
402463,4024.63
402557,4025.57
402651,4026.51
402742,4027.42
402831,4028.31
402918,4029.18
403008,4030.08
403099,4030.99
403190,4031.9
403279,4032.79
403366,4033.66
403453,4034.53
403542,4035.42
403632,4036.32
403723,4037.23
403812,4038.12
403904,4039.04
403996,4039.96
404091,4040.91
404187,4041.87
404280,4042.8
404373,4043.73
404468,4044.68
404563,4045.63
404656,4046.56
404750,4047.5
404846,4048.46
404941,4049.41
405037,4050.37
405132,4051.32
405227,4052.27
405322,4053.22
405418,4054.18
405516,4055.16
405612,4056.12
405708,4057.08
405803,4058.03
405894,4058.94
405987,4059.87
406078,4060.78
406171,4061.71
406259,4062.59
406346,4063.46
406434,4064.34
406521,4065.21
406609,4066.09
406698,4066.98
406783,4067.83
406866,4068.66
406948,4069.48
407031,4070.31
407114,4071.14
407197,4071.97
407280,4072.8
407364,4073.64
407451,4074.51
407540,4075.4
407628,4076.28
407714,4077.14
407801,4078.01
407888,4078.88
407975,4079.75
408062,4080.62
408147,4081.47
408231,4082.31
408316,4083.16
408402,4084.02
408489,4084.89
408575,4085.75
408661,4086.61
408749,4087.49
408836,4088.36
408924,4089.24
409013,4090.13
409101,4091.01
409188,4091.88
409276,4092.76
409362,4093.62
409449,4094.49
409536,4095.36
409623,4096.23
409708,4097.08
409795,4097.95
409883,4098.83
409969,4099.69
410054,4100.54
410137,4101.37
410219,4102.19
410303,4103.03
410388,4103.88
410475,4104.75
410560,4105.6
410644,4106.44
410730,4107.3
410818,4108.18
410908,4109.08
410997,4109.97
411084,4110.84
411171,4111.71
411258,4112.58
411344,4113.44
411430,4114.3
411517,4115.17
411602,4116.02
411686,4116.86
411771,4117.71
411856,4118.56
411942,4119.42
412026,4120.26
412109,4121.09
412192,4121.92
412277,4122.77
412363,4123.63
412449,4124.49
412535,4125.35
412618,4126.18
412703,4127.03
412787,4127.87
412871,4128.71
412956,4129.56
413039,4130.39
413122,4131.22
413207,4132.07
413292,4132.92
413379,4133.79
413466,4134.66
413553,4135.53
413641,4136.41
413731,4137.31
413821,4138.21
413910,4139.1
414000,4140.0
414089,4140.89
414179,4141.79
414266,4142.66
414352,4143.52
414439,4144.39
414526,4145.26
414612,4146.12
414697,4146.97
414782,4147.82
414870,4148.7
414961,4149.61
415052,4150.52
415140,4151.4
415226,4152.26
415312,4153.12
415398,4153.98
415483,4154.83
415567,4155.67
415648,4156.48
415730,4157.3
415812,4158.12
415893,4158.93
415972,4159.72
416051,4160.51
416129,4161.29
416209,4162.09
416288,4162.88
416367,4163.67
416445,4164.45
416522,4165.22
416599,4165.99
416676,4166.76
416753,4167.53
416830,4168.3
416906,4169.06
416982,4169.82
417058,4170.58
417134,4171.34
417211,4172.11
417287,4172.87
417363,4173.63
417439,4174.39
417515,4175.15
417591,4175.91
417667,4176.67
417743,4177.43
417818,4178.18
417893,4178.93
417968,4179.68
418043,4180.43
418119,4181.19
418195,4181.95
418271,4182.71
418348,4183.48
418424,4184.24
418501,4185.01
418577,4185.77
418654,4186.54
418730,4187.3
418805,4188.05
418881,4188.81
418957,4189.57
419032,4190.32
419107,4191.07
419181,4191.81
419255,4192.55
419330,4193.3
419403,4194.03
419477,4194.77
419552,4195.52
419626,4196.26
419700,4197.0
419773,4197.73
419847,4198.47
419921,4199.21
419994,4199.94
420068,4200.68
420141,4201.41
420214,4202.14
420287,4202.87
420360,4203.6
420434,4204.34
420507,4205.07
420579,4205.79
420652,4206.52
420725,4207.25
420797,4207.97
420870,4208.7
420943,4209.43
421017,4210.17
421091,4210.91
421165,4211.65
421240,4212.4
421316,4213.16
421391,4213.91
421466,4214.66
421542,4215.42
421618,4216.18
421693,4216.93
421768,4217.68
421844,4218.44
421921,4219.21
421999,4219.99
422076,4220.76
422153,4221.53
422230,4222.3
422306,4223.06
422381,4223.81
422457,4224.57
422533,4225.33
422609,4226.09
422686,4226.86
422762,4227.62
422839,4228.39
422917,4229.17
422996,4229.96
423075,4230.75
423154,4231.54
423232,4232.32
423310,4233.1
423388,4233.88
423466,4234.66
423543,4235.43
423620,4236.2
423696,4236.96
423772,4237.72
423848,4238.48
423924,4239.24
424001,4240.01
424077,4240.77
424153,4241.53
424228,4242.28
424303,4243.03
424379,4243.79
424455,4244.55
424530,4245.3
424605,4246.05
424679,4246.79
424753,4247.53
424828,4248.28
424901,4249.01
424975,4249.75
425048,4250.48
425121,4251.21
425194,4251.94
425267,4252.67
425340,4253.4
425413,4254.13
425486,4254.86
425560,4255.6
425633,4256.33
425707,4257.07
425780,4257.8
425855,4258.55
425929,4259.29
426003,4260.03
426078,4260.78
426152,4261.52
426226,4262.26
426302,4263.02
426377,4263.77
426451,4264.51
426526,4265.26
426600,4266.0
426674,4266.74
426749,4267.49
426823,4268.23
426898,4268.98
426972,4269.72
427047,4270.47
427121,4271.21
427197,4271.97
427271,4272.71
427346,4273.46
427421,4274.21
427496,4274.96
427571,4275.71
427646,4276.46
427721,4277.21
427797,4277.97
427873,4278.73
427948,4279.48
428023,4280.23
428098,4280.98
428172,4281.72
428247,4282.47
428322,4283.22
428397,4283.97
428471,4284.71
428546,4285.46
428620,4286.2
428694,4286.94
428768,4287.68
428843,4288.43
428917,4289.17
428990,4289.9
429064,4290.64
429138,4291.38
429211,4292.11
429284,4292.84
429358,4293.58
429432,4294.32
429505,4295.05
429579,4295.79
429652,4296.52
429726,4297.26
429799,4297.99
429873,4298.73
429948,4299.48
430023,4300.23
430098,4300.98
430174,4301.74
430249,4302.49
430325,4303.25
430401,4304.01
430476,4304.76
430550,4305.5
430625,4306.25
430700,4307.0
430775,4307.75
430851,4308.51
430927,4309.27
431004,4310.04
431079,4310.79
431153,4311.53
431228,4312.28
431303,4313.03
431378,4313.78
431454,4314.54
431529,4315.29
431605,4316.05
431681,4316.81
431757,4317.57
431834,4318.34
431910,4319.1
431988,4319.88
432066,4320.66
432143,4321.43
432220,4322.2
432297,4322.97
432373,4323.73
432449,4324.49
432525,4325.25
432601,4326.01
432676,4326.76
432751,4327.51
432826,4328.26
432901,4329.01
432976,4329.76
433052,4330.52
433127,4331.27
433203,4332.03
433278,4332.78
433355,4333.55
433431,4334.31
433508,4335.08
433584,4335.84
433660,4336.6
433736,4337.36
433812,4338.12
433888,4338.88
433964,4339.64
434039,4340.39
434114,4341.14
434188,4341.88
434264,4342.64
434339,4343.39
434415,4344.15
434490,4344.9
434565,4345.65
434641,4346.41
434716,4347.16
434791,4347.91
434865,4348.65
434939,4349.39
435014,4350.14
435088,4350.88
435162,4351.62
435236,4352.36
435311,4353.11
435386,4353.86
435460,4354.6
435535,4355.35
435610,4356.1
435685,4356.85
435760,4357.6
435835,4358.35
435911,4359.11
435986,4359.86
436063,4360.63
436139,4361.39
436215,4362.15
436290,4362.9
436365,4363.65
436440,4364.4
436515,4365.15
436590,4365.9
436665,4366.65
436740,4367.4
436815,4368.15
436890,4368.9
436965,4369.65
437040,4370.4
437115,4371.15
437189,4371.89
437263,4372.63
437336,4373.36
437409,4374.09
437482,4374.82
437554,4375.54
437626,4376.26
437697,4376.97
437768,4377.68
437838,4378.38
437910,4379.1
437981,4379.81
438052,4380.52
438123,4381.23
438189,4381.89
438256,4382.56
438342,4383.42
438414,4384.14
438485,4384.85
438557,4385.57
438628,4386.28
438699,4386.99
438769,4387.69
438841,4388.41
438912,4389.12
438984,4389.84
439056,4390.56
439128,4391.28
439201,4392.01
439274,4392.74
439349,4393.49
439423,4394.23
439499,4394.99
439574,4395.74
439650,4396.5
439725,4397.25
439802,4398.02
439878,4398.78
439954,4399.54
440030,4400.3
440105,4401.05
440180,4401.8
440256,4402.56
440332,4403.32
440407,4404.07
440483,4404.83
440557,4405.57
440632,4406.32
440706,4407.06
440781,4407.81
440855,4408.55
440930,4409.3
441005,4410.05
441079,4410.79
441147,4411.47
441216,4412.16
441306,4413.06
441380,4413.8
441453,4414.53
441526,4415.26
441598,4415.98
441671,4416.71
441743,4417.43
441815,4418.15
441887,4418.87
441959,4419.59
442031,4420.31
442104,4421.04
442175,4421.75
442247,4422.47
442319,4423.19
442392,4423.92
442465,4424.65
442537,4425.37
442610,4426.1
442682,4426.82
442754,4427.54
442826,4428.26
442898,4428.98
442971,4429.71
443044,4430.44
443118,4431.18
443195,4431.95
443271,4432.71
443349,4433.49
443419,4434.19
443489,4434.89
443583,4435.83
443660,4436.6
443735,4437.35
443810,4438.1
443884,4438.84
443958,4439.58
444031,4440.31
444105,4441.05
444179,4441.79
444253,4442.53
444327,4443.27
444400,4444.0
444475,4444.75
444551,4445.51
444626,4446.26
444702,4447.02
444777,4447.77
444852,4448.52
444927,4449.27
445003,4450.03
445079,4450.79
445154,4451.54
445230,4452.3
445306,4453.06
445375,4453.75
445445,4454.45
445538,4455.38
445614,4456.14
445689,4456.89
445765,4457.65
445841,4458.41
445916,4459.16
445991,4459.91
446065,4460.65
446141,4461.41
446215,4462.15
446290,4462.9
446365,4463.65
446440,4464.4
446515,4465.15
446589,4465.89
446657,4466.57
446725,4467.25
446814,4468.14
446889,4468.89
446963,4469.63
447036,4470.36
447108,4471.08
447181,4471.81
447254,4472.54
447327,4473.27
447401,4474.01
447475,4474.75
447549,4475.49
447624,4476.24
447698,4476.98
447772,4477.72
447845,4478.45
447919,4479.19
447993,4479.93
448066,4480.66
448139,4481.39
448212,4482.12
448285,4482.85
448359,4483.59
448433,4484.33
448500,4485.0
448568,4485.68
448657,4486.57
448731,4487.31
448805,4488.05
448878,4488.78
448952,4489.52
449026,4490.26
449100,4491.0
449174,4491.74
449247,4492.47
449322,4493.22
449396,4493.96
449470,4494.7
449545,4495.45
449621,4496.21
449696,4496.96
449772,4497.72
449847,4498.47
449923,4499.23
449998,4499.98
450074,4500.74
450149,4501.49
450224,4502.24
450293,4502.93
450362,4503.62
450452,4504.52
450527,4505.27
450602,4506.02
450676,4506.76
450751,4507.51
450826,4508.26
450900,4509.0
450975,4509.75
451050,4510.5
451125,4511.25
451200,4512.0
451277,4512.77
451352,4513.52
451427,4514.27
451504,4515.04
451580,4515.8
451657,4516.57
451733,4517.33
451808,4518.08
451877,4518.77
451947,4519.47
452040,4520.4
452115,4521.15
452189,4521.89
452264,4522.64
452339,4523.39
452412,4524.12
452486,4524.86
452560,4525.6
452634,4526.34
452708,4527.08
452782,4527.82
452855,4528.55
452929,4529.29
453004,4530.04
453077,4530.77
453152,4531.52
453227,4532.27
453302,4533.02
453378,4533.78
453453,4534.53
453530,4535.3
453607,4536.07
453684,4536.84
453762,4537.62
453838,4538.38
453914,4539.14
453983,4539.83
454052,4540.52
454144,4541.44
454219,4542.19
454294,4542.94
454367,4543.67
454440,4544.4
454512,4545.12
454585,4545.85
454657,4546.57
454728,4547.28
454801,4548.01
454869,4548.69
454938,4549.38
455028,4550.28
455104,4551.04
455180,4551.8
455258,4552.58
455335,4553.35
455413,4554.13
455491,4554.91
455571,4555.71
455651,4556.51
455731,4557.31
455811,4558.11
455890,4558.9
455971,4559.71
456052,4560.52
456133,4561.33
456213,4562.13
456294,4562.94
456376,4563.76
456458,4564.58
456541,4565.41
456624,4566.24
456706,4567.06
456787,4567.87
456869,4568.69
456950,4569.5
457031,4570.31
457110,4571.1
457189,4571.89
457269,4572.69
457349,4573.49
457429,4574.29
457510,4575.1
457591,4575.91
457672,4576.72
457752,4577.52
457833,4578.33
457914,4579.14
457996,4579.96
458077,4580.77
458159,4581.59
458243,4582.43
458325,4583.25
458408,4584.08
458490,4584.9
458574,4585.74
458657,4586.57
458740,4587.4
458822,4588.22
458904,4589.04
458984,4589.84
459066,4590.66
459147,4591.47
459229,4592.29
459309,4593.09
459381,4593.81
459454,4594.54
459552,4595.52
459632,4596.32
459712,4597.12
459791,4597.91
459870,4598.7
459949,4599.49
460029,4600.29
460109,4601.09
460189,4601.89
460268,4602.68
460347,4603.47
460427,4604.27
460506,4605.06
460586,4605.86
460667,4606.67
460747,4607.47
460827,4608.27
460907,4609.07
460986,4609.86
461066,4610.66
461146,4611.46
461225,4612.25
461304,4613.04
461382,4613.82
461460,4614.6
461537,4615.37
461613,4616.13
461688,4616.88
461762,4617.62
461835,4618.35
461908,4619.08
461981,4619.81
462054,4620.54
462129,4621.29
462204,4622.04
462279,4622.79
462354,4623.54
462429,4624.29
462499,4624.99
462570,4625.7
462664,4626.64
462744,4627.44
462823,4628.23
462893,4628.93
462964,4629.64
463060,4630.6
463137,4631.37
463213,4632.13
463289,4632.89
463364,4633.64
463438,4634.38
463513,4635.13
463587,4635.87
463662,4636.62
463736,4637.36
463811,4638.11
463887,4638.87
463963,4639.63
464040,4640.4
464117,4641.17
464193,4641.93
464270,4642.7
464346,4643.46
464422,4644.22
464496,4644.96
464570,4645.7
464642,4646.42
464713,4647.13
464784,4647.84
464855,4648.55
464927,4649.27
464999,4649.99
465073,4650.73
465148,4651.48
465224,4652.24
465299,4652.99
465376,4653.76
465453,4654.53
465532,4655.32
465609,4656.09
465685,4656.85
465761,4657.61
465837,4658.37
465914,4659.14
465990,4659.9
466066,4660.66
466142,4661.42
466219,4662.19
466296,4662.96
466373,4663.73
466450,4664.5
466527,4665.27
466604,4666.04
466680,4666.8
466757,4667.57
466833,4668.33
466910,4669.1
466987,4669.87
467063,4670.63
467139,4671.39
467217,4672.17
467294,4672.94
467371,4673.71
467447,4674.47
467522,4675.22
467599,4675.99
467676,4676.76
467753,4677.53
467830,4678.3
467906,4679.06
467982,4679.82
468059,4680.59
468136,4681.36
468212,4682.12
468288,4682.88
468363,4683.63
468438,4684.38
468513,4685.13
468588,4685.88
468664,4686.64
468739,4687.39
468816,4688.16
468892,4688.92
468969,4689.69
469046,4690.46
469123,4691.23
469201,4692.01
469279,4692.79
469357,4693.57
469434,4694.34
469503,4695.03
469573,4695.73
469665,4696.65
469740,4697.4
469814,4698.14
469888,4698.88
469961,4699.61
470034,4700.34
470108,4701.08
470180,4701.8
470253,4702.53
470326,4703.26
470401,4704.01
470476,4704.76
470552,4705.52
470629,4706.29
470706,4707.06
470782,4707.82
470860,4708.6
470937,4709.37
471015,4710.15
471094,4710.94
471173,4711.73
471251,4712.51
471329,4713.29
471406,4714.06
471484,4714.84
471562,4715.62
471641,4716.41
471720,4717.2
471798,4717.98
471875,4718.75
471953,4719.53
472031,4720.31
472110,4721.1
472189,4721.89
472268,4722.68
472338,4723.38
472408,4724.08
472479,4724.79
472572,4725.72
472642,4726.42
472712,4727.12
472802,4728.02
472870,4728.7
472959,4729.59
473033,4730.33
473107,4731.07
473181,4731.81
473255,4732.55
473329,4733.29
473404,4734.04
473480,4734.8
473556,4735.56
473633,4736.33
473711,4737.11
473789,4737.89
473866,4738.66
473944,4739.44
474023,4740.23
474101,4741.01
474181,4741.81
474261,4742.61
474340,4743.4
474419,4744.19
474496,4744.96
474575,4745.75
474653,4746.53
474732,4747.32
474810,4748.1
474888,4748.88
474965,4749.65
475041,4750.41
475117,4751.17
475193,4751.93
475269,4752.69
475345,4753.45
475422,4754.22
475499,4754.99
475576,4755.76
475653,4756.53
475729,4757.29
475807,4758.07
475884,4758.84
475961,4759.61
476036,4760.36
476111,4761.11
476185,4761.85
476260,4762.6
476334,4763.34
476408,4764.08
476482,4764.82
476556,4765.56
476629,4766.29
476703,4767.03
476770,4767.7
476838,4768.38
476927,4769.27
477002,4770.02
477076,4770.76
477150,4771.5
477225,4772.25
477301,4773.01
477376,4773.76
477451,4774.51
477526,4775.26
477600,4776.0
477675,4776.75
477749,4777.49
477824,4778.24
477899,4778.99
477974,4779.74
478050,4780.5
478126,4781.26
478201,4782.01
478276,4782.76
478351,4783.51
478425,4784.25
478500,4785.0
478574,4785.74
478648,4786.48
478723,4787.23
478796,4787.96
478870,4788.7
478944,4789.44
479018,4790.18
479092,4790.92
479167,4791.67
479242,4792.42
479316,4793.16
479391,4793.91
479466,4794.66
479542,4795.42
479617,4796.17
479694,4796.94
479771,4797.71
479848,4798.48
479926,4799.26
480003,4800.03
480081,4800.81
480160,4801.6
480238,4802.38
480316,4803.16
480393,4803.93
480469,4804.69
480544,4805.44
480618,4806.18
480692,4806.92
480766,4807.66
480840,4808.4
480913,4809.13
480986,4809.86
481060,4810.6
481134,4811.34
481208,4812.08
481283,4812.83
481359,4813.59
481434,4814.34
481509,4815.09
481584,4815.84
481659,4816.59
481733,4817.33
481808,4818.08
481881,4818.81
481955,4819.55
482028,4820.28
482102,4821.02
482176,4821.76
482250,4822.5
482324,4823.24
482398,4823.98
482472,4824.72
482548,4825.48
482623,4826.23
482698,4826.98
482773,4827.73
482850,4828.5
482925,4829.25
483001,4830.01
483077,4830.77
483153,4831.53
483228,4832.28
483305,4833.05
483382,4833.82
483459,4834.59
483536,4835.36
483614,4836.14
483693,4836.93
483771,4837.71
483850,4838.5
483929,4839.29
484009,4840.09
484087,4840.87
484166,4841.66
484244,4842.44
484321,4843.21
484399,4843.99
484475,4844.75
484552,4845.52
484629,4846.29
484707,4847.07
484785,4847.85
484863,4848.63
484941,4849.41
485018,4850.18
485096,4850.96
485174,4851.74
485252,4852.52
485330,4853.3
485407,4854.07
485484,4854.84
485563,4855.63
485641,4856.41
485720,4857.2
485800,4858.0
485879,4858.79
485950,4859.5
486021,4860.21
486118,4861.18
486196,4861.96
486273,4862.73
486350,4863.5
486419,4864.19
486489,4864.89
486581,4865.81
486657,4866.57
486731,4867.31
486806,4868.06
486882,4868.82
486957,4869.57
487032,4870.32
487108,4871.08
487185,4871.85
487262,4872.62
487339,4873.39
487417,4874.17
487495,4874.95
487573,4875.73
487652,4876.52
487729,4877.29
487807,4878.07
487876,4878.76
487946,4879.46
488040,4880.4
488116,4881.16
488191,4881.91
488266,4882.66
488343,4883.43
488418,4884.18
488493,4884.93
488568,4885.68
488644,4886.44
488720,4887.2
488796,4887.96
488873,4888.73
488951,4889.51
489028,4890.28
489106,4891.06
489184,4891.84
489230,4892.3
489340,4893.4
489417,4894.17
489494,4894.94
489569,4895.69
489644,4896.44
489719,4897.19
489794,4897.94
489869,4898.69
489944,4899.44
490019,4900.19
490094,4900.94
490168,4901.68
490244,4902.44
490321,4903.21
490398,4903.98
490475,4904.75
490552,4905.52
490599,4905.99
490709,4907.09
490786,4907.86
490862,4908.62
490937,4909.37
491012,4910.12
491087,4910.87
491160,4911.6
491233,4912.33
491306,4913.06
491352,4913.52
491456,4914.56
491530,4915.3
491602,4916.02
491675,4916.75
491748,4917.48
491794,4917.94
491898,4918.98
491972,4919.72
492018,4920.18
492123,4921.23
492197,4921.97
492271,4922.71
492346,4923.46
492392,4923.92
492499,4924.99
492576,4925.76
492651,4926.51
492727,4927.27
492802,4928.02
492870,4928.7
492939,4929.39
493029,4930.29
493102,4931.02
493175,4931.75
493247,4932.47
493319,4933.19
493393,4933.93
493465,4934.65
493537,4935.37
493584,4935.84
493687,4936.87
493761,4937.61
493836,4938.36
493910,4939.1
493984,4939.84
494058,4940.58
494132,4941.32
494207,4942.07
494283,4942.83
494359,4943.59
494436,4944.36
494513,4945.13
494591,4945.91
494669,4946.69
494746,4947.46
494823,4948.23
494901,4949.01
494979,4949.79
495058,4950.58
495135,4951.35
495213,4952.13
495291,4952.91
495370,4953.7
495448,4954.48
495525,4955.25
495603,4956.03
495680,4956.8
495758,4957.58
495835,4958.35
495912,4959.12
495988,4959.88
496066,4960.66
496143,4961.43
496220,4962.2
496299,4962.99
496377,4963.77
496456,4964.56
496527,4965.27
496598,4965.98
496694,4966.94
496773,4967.73
496853,4968.53
496932,4969.32
497004,4970.04
497077,4970.77
497176,4971.76
497254,4972.54
497333,4973.33
497412,4974.12
497483,4974.83
497555,4975.55
497652,4976.52
497730,4977.3
497806,4978.06
497884,4978.84
497962,4979.62
498040,4980.4
498111,4981.11
498182,4981.82
498279,4982.79
498357,4983.57
498434,4984.34
498511,4985.11
498587,4985.87
498664,4986.64
498741,4987.41
498818,4988.18
498894,4988.94
498971,4989.71
499046,4990.46
499122,4991.22
499199,4991.99
499275,4992.75
499351,4993.51
499427,4994.27
499505,4995.05
499584,4995.84
499662,4996.62
499740,4997.4
499820,4998.2
499899,4998.99
499980,4999.8
500062,5000.62
500109,5001.09
500229,5002.29
500310,5003.1
500391,5003.91
500471,5004.71
500553,5005.53
500634,5006.34
500717,5007.17
500764,5007.64
500884,5008.84
500964,5009.64
501044,5010.44
501123,5011.23
501202,5012.02
501282,5012.82
501364,5013.64
501445,5014.45
501525,5015.25
501606,5016.06
501687,5016.87
501768,5017.68
501849,5018.49
501923,5019.23
501997,5019.97
502097,5020.97
502176,5021.76
502256,5022.56
502334,5023.34
502413,5024.13
502492,5024.92
502539,5025.39
502653,5026.53
502732,5027.32
502810,5028.1
502888,5028.88
502966,5029.66
503045,5030.45
503125,5031.25
503204,5032.04
503284,5032.84
503364,5033.64
503411,5034.11
503527,5035.27
503608,5036.08
503688,5036.88
503767,5037.67
503846,5038.46
503926,5039.26
504005,5040.05
504084,5040.84
504163,5041.63
504241,5042.41
504288,5042.88
504402,5044.02
504479,5044.79
504557,5045.57
504635,5046.35
504713,5047.13
504792,5047.92
504870,5048.7
504917,5049.17
505031,5050.31
505111,5051.11
505193,5051.93
505274,5052.74
505356,5053.56
505439,5054.39
505523,5055.23
505605,5056.05
505687,5056.87
505761,5057.61
505836,5058.36
505937,5059.37
506018,5060.18
506099,5060.99
506180,5061.8
506261,5062.61
506342,5063.42
506424,5064.24
506498,5064.98
506572,5065.72
506673,5066.73
506754,5067.54
506835,5068.35
506916,5069.16
506996,5069.96
507074,5070.74
507154,5071.54
507232,5072.32
507312,5073.12
507392,5073.92
507471,5074.71
507542,5075.42
507614,5076.14
507711,5077.11
507788,5077.88
507864,5078.64
507940,5079.4
508014,5080.14
508089,5080.89
508164,5081.64
508238,5082.38
508314,5083.14
508391,5083.91
508469,5084.69
508548,5085.48
508626,5086.26
508704,5087.04
508784,5087.84
508863,5088.63
508944,5089.44
509028,5090.28
509113,5091.13
509197,5091.97
509279,5092.79
509361,5093.61
509443,5094.43
509526,5095.26
509609,5096.09
509690,5096.9
509771,5097.71
509851,5098.51
509933,5099.33
510016,5100.16
510099,5100.99
510183,5101.83
510265,5102.65
510345,5103.45
510424,5104.24
510504,5105.04
510582,5105.82
510660,5106.6
510738,5107.38
510817,5108.17
510895,5108.95
510973,5109.73
511051,5110.51
511131,5111.31
511212,5112.12
511295,5112.95
511369,5113.69
511444,5114.44
511518,5115.18
511618,5116.18
511690,5116.9
511788,5117.88
511835,5118.35
511949,5119.49
512026,5120.26
512072,5120.72
512162,5121.62
512253,5122.53
512328,5123.28
512403,5124.03
512477,5124.77
512551,5125.51
512628,5126.28
512705,5127.05
512783,5127.83
512863,5128.63
512943,5129.43
513022,5130.22
513069,5130.69
513184,5131.84
513265,5132.65
513344,5133.44
513423,5134.23
513501,5135.01
513578,5135.78
513654,5136.54
513731,5137.31
513807,5138.07
513884,5138.84
513961,5139.61
514038,5140.38
514115,5141.15
514194,5141.94
514272,5142.72
514350,5143.5
514428,5144.28
514507,5145.07
514585,5145.85
514664,5146.64
514744,5147.44
514825,5148.25
514872,5148.72
514990,5149.9
515069,5150.69
515116,5151.16
515226,5152.26
515303,5153.03
515379,5153.79
515454,5154.54
515529,5155.29
515604,5156.04
515679,5156.79
515755,5157.55
515831,5158.31
515906,5159.06
515982,5159.82
516059,5160.59
516137,5161.37
516215,5162.15
516293,5162.93
516372,5163.72
516443,5164.43
516515,5165.15
516612,5166.12
516692,5166.92
516771,5167.71
516849,5168.49
516928,5169.28
516975,5169.75
517087,5170.87
517165,5171.65
517243,5172.43
517320,5173.2
517396,5173.96
517473,5174.73
517550,5175.5
517626,5176.26
517703,5177.03
517781,5177.81
517860,5178.6
517938,5179.38
518015,5180.15
518094,5180.94
518172,5181.72
518250,5182.5
518297,5182.97
518409,5184.09
518486,5184.86
518533,5185.33
518640,5186.4
518714,5187.14
518789,5187.89
518863,5188.63
518936,5189.36
519010,5190.1
519083,5190.83
519157,5191.57
519231,5192.31
519305,5193.05
519380,5193.8
519455,5194.55
519531,5195.31
519606,5196.06
519681,5196.81
519757,5197.57
519834,5198.34
519911,5199.11
519987,5199.87
520034,5200.34
520145,5201.45
520222,5202.22
520269,5202.69
520375,5203.75
520450,5204.5
520496,5204.96
520603,5206.03
520679,5206.79
520726,5207.26
520828,5208.28
520902,5209.02
520949,5209.49
521054,5210.54
521128,5211.28
521201,5212.01
521274,5212.74
521347,5213.47
521421,5214.21
521496,5214.96
521570,5215.7
521645,5216.45
521720,5217.2
521797,5217.97
521874,5218.74
521953,5219.53
522032,5220.32
522080,5220.8
522195,5221.95
522273,5222.73
522351,5223.51
522428,5224.28
522505,5225.05
522581,5225.81
522657,5226.57
522733,5227.33
522809,5228.09
522884,5228.84
522960,5229.6
523036,5230.36
523113,5231.13
523190,5231.9
523266,5232.66
523343,5233.43
523419,5234.19
523497,5234.97
523574,5235.74
523651,5236.51
523730,5237.3
523810,5238.1
523882,5238.82
523955,5239.55
524054,5240.54
524133,5241.33
524211,5242.11
524290,5242.9
524368,5243.68
524445,5244.45
524521,5245.21
524598,5245.98
524674,5246.74
524750,5247.5
524825,5248.25
524901,5249.01
524971,5249.71
525041,5250.41
525134,5251.34
525211,5252.11
525288,5252.88
525365,5253.65
525440,5254.4
525517,5255.17
525593,5255.93
525669,5256.69
525746,5257.46
525823,5258.23
525901,5259.01
525973,5259.73
526045,5260.45
526141,5261.41
526220,5262.2
526299,5262.99
526376,5263.76
526453,5264.53
526530,5265.3
526608,5266.08
526686,5266.86
526765,5267.65
526843,5268.43
526921,5269.21
526998,5269.98
527074,5270.74
527152,5271.52
527229,5272.29
527307,5273.07
527387,5273.87
527467,5274.67
527547,5275.47
527626,5276.26
527707,5277.07
527789,5277.89
527871,5278.71
527954,5279.54
528037,5280.37
528118,5281.18
528199,5281.99
528278,5282.78
528358,5283.58
528438,5284.38
528518,5285.18
528599,5285.99
528679,5286.79
528759,5287.59
528838,5288.38
528917,5289.17
528996,5289.96
529075,5290.75
529155,5291.55
529236,5292.36
529315,5293.15
529394,5293.94
529473,5294.73
529553,5295.53
529632,5296.32
529713,5297.13
529795,5297.95
529877,5298.77
529959,5299.59
530039,5300.39
530120,5301.2
530201,5302.01
530282,5302.82
530364,5303.64
530446,5304.46
530527,5305.27
530608,5306.08
530689,5306.89
530770,5307.7
530850,5308.5
530931,5309.31
531011,5310.11
531091,5310.91
531169,5311.69
531248,5312.48
531326,5313.26
531404,5314.04
531483,5314.83
531563,5315.63
531643,5316.43
531722,5317.22
531799,5317.99
531876,5318.76
531953,5319.53
532029,5320.29
532105,5321.05
532183,5321.83
532259,5322.59
532336,5323.36
532412,5324.12
532491,5324.91
532570,5325.7
532650,5326.5
532729,5327.29
532807,5328.07
532885,5328.85
532963,5329.63
533041,5330.41
533118,5331.18
533195,5331.95
533272,5332.72
533349,5333.49
533428,5334.28
533508,5335.08
533589,5335.89
533668,5336.68
533747,5337.47
533825,5338.25
533904,5339.04
533982,5339.82
534061,5340.61
534138,5341.38
534216,5342.16
534294,5342.94
534372,5343.72
534454,5344.54
534538,5345.38
534623,5346.23
534712,5347.12
534799,5347.99
534885,5348.85
534972,5349.72
535060,5350.6
535149,5351.49
535237,5352.37
535321,5353.21
535405,5354.05
535490,5354.9
535575,5355.75
535660,5356.6
535744,5357.44
535826,5358.26
535907,5359.07
535988,5359.88
536068,5360.68
536149,5361.49
536229,5362.29
536310,5363.1
536389,5363.89
536468,5364.68
536546,5365.46
536625,5366.25
536703,5367.03
536782,5367.82
536861,5368.61
536941,5369.41
537018,5370.18
537096,5370.96
537175,5371.75
537252,5372.52
537331,5373.31
537411,5374.11
537491,5374.91
537570,5375.7
537648,5376.48
537726,5377.26
537804,5378.04
537883,5378.83
537962,5379.62
538043,5380.43
538125,5381.25
538206,5382.06
538286,5382.86
538364,5383.64
538443,5384.43
538520,5385.2
538598,5385.98
538678,5386.78
538756,5387.56
538834,5388.34
538911,5389.11
538988,5389.88
539065,5390.65
539142,5391.42
539220,5392.2
539297,5392.97
539374,5393.74
539450,5394.5
539527,5395.27
539604,5396.04
539682,5396.82
539760,5397.6
539838,5398.38
539915,5399.15
539992,5399.92
540070,5400.7
540147,5401.47
540225,5402.25
540303,5403.03
540381,5403.81
540459,5404.59
540536,5405.36
540612,5406.12
540688,5406.88
540763,5407.63
540839,5408.39
540915,5409.15
540992,5409.92
541068,5410.68
541145,5411.45
541222,5412.22
541299,5412.99
541377,5413.77
541457,5414.57
541538,5415.38
541619,5416.19
541700,5417.0
541780,5417.8
541861,5418.61
541942,5419.42
542024,5420.24
542107,5421.07
542189,5421.89
542271,5422.71
542352,5423.52
542435,5424.35
542518,5425.18
542603,5426.03
542689,5426.89
542776,5427.76
542863,5428.63
542948,5429.48
543034,5430.34
543121,5431.21
543209,5432.09
543297,5432.97
543382,5433.82
543466,5434.66
543550,5435.5
543633,5436.33
543715,5437.15
543797,5437.97
543878,5438.78
543958,5439.58
544038,5440.38
544118,5441.18
544198,5441.98
544280,5442.8
544363,5443.63
544449,5444.49
544534,5445.34
544619,5446.19
544703,5447.03
544790,5447.9
544882,5448.82
544977,5449.77
545074,5450.74
545167,5451.67
545257,5452.57
545348,5453.48
545439,5454.39
545535,5455.35
545630,5456.3
545727,5457.27
545820,5458.2
545909,5459.09
545998,5459.98
546086,5460.86
546174,5461.74
546259,5462.59
546341,5463.41
546423,5464.23
546503,5465.03
546584,5465.84
546664,5466.64
546746,5467.46
546829,5468.29
546911,5469.11
546993,5469.93
547073,5470.73
547155,5471.55
547236,5472.36
547317,5473.17
547399,5473.99
547482,5474.82
547563,5475.63
547643,5476.43
547722,5477.22
547802,5478.02
547882,5478.82
547963,5479.63
548044,5480.44
548124,5481.24
548203,5482.03
548284,5482.84
548365,5483.65
548445,5484.45
548526,5485.26
548606,5486.06
548686,5486.86
548765,5487.65
548844,5488.44
548924,5489.24
549006,5490.06
549091,5490.91
549178,5491.78
549265,5492.65
549350,5493.5
549432,5494.32
549513,5495.13
549593,5495.93
549673,5496.73
549754,5497.54
549834,5498.34
549913,5499.13
549990,5499.9
550068,5500.68
550145,5501.45
550216,5502.16
550287,5502.87
550373,5503.73
550460,5504.6
550537,5505.37
550615,5506.15
550693,5506.93
550771,5507.71
550851,5508.51
550932,5509.32
551012,5510.12
551092,5510.92
551171,5511.71
551251,5512.51
551331,5513.31
551411,5514.11
551491,5514.91
551572,5515.72
551651,5516.51
551730,5517.3
551810,5518.1
551888,5518.88
551967,5519.67
552047,5520.47
552128,5521.28
552209,5522.09
552289,5522.89
552369,5523.69
552444,5524.44
552519,5525.19
552606,5526.06
552693,5526.93
552777,5527.77
552864,5528.64
552949,5529.49
553033,5530.33
553117,5531.17
553201,5532.01
553287,5532.87
553374,5533.74
553463,5534.63
553548,5535.48
553632,5536.32
553716,5537.16
553798,5537.98
553881,5538.81
553963,5539.63
554046,5540.46
554127,5541.27
554208,5542.08
554291,5542.91
554372,5543.72
554455,5544.55
554539,5545.39
554624,5546.24
554707,5547.07
554789,5547.89
554871,5548.71
554953,5549.53
555035,5550.35
555118,5551.18
555204,5552.04
555289,5552.89
555375,5553.75
555460,5554.6
555547,5555.47
555636,5556.36
555730,5557.3
555824,5558.24
555918,5559.18
556006,5560.06
556094,5560.94
556179,5561.79
556264,5562.64
556349,5563.49
556434,5564.34
556519,5565.19
556604,5566.04
556688,5566.88
556775,5567.75
556860,5568.6
556944,5569.44
557027,5570.27
557111,5571.11
557194,5571.94
557278,5572.78
557359,5573.59
557440,5574.4
557520,5575.2
557599,5575.99
557679,5576.79
557760,5577.6
557840,5578.4
557922,5579.22
558003,5580.03
558084,5580.84
558166,5581.66
558248,5582.48
558328,5583.28
558408,5584.08
558487,5584.87
558566,5585.66
558645,5586.45
558724,5587.24
558803,5588.03
558881,5588.81
558960,5589.6
559038,5590.38
559117,5591.17
559196,5591.96
559268,5592.68
559340,5593.4
559427,5594.27
559514,5595.14
559592,5595.92
559671,5596.71
559748,5597.48
559825,5598.25
559903,5599.03
559982,5599.82
560060,5600.6
560138,5601.38
560216,5602.16
560295,5602.95
560374,5603.74
560453,5604.53
560533,5605.33
560612,5606.12
560690,5606.9
560768,5607.68
560845,5608.45
560921,5609.21
560997,5609.97
561073,5610.73
561150,5611.5
561228,5612.28
561306,5613.06
561384,5613.84
561461,5614.61
561541,5615.41
561619,5616.19
561699,5616.99
561778,5617.78
561859,5618.59
561940,5619.4
562021,5620.21
562104,5621.04
562190,5621.9
562277,5622.77
562365,5623.65
562451,5624.51
562535,5625.35
562619,5626.19
562702,5627.02
562786,5627.86
562872,5628.72
562955,5629.55
563037,5630.37
563121,5631.21
563204,5632.04
563287,5632.87
563368,5633.68
563450,5634.5
563530,5635.3
563612,5636.12
563693,5636.93
563775,5637.75
563857,5638.57
563937,5639.37
564017,5640.17
564098,5640.98
564179,5641.79
564259,5642.59
564340,5643.4
564419,5644.19
564498,5644.98
564577,5645.77
564656,5646.56
564735,5647.35
564815,5648.15
564895,5648.95
564973,5649.73
565051,5650.51
565129,5651.29
565207,5652.07
565285,5652.85
565362,5653.62
565433,5654.33
565505,5655.05
565592,5655.92
565679,5656.79
565756,5657.56
565833,5658.33
565911,5659.11
565988,5659.88
566065,5660.65
566142,5661.42
566218,5662.18
566295,5662.95
566371,5663.71
566447,5664.47
566522,5665.22
566597,5665.97
566673,5666.73
566749,5667.49
566825,5668.25
566903,5669.03
566982,5669.82
567063,5670.63
567144,5671.44
567224,5672.24
567303,5673.03
567383,5673.83
567464,5674.64
567547,5675.47
567630,5676.3
567713,5677.13
567795,5677.95
567879,5678.79
567963,5679.63
568047,5680.47
568131,5681.31
568212,5682.12
568292,5682.92
568373,5683.73
568452,5684.52
568532,5685.32
568613,5686.13
568691,5686.91
568769,5687.69
568845,5688.45
568922,5689.22
568998,5689.98
569074,5690.74
569150,5691.5
569226,5692.26
569301,5693.01
569377,5693.77
569454,5694.54
569530,5695.3
569607,5696.07
569682,5696.82
569758,5697.58
569833,5698.33
569909,5699.09
569985,5699.85
570062,5700.62
570139,5701.39
570215,5702.15
570292,5702.92
570371,5703.71
570450,5704.5
570529,5705.29
570609,5706.09
570688,5706.88
570767,5707.67
570846,5708.46
570924,5709.24
571002,5710.02
571080,5710.8
571157,5711.57
571234,5712.34
571309,5713.09
571385,5713.85
571461,5714.61
571537,5715.37
571614,5716.14
571691,5716.91
571768,5717.68
571846,5718.46
571924,5719.24
572003,5720.03
572082,5720.82
572164,5721.64
572247,5722.47
572329,5723.29
572410,5724.1
572492,5724.92
572573,5725.73
572655,5726.55
572738,5727.38
572822,5728.22
572910,5729.1
572996,5729.96
573081,5730.81
573167,5731.67
573253,5732.53
573342,5733.42
573435,5734.35
573529,5735.29
573617,5736.17
573704,5737.04
573789,5737.89
573876,5738.76
573962,5739.62
574049,5740.49
574140,5741.4
574230,5742.3
574321,5743.21
574408,5744.08
574494,5744.94
574583,5745.83
574675,5746.75
574772,5747.72
574871,5748.71
574971,5749.71
575065,5750.65
575155,5751.55
575248,5752.48
575340,5753.4
575431,5754.31
575523,5755.23
575612,5756.12
575698,5756.98
575782,5757.82
575867,5758.67
575952,5759.52
576036,5760.36
576122,5761.22
576208,5762.08
576291,5762.91
576374,5763.74
576457,5764.57
576539,5765.39
576622,5766.22
576707,5767.07
576793,5767.93
576877,5768.77
576960,5769.6
577042,5770.42
577124,5771.24
577206,5772.06
577290,5772.9
577377,5773.77
577464,5774.64
577548,5775.48
577633,5776.33
577717,5777.17
577801,5778.01
577884,5778.84
577966,5779.66
578046,5780.46
578125,5781.25
578205,5782.05
578284,5782.84
578361,5783.61
578439,5784.39
578516,5785.16
578593,5785.93
578670,5786.7
578741,5787.41
578812,5788.12
578906,5789.06
578984,5789.84
579061,5790.61
579137,5791.37
579214,5792.14
579291,5792.91
579369,5793.69
579448,5794.48
579526,5795.26
579604,5796.04
579682,5796.82
579761,5797.61
579841,5798.41
579923,5799.23
580008,5800.08
580094,5800.94
580179,5801.79
580262,5802.62
580343,5803.43
580424,5804.24
580506,5805.06
580588,5805.88
580672,5806.72
580755,5807.55
580837,5808.37
580918,5809.18
581000,5810.0
581083,5810.83
581166,5811.66
581252,5812.52
581336,5813.36
581420,5814.2
581503,5815.03
581587,5815.87
581671,5816.71
581757,5817.57
581845,5818.45
581932,5819.32
582019,5820.19
582107,5821.07
582194,5821.94
582283,5822.83
582372,5823.72
582459,5824.59
582545,5825.45
582632,5826.32
582721,5827.21
582812,5828.12
582902,5829.02
582989,5829.89
583075,5830.75
583161,5831.61
583246,5832.46
583331,5833.31
583419,5834.19
583506,5835.06
583592,5835.92
583677,5836.77
583762,5837.62
583849,5838.49
583935,5839.35
584020,5840.2
584103,5841.03
584188,5841.88
584272,5842.72
584357,5843.57
584439,5844.39
584521,5845.21
584603,5846.03
584684,5846.84
584765,5847.65
584845,5848.45
584923,5849.23
585001,5850.01
585081,5850.81
585160,5851.6
585239,5852.39
585318,5853.18
585399,5853.99
585479,5854.79
585559,5855.59
585640,5856.4
585719,5857.19
585799,5857.99
585880,5858.8
585959,5859.59
586038,5860.38
586117,5861.17
586195,5861.95
586273,5862.73
586351,5863.51
586423,5864.23
586495,5864.95
586591,5865.91
586669,5866.69
586746,5867.46
586823,5868.23
586900,5869.0
586978,5869.78
587057,5870.57
587133,5871.33
587211,5872.11
587288,5872.88
587365,5873.65
587444,5874.44
587524,5875.24
587605,5876.05
587687,5876.87
587767,5877.67
587847,5878.47
587927,5879.27
588006,5880.06
588086,5880.86
588167,5881.67
588249,5882.49
588331,5883.31
588412,5884.12
588493,5884.93
588574,5885.74
588656,5886.56
588739,5887.39
588824,5888.24
588909,5889.09
588993,5889.93
589079,5890.79
589165,5891.65
589252,5892.52
589337,5893.37
589418,5894.18
589500,5895.0
589582,5895.82
589663,5896.63
589746,5897.46
589826,5898.26
589906,5899.06
589988,5899.88
590069,5900.69
590150,5901.5
590231,5902.31
590315,5903.15
590397,5903.97
590479,5904.79
590563,5905.63
590647,5906.47
590733,5907.33
590818,5908.18
590902,5909.02
590985,5909.85
591069,5910.69
591153,5911.53
591236,5912.36
591317,5913.17
591398,5913.98
591478,5914.78
591558,5915.58
591639,5916.39
591721,5917.21
591803,5918.03
591884,5918.84
591965,5919.65
592045,5920.45
592126,5921.26
592206,5922.06
592287,5922.87
592368,5923.68
592448,5924.48
592528,5925.28
592608,5926.08
592688,5926.88
592768,5927.68
592847,5928.47
592926,5929.26
593006,5930.06
593086,5930.86
593165,5931.65
593243,5932.43
593322,5933.22
593401,5934.01
593481,5934.81
593563,5935.63
593646,5936.46
593730,5937.3
593813,5938.13
593894,5938.94
593978,5939.78
594063,5940.63
594148,5941.48
594234,5942.34
594317,5943.17
594399,5943.99
594481,5944.81
594561,5945.61
594641,5946.41
594720,5947.2
594801,5948.01
594880,5948.8
594958,5949.58
595036,5950.36
595115,5951.15
595194,5951.94
595272,5952.72
595352,5953.52
595429,5954.29
595507,5955.07
595585,5955.85
595664,5956.64
595744,5957.44
595819,5958.19
595895,5958.95
595999,5959.99
596081,5960.81
596163,5961.63
596245,5962.45
596328,5963.28
596411,5964.11
596494,5964.94
596575,5965.75
596655,5966.55
596734,5967.34
596813,5968.13
596893,5968.93
596974,5969.74
597057,5970.57
597142,5971.42
597226,5972.26
597309,5973.09
597391,5973.91
597475,5974.75
597558,5975.58
597641,5976.41
597724,5977.24
597806,5978.06
597887,5978.87
597967,5979.67
598049,5980.49
598130,5981.3
598214,5982.14
598300,5983.0
598387,5983.87
598474,5984.74
598558,5985.58
598641,5986.41
598723,5987.23
598804,5988.04
598885,5988.85
598967,5989.67
599051,5990.51
599133,5991.33
599215,5992.15
599296,5992.96
599378,5993.78
599459,5994.59
599542,5995.42
599625,5996.25
599709,5997.09
599793,5997.93
599875,5998.75
599959,5999.59
600043,6000.43
600127,6001.27
600211,6002.11
600296,6002.96
600379,6003.79
600461,6004.61
600543,6005.43
600626,6006.26
600709,6007.09
600793,6007.93
600878,6008.78
600966,6009.66
601053,6010.53
601140,6011.4
601230,6012.3
601322,6013.22
601415,6014.15
601508,6015.08
601596,6015.96
601682,6016.82
601768,6017.68
601854,6018.54
601938,6019.38
602023,6020.23
602106,6021.06
602189,6021.89
602270,6022.7
602355,6023.55
602440,6024.4
602528,6025.28
602618,6026.18
602709,6027.09
602796,6027.96
602880,6028.8
602964,6029.64
603047,6030.47
603131,6031.31
603216,6032.16
603303,6033.03
603385,6033.85
603467,6034.67
603546,6035.46
603623,6036.23
603700,6037.0
603778,6037.78
603854,6038.54
603930,6039.3
604006,6040.06
604082,6040.82
604159,6041.59
604238,6042.38
604315,6043.15
604394,6043.94
604472,6044.72
604551,6045.51
604631,6046.31
604710,6047.1
604790,6047.9
604870,6048.7
604949,6049.49
605027,6050.27
605106,6051.06
605185,6051.85
605264,6052.64
605344,6053.44
605425,6054.25
605506,6055.06
605585,6055.85
605666,6056.66
605749,6057.49
605831,6058.31
605916,6059.16
606001,6060.01
606087,6060.87
606169,6061.69
606252,6062.52
606336,6063.36
606421,6064.21
606511,6065.11
606610,6066.1
606717,6067.17
606821,6068.21
606924,6069.24
607025,6070.25
607132,6071.32
607243,6072.43
607361,6073.61
607480,6074.8
607587,6075.87
607690,6076.9
607797,6077.97
607905,6079.05
608013,6080.13
608109,6081.09
608205,6082.05
608300,6083.0
608396,6083.96
608510,6085.1
608619,6086.19
608731,6087.31
608830,6088.3
608931,6089.31
609034,6090.34
609138,6091.38
609240,6092.4
609342,6093.42
609443,6094.43
609547,6095.47
609650,6096.5
609750,6097.5
609849,6098.49
609940,6099.4
610032,6100.32
610123,6101.23
610218,6102.18
610307,6103.07
610395,6103.95
610483,6104.83
610568,6105.68
610654,6106.54
610737,6107.37
610821,6108.21
610904,6109.04
610987,6109.87
611072,6110.72
611157,6111.57
611241,6112.41
611325,6113.25
611409,6114.09
611494,6114.94
611579,6115.79
611662,6116.62
611744,6117.44
611824,6118.24
611905,6119.05
611985,6119.85
612064,6120.64
612144,6121.44
612224,6122.24
612304,6123.04
612385,6123.85
612465,6124.65
612546,6125.46
612627,6126.27
612708,6127.08
612789,6127.89
612872,6128.72
612954,6129.54
613037,6130.37
613122,6131.22
613207,6132.07
613290,6132.9
613372,6133.72
613455,6134.55
613537,6135.37
613619,6136.19
613700,6137.0
613779,6137.79
613858,6138.58
613936,6139.36
614014,6140.14
614091,6140.91
614169,6141.69
614247,6142.47
614325,6143.25
614404,6144.04
614485,6144.85
614565,6145.65
614645,6146.45
614727,6147.27
614808,6148.08
614890,6148.9
614971,6149.71
615053,6150.53
615136,6151.36
615220,6152.2
615308,6153.08
615402,6154.02
615491,6154.91
615578,6155.78
615664,6156.64
615753,6157.53
615840,6158.4
615930,6159.3
616023,6160.23
616114,6161.14
616202,6162.02
616289,6162.89
616380,6163.8
616471,6164.71
616565,6165.65
616656,6166.56
616744,6167.44
616830,6168.3
616916,6169.16
617003,6170.03
617087,6170.87
617171,6171.71
617252,6172.52
617334,6173.34
617413,6174.13
617493,6174.93
617573,6175.73
617652,6176.52
617731,6177.31
617810,6178.1
617888,6178.88
617965,6179.65
618042,6180.42
618119,6181.19
618197,6181.97
618275,6182.75
618354,6183.54
618434,6184.34
618512,6185.12
618590,6185.9
618667,6186.67
618744,6187.44
618820,6188.2
618896,6188.96
618972,6189.72
619049,6190.49
619125,6191.25
619202,6192.02
619277,6192.77
619354,6193.54
619430,6194.3
619508,6195.08
619586,6195.86
619665,6196.65
619742,6197.42
619819,6198.19
619895,6198.95
619969,6199.69
620044,6200.44
620121,6201.21
620198,6201.98
620275,6202.75
620353,6203.53
620429,6204.29
620504,6205.04
620578,6205.78
620652,6206.52
620727,6207.27
620802,6208.02
620877,6208.77
620953,6209.53
621028,6210.28
621104,6211.04
621181,6211.81
621259,6212.59
621336,6213.36
621414,6214.14
621490,6214.9
621566,6215.66
621643,6216.43
621721,6217.21
621801,6218.01
621880,6218.8
621960,6219.6
622037,6220.37
622115,6221.15
622195,6221.95
622280,6222.8
622365,6223.65
622447,6224.47
622530,6225.3
622608,6226.08
622683,6226.83
622756,6227.56
622827,6228.27
622899,6228.99
622970,6229.7
623041,6230.41
623111,6231.11
623182,6231.82
623252,6232.52
623323,6233.23
623394,6233.94
623464,6234.64
623534,6235.34
623604,6236.04
623673,6236.73
623741,6237.41
623808,6238.08
623875,6238.75
623940,6239.4
624006,6240.06
624071,6240.71
624137,6241.37
624203,6242.03
624270,6242.7
624339,6243.39
624409,6244.09
624481,6244.81
624555,6245.55
624630,6246.3
624706,6247.06
624782,6247.82
624858,6248.58
624935,6249.35
625014,6250.14
625093,6250.93
625174,6251.74
625256,6252.56
625337,6253.37
625421,6254.21
625507,6255.07
625595,6255.95
625685,6256.85
625776,6257.76
625868,6258.68
625958,6259.58
626049,6260.49
626142,6261.42
626241,6262.41
626352,6263.52
626461,6264.61
626573,6265.73
626686,6266.86
626796,6267.96
626891,6268.91
626979,6269.79
627061,6270.61
627143,6271.43
627226,6272.26
627309,6273.09
627392,6273.92
627475,6274.75
627556,6275.56
627637,6276.37
627718,6277.18
627798,6277.98
627878,6278.78
627957,6279.57
628036,6280.36
628116,6281.16
628197,6281.97
628280,6282.8
628365,6283.65
628450,6284.5
628535,6285.35
628621,6286.21
628708,6287.08
628797,6287.97
628887,6288.87
628977,6289.77
629066,6290.66
629153,6291.53
629241,6292.41
629330,6293.3
629421,6294.21
629515,6295.15
629613,6296.13
629711,6297.11
629806,6298.06
629900,6299.0
629999,6299.99
630110,6301.1
630228,6302.28
630350,6303.5
630458,6304.58
630553,6305.53
630646,6306.46
630747,6307.47
630839,6308.39
630930,6309.3
631028,6310.28
631119,6311.19
631206,6312.06
631290,6312.9
631373,6313.73
631453,6314.53
631531,6315.31
631610,6316.1
631689,6316.89
631769,6317.69
631850,6318.5
631933,6319.33
632019,6320.19
632107,6321.07
632198,6321.98
632290,6322.9
632384,6323.84
632478,6324.78
632573,6325.73
632668,6326.68
632764,6327.64
632860,6328.6
632958,6329.58
633057,6330.57
633158,6331.58
633258,6332.58
633355,6333.55
633454,6334.54
633556,6335.56
633662,6336.62
633772,6337.72
633880,6338.8
633984,6339.84
634084,6340.84
634188,6341.88
634298,6342.98
634413,6344.13
634522,6345.22
634630,6346.3
634744,6347.44
634872,6348.72
635006,6350.06
635141,6351.41
635249,6352.49
635343,6353.43
635435,6354.35
635532,6355.32
635621,6356.21
635706,6357.06
635788,6357.88
635869,6358.69
635946,6359.46
636024,6360.24
636100,6361.0
636173,6361.73
636248,6362.48
636323,6363.23
636398,6363.98
636474,6364.74
636551,6365.51
636630,6366.3
636711,6367.11
636794,6367.94
636875,6368.75
636958,6369.58
637043,6370.43
637129,6371.29
637216,6372.16
637303,6373.03
637391,6373.91
637478,6374.78
637565,6375.65
637652,6376.52
637739,6377.39
637828,6378.28
637918,6379.18
638008,6380.08
638100,6381.0
638193,6381.93
638283,6382.83
638372,6383.72
638464,6384.64
638561,6385.61
638660,6386.6
638763,6387.63
638863,6388.63
638959,6389.59
639057,6390.57
639170,6391.7
639291,6392.91
639412,6394.12
639525,6395.25
639638,6396.38
639763,6397.63
639888,6398.88
639986,6399.86
640083,6400.83
640183,6401.83
640270,6402.7
640357,6403.57
640441,6404.41
640526,6405.26
640606,6406.06
640683,6406.83
640760,6407.6
640836,6408.36
640910,6409.1
640985,6409.85
641060,6410.6
641137,6411.37
641215,6412.15
641296,6412.96
641378,6413.78
641459,6414.59
641542,6415.42
641627,6416.27
641716,6417.16
641806,6418.06
641897,6418.97
641988,6419.88
642079,6420.79
642169,6421.69
642258,6422.58
642346,6423.46
642434,6424.34
642523,6425.23
642611,6426.11
642700,6427.0
642791,6427.91
642883,6428.83
642976,6429.76
643066,6430.66
643155,6431.55
643246,6432.46
643345,6433.45
643450,6434.5
643560,6435.6
643665,6436.65
643767,6437.67
643880,6438.8
644002,6440.02
644130,6441.3
644252,6442.52
644354,6443.54
644463,6444.63
644567,6445.67
644678,6446.78
644779,6447.79
644887,6448.87
644996,6449.96
645091,6450.91
645185,6451.85
645273,6452.73
645356,6453.56
645437,6454.37
645518,6455.18
645600,6456.0
645683,6456.83
645765,6457.65
645849,6458.49
645936,6459.36
646026,6460.26
646120,6461.2
646216,6462.16
646312,6463.12
646408,6464.08
646504,6465.04
646600,6466.0
646696,6466.96
646791,6467.91
646887,6468.87
646982,6469.82
647077,6470.77
647174,6471.74
647273,6472.73
647372,6473.72
647469,6474.69
647563,6475.63
647662,6476.62
647768,6477.68
647876,6478.76
647988,6479.88
648095,6480.95
648202,6482.02
648322,6483.22
648455,6484.55
648591,6485.91
648720,6487.2
648879,6488.79
649038,6490.38
649191,6491.91
649345,6493.45
649457,6494.57
649565,6495.65
649662,6496.62
649762,6497.62
649859,6498.59
649946,6499.46
650028,6500.28
650106,6501.06
650181,6501.81
650254,6502.54
650327,6503.27
650399,6503.99
650472,6504.72
650544,6505.44
650618,6506.18
650694,6506.94
650773,6507.73
650855,6508.55
650939,6509.39
651026,6510.26
651115,6511.15
651204,6512.04
651295,6512.95
651389,6513.89
651486,6514.86
651584,6515.84
651682,6516.82
651778,6517.78
651875,6518.75
651972,6519.72
652069,6520.69
652167,6521.67
652267,6522.67
652369,6523.69
652473,6524.73
652576,6525.76
652679,6526.79
652774,6527.74
652871,6528.71
652969,6529.69
653071,6530.71
653178,6531.78
653284,6532.84
653385,6533.85
653484,6534.84
653595,6535.95
653717,6537.17
653840,6538.4
653955,6539.55
654071,6540.71
654209,6542.09
654347,6543.47
654483,6544.83
654591,6545.91
654698,6546.98
654807,6548.07
654907,6549.07
655008,6550.08
655115,6551.15
655206,6552.06
655294,6552.94
655378,6553.78
655460,6554.6
655541,6555.41
655622,6556.22
655703,6557.03
655782,6557.82
655861,6558.61
655941,6559.41
656022,6560.22
656101,6561.01
656180,6561.8
656262,6562.62
656346,6563.46
656432,6564.32
656521,6565.21
656611,6566.11
656703,6567.03
656797,6567.97
656891,6568.91
656985,6569.85
657079,6570.79
657175,6571.75
657271,6572.71
657369,6573.69
657465,6574.65
657561,6575.61
657656,6576.56
657748,6577.48
657838,6578.38
657927,6579.27
658022,6580.22
658122,6581.22
658228,6582.28
658336,6583.36
658440,6584.4
658543,6585.43
658662,6586.62
658795,6587.95
658929,6589.29
659046,6590.46
659146,6591.46
659252,6592.52
659353,6593.53
659451,6594.51
659556,6595.56
659652,6596.52
659748,6597.48
659840,6598.4
659925,6599.25
660009,6600.09
660090,6600.9
660167,6601.67
660245,6602.45
660323,6603.23
660401,6604.01
660479,6604.79
660556,6605.56
660633,6606.33
660712,6607.12
660794,6607.94
660879,6608.79
660969,6609.69
661061,6610.61
661156,6611.56
661253,6612.53
661350,6613.5
661449,6614.49
661547,6615.47
661644,6616.44
661743,6617.43
661842,6618.42
661944,6619.44
662049,6620.49
662153,6621.53
662257,6622.57
662357,6623.57
662454,6624.54
662551,6625.51
662656,6626.56
662769,6627.69
662886,6628.86
662994,6629.94
663096,6630.96
663207,6632.07
663325,6633.25
663443,6634.43
663552,6635.52
663680,6636.8
663809,6638.09
663911,6639.11
664011,6640.11
664106,6641.06
664199,6641.99
664282,6642.82
664363,6643.63
664441,6644.41
664519,6645.19
664595,6645.95
664673,6646.73
664752,6647.52
664833,6648.33
664917,6649.17
665005,6650.05
665096,6650.96
665192,6651.92
665288,6652.88
665387,6653.87
665485,6654.85
665584,6655.84
665683,6656.83
665781,6657.81
665880,6658.8
665980,6659.8
666081,6660.81
666187,6661.87
666297,6662.97
666409,6664.09
666519,6665.19
666623,6666.23
666725,6667.25
666838,6668.38
666959,6669.59
667081,6670.81
667190,6671.9
667300,6673.0
667444,6674.44
667588,6675.88
667713,6677.13
667821,6678.21
667940,6679.4
668045,6680.45
668144,6681.44
668243,6682.43
668341,6683.41
668432,6684.32
668514,6685.14
668594,6685.94
668671,6686.71
668744,6687.44
668817,6688.17
668891,6688.91
668966,6689.66
669043,6690.43
669123,6691.23
669203,6692.03
669288,6692.88
669378,6693.78
669471,6694.71
669566,6695.66
669662,6696.62
669757,6697.57
669851,6698.51
669948,6699.48
670045,6700.45
670144,6701.44
670245,6702.45
670347,6703.47
670450,6704.5
670554,6705.54
670659,6706.59
670767,6707.67
670877,6708.77
670988,6709.88
671092,6710.92
671195,6711.95
671308,6713.08
671428,6714.28
671551,6715.51
671661,6716.61
671768,6717.68
671888,6718.88
672027,6720.27
672167,6721.67
672294,6722.94
672401,6724.01
672517,6725.17
672636,6726.36
672747,6727.47
672849,6728.49
672959,6729.59
673059,6730.59
673155,6731.55
673242,6732.42
673326,6733.26
673407,6734.07
673487,6734.87
673563,6735.63
673641,6736.41
673719,6737.19
673798,6737.98
673880,6738.8
673965,6739.65
674053,6740.53
674143,6741.43
674235,6742.35
674329,6743.29
674424,6744.24
674520,6745.2
674617,6746.17
674714,6747.14
674812,6748.12
674911,6749.11
675010,6750.1
675110,6751.1
675209,6752.09
675310,6753.1
675411,6754.11
675511,6755.11
675614,6756.14
675721,6757.21
675830,6758.3
675936,6759.36
676041,6760.41
676153,6761.53
676272,6762.72
676394,6763.94
676504,6765.04
676614,6766.14
676764,6767.64
676906,6769.06
677041,6770.41
677177,6771.77
677295,6772.95
677415,6774.15
677524,6775.24
677624,6776.24
677729,6777.29
677823,6778.23
677912,6779.12
677997,6779.97
678079,6780.79
678159,6781.59
678238,6782.38
678316,6783.16
678393,6783.93
678472,6784.72
678548,6785.48
678625,6786.25
678704,6787.04
678786,6787.86
678872,6788.72
678963,6789.63
679057,6790.57
679153,6791.53
679250,6792.5
679345,6793.45
679441,6794.41
679536,6795.36
679631,6796.31
679726,6797.26
679822,6798.22
679920,6799.2
680019,6800.19
680117,6801.17
680216,6802.16
680314,6803.14
680411,6804.11
680505,6805.05
680603,6806.03
680709,6807.09
680821,6808.21
680932,6809.32
681038,6810.38
681144,6811.44
681259,6812.59
681379,6813.79
681503,6815.03
681612,6816.12
681722,6817.22
681864,6818.64
682007,6820.07
682122,6821.22
682238,6822.38
682348,6823.48
682459,6824.59
682555,6825.55
682648,6826.48
682746,6827.46
682831,6828.31
682914,6829.14
682993,6829.93
683068,6830.68
683143,6831.43
683219,6832.19
683296,6832.96
683376,6833.76
683456,6834.56
683535,6835.35
683618,6836.18
683704,6837.04
683793,6837.93
683884,6838.84
683978,6839.78
684073,6840.73
684170,6841.7
684269,6842.69
684367,6843.67
684465,6844.65
684563,6845.63
684661,6846.61
684759,6847.59
684857,6848.57
684955,6849.55
685052,6850.52
685149,6851.49
685246,6852.46
685344,6853.44
685442,6854.42
685549,6855.49
685669,6856.69
685790,6857.9
685903,6859.03
686016,6860.16
686137,6861.37
686273,6862.73
686410,6864.1
686533,6865.33
686656,6866.56
686795,6867.95
686935,6869.35
687043,6870.43
687154,6871.54
687259,6872.59
687370,6873.7
687474,6874.74
687576,6875.76
687667,6876.67
687756,6877.56
687842,6878.42
687923,6879.23
688000,6880.0
688076,6880.76
688149,6881.49
688223,6882.23
688298,6882.98
688374,6883.74
688452,6884.52
688534,6885.34
688619,6886.19
688701,6887.01
688787,6887.87
688875,6888.75
688966,6889.66
689059,6890.59
689153,6891.53
689248,6892.48
689344,6893.44
689438,6894.38
689533,6895.33
689628,6896.28
689724,6897.24
689819,6898.19
689914,6899.14
690011,6900.11
690110,6901.1
690203,6902.03
690294,6902.94
690388,6903.88
690486,6904.86
690594,6905.94
690708,6907.08
690814,6908.14
690926,6909.26
691054,6910.54
691191,6911.91
691328,6913.28
691447,6914.47
691554,6915.54
691667,6916.67
691788,6917.88
691900,6919.0
692004,6920.04
692118,6921.18
692218,6922.18
692318,6923.18
692406,6924.06
692489,6924.89
692570,6925.7
692651,6926.51
692731,6927.31
692809,6928.09
692890,6928.9
692973,6929.73
693059,6930.59
693150,6931.5
693244,6932.44
693342,6933.42
693441,6934.41
693541,6935.41
693641,6936.41
693741,6937.41
693840,6938.4
693938,6939.38
694036,6940.36
694134,6941.34
694235,6942.35
694338,6943.38
694441,6944.41
694546,6945.46
694650,6946.5
694755,6947.55
694857,6948.57
694955,6949.55
695058,6950.58
695167,6951.67
695277,6952.77
695388,6953.88
695503,6955.03
695635,6956.35
695781,6957.81
695928,6959.28
696050,6960.5
696149,6961.49
696244,6962.44
696342,6963.42
696446,6964.46
696538,6965.38
696633,6966.33
696730,6967.3
696818,6968.18
696901,6969.01
696986,6969.86
697070,6970.7
697155,6971.55
697236,6972.36
697320,6973.2
697408,6974.08
697499,6974.99
697592,6975.92
697689,6976.89
697789,6977.89
697892,6978.92
697996,6979.96
698101,6981.01
698205,6982.05
698310,6983.1
698413,6984.13
698517,6985.17
698622,6986.22
698727,6987.27
698833,6988.33
698942,6989.42
699055,6990.55
699167,6991.67
699273,6992.73
699377,6993.77
699488,6994.88
699607,6996.07
699733,6997.33
699849,6998.49
699964,6999.64
700086,7000.86
700218,7002.18
700351,7003.51
700458,7004.58
700565,7005.65
700677,7006.77
700789,7007.89
700894,7008.94
701010,7010.1
701106,7011.06
701201,7012.01
701292,7012.92
701377,7013.77
701457,7014.57
701538,7015.38
701617,7016.17
701696,7016.96
701774,7017.74
701854,7018.54
701936,7019.36
702020,7020.2
702108,7021.08
702199,7021.99
702294,7022.94
702392,7023.92
702489,7024.89
702587,7025.87
702685,7026.85
702784,7027.84
702884,7028.84
702985,7029.85
703088,7030.88
703192,7031.92
703298,7032.98
703403,7034.03
703508,7035.08
703610,7036.1
703709,7037.09
703813,7038.13
703924,7039.24
704042,7040.42
704154,7041.54
704270,7042.7
704401,7044.01
704532,7045.32
704653,7046.53
704792,7047.92
704944,7049.44
705097,7050.97
705240,7052.4
705360,7053.6
705479,7054.79
705582,7055.82
705684,7056.84
705779,7057.79
705867,7058.67
705953,7059.53
706036,7060.36
706115,7061.15
706191,7061.91
706266,7062.66
706340,7063.4
706415,7064.15
706489,7064.89
706564,7065.64
706642,7066.42
706722,7067.22
706803,7068.03
706887,7068.87
706973,7069.73
707058,7070.58
707144,7071.44
707231,7072.31
707318,7073.18
707406,7074.06
707494,7074.94
707583,7075.83
707671,7076.71
707759,7077.59
707849,7078.49
707941,7079.41
708034,7080.34
708129,7081.29
708222,7082.22
708313,7083.13
708408,7084.08
708514,7085.14
708626,7086.26
708737,7087.37
708848,7088.48
708974,7089.74
709098,7090.98
709229,7092.29
709360,7093.6
709475,7094.75
709590,7095.9
709729,7097.29
709868,7098.68
709975,7099.75
710083,7100.83
710191,7101.91
710281,7102.81
710369,7103.69
710453,7104.53
710533,7105.33
710610,7106.1
710687,7106.87
710764,7107.64
710843,7108.43
710923,7109.23
711003,7110.03
711085,7110.85
711170,7111.7
711258,7112.58
711351,7113.51
711447,7114.47
711543,7115.43
711641,7116.41
711739,7117.39
711837,7118.37
711934,7119.34
712032,7120.32
712129,7121.29
712228,7122.28
712327,7123.27
712427,7124.27
712529,7125.29
712632,7126.32
712734,7127.34
712834,7128.34
712939,7129.39
713052,7130.52
713171,7131.71
713297,7132.97
713408,7134.08
713520,7135.2
713647,7136.47
713775,7137.75
713887,7138.87
714000,7140.0
714133,7141.33
714266,7142.66
714376,7143.76
714495,7144.95
714600,7146.0
714695,7146.95
714788,7147.88
714875,7148.75
714957,7149.57
715037,7150.37
715118,7151.18
715199,7151.99
715280,7152.8
715361,7153.61
715444,7154.44
715531,7155.31
715618,7156.18
715708,7157.08
715800,7158.0
715894,7158.94
715988,7159.88
716081,7160.81
716173,7161.73
716264,7162.64
716354,7163.54
716444,7164.44
716535,7165.35
716629,7166.29
716728,7167.28
716831,7168.31
716934,7169.34
717041,7170.41
717153,7171.53
717266,7172.66
717374,7173.74
717484,7174.84
717601,7176.01
717734,7177.34
717862,7178.62
717985,7179.85
718130,7181.3
718275,7182.75
718411,7184.11
718524,7185.24
718637,7186.37
718755,7187.55
718875,7188.75
718984,7189.84
719096,7190.96
719195,7191.95
719293,7192.93
719382,7193.82
719466,7194.66
719548,7195.48
719627,7196.27
719704,7197.04
719780,7197.8
719858,7198.58
719940,7199.4
720025,7200.25
720114,7201.14
720207,7202.07
720303,7203.03
720400,7204.0
720498,7204.98
720598,7205.98
720698,7206.98
720796,7207.96
720895,7208.95
720994,7209.94
721094,7210.94
721194,7211.94
721295,7212.95
721397,7213.97
721501,7215.01
721608,7216.08
721713,7217.13
721817,7218.17
721939,7219.39
722082,7220.82
722225,7222.25
722351,7223.51
722477,7224.77
722616,7226.16
722756,7227.56
722882,7228.82
723003,7230.03
723114,7231.14
723237,7232.37
723349,7233.49
723462,7234.62
723564,7235.64
723667,7236.67
723765,7237.65
723856,7238.56
723941,7239.41
724020,7240.2
724096,7240.96
724172,7241.72
724247,7242.47
724322,7243.22
724397,7243.97
724475,7244.75
724555,7245.55
724638,7246.38
724724,7247.24
724813,7248.13
724904,7249.04
724995,7249.95
725087,7250.87
725178,7251.78
725270,7252.7
725361,7253.61
725452,7254.52
725544,7255.44
725637,7256.37
725732,7257.32
725832,7258.32
725934,7259.34
726032,7260.32
726129,7261.29
726233,7262.33
726341,7263.41
726454,7264.54
726568,7265.68
726675,7266.75
726779,7267.79
726893,7268.93
727017,7270.17
727150,7271.5
727274,7272.74
727387,7273.87
727484,7274.84
727594,7275.94
727712,7277.12
727830,7278.3
727938,7279.38
728051,7280.51
728147,7281.47
728241,7282.41
728332,7283.32
728416,7284.16
728496,7284.96
728577,7285.77
728658,7286.58
728739,7287.39
728820,7288.2
728903,7289.03
728989,7289.89
729079,7290.79
729172,7291.72
729269,7292.69
729365,7293.65
729463,7294.63
729561,7295.61
729660,7296.6
729760,7297.6
729859,7298.59
729958,7299.58
730057,7300.57
730155,7301.55
730252,7302.52
730350,7303.5
730449,7304.49
730549,7305.49
730649,7306.49
730747,7307.47
730853,7308.53
730967,7309.67
731090,7310.9
731209,7312.09
731326,7313.26
731458,7314.58
731599,7315.99
731744,7317.44
731869,7318.69
731984,7319.84
732117,7321.17
732238,7322.38
732351,7323.51
732476,7324.76
732581,7325.81
732683,7326.83
732776,7327.76
732862,7328.62
732942,7329.42
733021,7330.21
733098,7330.98
733174,7331.74
733249,7332.49
733326,7333.26
733404,7334.04
733483,7334.83
733566,7335.66
733651,7336.51
733739,7337.39
733830,7338.3
733923,7339.23
734018,7340.18
734113,7341.13
734209,7342.09
734306,7343.06
734402,7344.02
734500,7345.0
734598,7345.98
734698,7346.98
734800,7348.0
734907,7349.07
735016,7350.16
735128,7351.28
735233,7352.33
735338,7353.38
735454,7354.54
735585,7355.85
735719,7357.19
735842,7358.42
735964,7359.64
736105,7361.05
736257,7362.57
736393,7363.93
736518,7365.18
736648,7366.48
736766,7367.66
736887,7368.87
736996,7369.96
737115,7371.15
737217,7372.17
737316,7373.16
737407,7374.07
737489,7374.89
737567,7375.67
737641,7376.41
737716,7377.16
737790,7377.9
737865,7378.65
737940,7379.4
738016,7380.16
738096,7380.96
738177,7381.77
738262,7382.62
738350,7383.5
738440,7384.4
738532,7385.32
738625,7386.25
738721,7387.21
738817,7388.17
738912,7389.12
739009,7390.09
739106,7391.06
739205,7392.05
739306,7393.06
739408,7394.08
739513,7395.13
739623,7396.23
739729,7397.29
739832,7398.32
739939,7399.39
740051,7400.51
740167,7401.67
740277,7402.77
740384,7403.84
740500,7405.0
740634,7406.34
740781,7407.81
740928,7409.28
741047,7410.47
741166,7411.66
741290,7412.9
741400,7414.0
741510,7415.1
741628,7416.28
741728,7417.28
741823,7418.23
741908,7419.08
741992,7419.92
742072,7420.72
742151,7421.51
742229,7422.29
742308,7423.08
742390,7423.9
742476,7424.76
742564,7425.64
742653,7426.53
742745,7427.45
742840,7428.4
742937,7429.37
743034,7430.34
743130,7431.3
743226,7432.26
743322,7433.22
743417,7434.17
743512,7435.12
743607,7436.07
743705,7437.05
743804,7438.04
743905,7439.05
744007,7440.07
744114,7441.14
744222,7442.22
744329,7443.29
744433,7444.33
744542,7445.42
744663,7446.63
744789,7447.89
744905,7449.05
745020,7450.2
745155,7451.55
745299,7452.99
745440,7454.4
745583,7455.83
745727,7457.27
745883,7458.83
746040,7460.4
746171,7461.71
746290,7462.9
746408,7464.08
746518,7465.18
746622,7466.22
746723,7467.23
746823,7468.23
746908,7469.08
746990,7469.9
747066,7470.66
747141,7471.41
747215,7472.15
747288,7472.88
747361,7473.61
747436,7474.36
747514,7475.14
747594,7475.94
747679,7476.79
747766,7477.66
747857,7478.57
747950,7479.5
748046,7480.46
748143,7481.43
748242,7482.42
748340,7483.4
748438,7484.38
748533,7485.33
748629,7486.29
748725,7487.25
748822,7488.22
748921,7489.21
749022,7490.22
749127,7491.27
749231,7492.31
749333,7493.33
749443,7494.43
749561,7495.61
749681,7496.81
749797,7497.97
749909,7499.09
750034,7500.34
750179,7501.79
750324,7503.24
750450,7504.5
750570,7505.7
750670,7506.7
750771,7507.71
750879,7508.79
750999,7509.99
751119,7511.19
751231,7512.31
751341,7513.41
751435,7514.35
751523,7515.23
751607,7516.07
751687,7516.87
751763,7517.63
751838,7518.38
751912,7519.12
751987,7519.87
752062,7520.62
752137,7521.37
752214,7522.14
752295,7522.95
752379,7523.79
752467,7524.67
752560,7525.6
752654,7526.54
