sample,time_sec
56,0.56
157,1.57
256,2.56
355,3.55
453,4.53
556,5.56
664,6.64
775,7.75
880,8.8
981,9.81
1077,10.77
1179,11.79
1283,12.83
1382,13.82
1479,14.79
1572,15.72
1668,16.68
1767,17.67
1862,18.62
1957,19.57
2051,20.51
2154,21.54
2257,22.57
2353,23.53
2446,24.46
2537,25.37
2626,26.26
2713,27.13
2798,27.98
2884,28.84
2976,29.76
3068,30.68
3157,31.57
3249,32.49
3345,33.45
3442,34.42
3535,35.35
3628,36.28
3722,37.22
3818,38.18
3908,39.08
3997,39.97
4085,40.85
4172,41.72
4259,42.59
4344,43.44
4427,44.27
4511,45.11
4595,45.95
4681,46.81
4771,47.71
4865,48.65
4962,49.62
5063,50.63
5166,51.66
5271,52.71
5378,53.78
5482,54.82
5579,55.79
5675,56.75
5772,57.72
5874,58.74
5975,59.75
6076,60.76
6177,61.77
6275,62.75
6372,63.72
6474,64.74
6575,65.75
6674,66.74
6772,67.72
6874,68.74
6976,69.76
7077,70.77
7175,71.75
7272,72.72
7367,73.67
7461,74.61
7561,75.61
7667,76.67
7774,77.74
7875,78.75
7972,79.72
8072,80.72
8176,81.76
8273,82.73
8365,83.65
8458,84.58
8549,85.49
8637,86.37
8722,87.22
8809,88.09
8899,88.99
8996,89.96
9101,91.01
9211,92.11
9317,93.17
9418,94.18
9518,95.18
9624,96.24
9733,97.33
9846,98.46
9953,99.53
10052,100.52
10156,101.56
10261,102.61
10365,103.65
10465,104.65
10562,105.62
10664,106.64
10769,107.69
10875,108.75
10976,109.76
11075,110.75
11170,111.7
11272,112.72
11379,113.79
11508,115.08
11638,116.38
11752,117.52
11857,118.57
11960,119.6
12065,120.65
12165,121.65
12258,122.58
12360,123.6
12463,124.63
12561,125.61
12649,126.49
12735,127.35
12823,128.23
12912,129.12
13002,130.02
13092,130.92
13182,131.82
13278,132.78
13374,133.74
13472,134.72
13567,135.67
13663,136.63
13760,137.6
13852,138.52
13944,139.44
14040,140.4
14133,141.33
14225,142.25
14318,143.18
14410,144.1
14501,145.01
14589,145.89
14677,146.77
14765,147.65
14854,148.54
14945,149.45
15040,150.4
15138,151.38
15235,152.35
15331,153.31
15431,154.31
15536,155.36
15643,156.43
15749,157.49
15850,158.5
15951,159.51
16055,160.55
16157,161.57
16256,162.56
16352,163.52
16450,164.5
16554,165.54
16664,166.64
16775,167.75
16881,168.81
16982,169.82
17088,170.88
17194,171.94
17299,172.99
17404,174.04
17502,175.02
17597,175.97
17692,176.92
17785,177.85
17880,178.8
17980,179.8
18085,180.85
18192,181.92
18298,182.98
18400,184.0
18509,185.09
18621,186.21
18730,187.3
18831,188.31
18928,189.28
19027,190.27
19127,191.27
19220,192.2
19311,193.11
19406,194.06
19509,195.09
19615,196.15
19717,197.17
19823,198.23
19933,199.33
20038,200.38
20138,201.38
20237,202.37
20332,203.32
20424,204.24
20514,205.14
20604,206.04
20695,206.95
20787,207.87
20884,208.84
20986,209.86
21088,210.88
21189,211.89
21290,212.9
21393,213.93
21494,214.94
21590,215.9
21687,216.87
21786,217.86
21885,218.85
21981,219.81
22078,220.78
22180,221.8
22278,222.78
22374,223.74
22472,224.72
22571,225.71
22667,226.67
22762,227.62
22860,228.6
22956,229.56
23050,230.5
23144,231.44
23241,232.41
23338,233.38
23432,234.32
23528,235.28
23623,236.23
23717,237.17
23810,238.1
23899,238.99
23989,239.89
24078,240.78
24167,241.67
24259,242.59
24354,243.54
24449,244.49
24543,245.43
24639,246.39
24736,247.36
24832,248.32
24926,249.26
25021,250.21
25117,251.17
25213,252.13
25307,253.07
25400,254.0
25493,254.93
25586,255.86
25679,256.79
25773,257.73
25871,258.71
25967,259.67
26064,260.64
26165,261.65
26268,262.68
26369,263.69
26469,264.69
26570,265.7
26672,266.72
26770,267.7
26868,268.68
26967,269.67
27067,270.67
27167,271.67
27264,272.64
27361,273.61
27460,274.6
27556,275.56
27652,276.52
27749,277.49
27844,278.44
27938,279.38
28034,280.34
28129,281.29
28222,282.22
28315,283.15
28406,284.06
28498,284.98
28592,285.92
28680,286.8
28766,287.66
28853,288.53
28941,289.41
29029,290.29
29116,291.16
29203,292.03
29289,292.89
29378,293.78
29468,294.68
29557,295.57
29646,296.46
29737,297.37
29830,298.3
29921,299.21
30016,300.16
30113,301.13
30209,302.09
30309,303.09
30409,304.09
30509,305.09
30609,306.09
30704,307.04
30798,307.98
30888,308.88
30980,309.8
31074,310.74
31168,311.68
31260,312.6
31350,313.5
31445,314.45
31542,315.42
31633,316.33
31722,317.22
31810,318.1
31896,318.96
31980,319.8
32064,320.64
32148,321.48
32231,322.31
32317,323.17
32401,324.01
32486,324.86
32569,325.69
32651,326.51
32734,327.34
32819,328.19
32904,329.04
32992,329.92
33082,330.82
33176,331.76
33273,332.73
33370,333.7
33468,334.68
33566,335.66
33660,336.6
33753,337.53
33847,338.47
33941,339.41
34035,340.35
34128,341.28
34226,342.26
34326,343.26
34425,344.25
34521,345.21
34620,346.2
34718,347.18
34813,348.13
34908,349.08
35004,350.04
35099,350.99
35195,351.95
35296,352.96
35396,353.96
35495,354.95
35598,355.98
35701,357.01
35802,358.02
35905,359.05
36006,360.06
36101,361.01
36195,361.95
36285,362.85
36380,363.8
36474,364.74
36568,365.68
36668,366.68
36763,367.63
36860,368.6
36959,369.59
37059,370.59
37154,371.54
37251,372.51
37348,373.48
37442,374.42
37535,375.35
37626,376.26
37718,377.18
37808,378.08
37897,378.97
37985,379.85
38066,380.66
38148,381.48
38240,382.4
38323,383.23
38406,384.06
38488,384.88
38569,385.69
38650,386.5
38731,387.31
38811,388.11
38893,388.93
38977,389.77
39062,390.62
39151,391.51
39243,392.43
39336,393.36
39430,394.3
39525,395.25
39625,396.25
39726,397.26
39824,398.24
39919,399.19
40016,400.16
40111,401.11
40205,402.05
40303,403.03
40402,404.02
40500,405.0
40596,405.96
40694,406.94
40794,407.94
40897,408.97
40997,409.97
41099,410.99
41203,412.03
41308,413.08
41412,414.12
41512,415.12
41614,416.14
41718,417.18
41818,418.18
41915,419.15
42017,420.17
42119,421.19
42223,422.23
42324,423.24
42424,424.24
42526,425.26
42632,426.32
42734,427.34
42834,428.34
42932,429.32
43033,430.33
43132,431.32
43229,432.29
43326,433.26
43427,434.27
43532,435.32
43635,436.35
43735,437.35
43835,438.35
43938,439.38
44039,440.39
44137,441.37
44236,442.36
44340,443.4
44446,444.46
44553,445.53
44655,446.55
44757,447.57
44860,448.6
44965,449.65
45066,450.66
45166,451.66
45270,452.7
45376,453.76
45482,454.82
45585,455.85
45689,456.89
45796,457.96
45905,459.05
46008,460.08
46109,461.09
46213,462.13
46319,463.19
46424,464.24
46525,465.25
46623,466.23
46722,467.22
46825,468.25
46931,469.31
47035,470.35
47137,471.37
47243,472.43
47352,473.52
47461,474.61
47565,475.65
47665,476.65
47768,477.68
47871,478.71
47971,479.71
48070,480.7
48169,481.69
48271,482.71
48375,483.75
48479,484.79
48578,485.78
48678,486.78
48778,487.78
48879,488.79
48980,489.8
49079,490.79
49181,491.81
49285,492.85
49391,493.91
49500,495.0
49607,496.07
49711,497.11
49810,498.1
49911,499.11
50012,500.12
50112,501.12
50209,502.09
50305,503.05
50405,504.05
50509,505.09
50618,506.18
50727,507.27
50833,508.33
50935,509.35
51037,510.37
51140,511.4
51246,512.46
51350,513.5
51451,514.51
51549,515.49
51653,516.53
51759,517.59
51867,518.67
51969,519.69
52069,520.69
52173,521.73
52277,522.77
52380,523.8
52480,524.8
52579,525.79
52681,526.81
52786,527.86
52892,528.92
52998,529.98
53107,531.07
53217,532.17
53327,533.27
53435,534.35
53538,535.38
53637,536.37
53737,537.37
53837,538.37
53938,539.38
54039,540.39
54140,541.4
54241,542.41
54344,543.44
54448,544.48
54553,545.53
54656,546.56
54755,547.55
54857,548.57
54959,549.59
55064,550.64
55165,551.65
55265,552.65
55367,553.67
55470,554.7
55576,555.76
55680,556.8
55780,557.8
55877,558.77
55972,559.72
56068,560.68
56166,561.66
56268,562.68
56367,563.67
56466,564.66
56572,565.72
56681,566.81
56789,567.89
56891,568.91
56992,569.92
57095,570.95
57199,571.99
57299,572.99
57396,573.96
57498,574.98
57601,576.01
57703,577.03
57808,578.08
57912,579.12
58014,580.14
58115,581.15
58216,582.16
58319,583.19
58426,584.26
58529,585.29
58630,586.3
58735,587.35
58838,588.38
58944,589.44
59047,590.47
59147,591.47
59243,592.43
59344,593.44
59447,594.47
59547,595.47
59645,596.45
59743,597.43
59847,598.47
59952,599.52
60054,600.54
60153,601.53
60249,602.49
60342,603.42
60439,604.39
60539,605.39
60638,606.38
60734,607.34
60831,608.31
60935,609.35
61041,610.41
61141,611.41
61238,612.38
61337,613.37
61440,614.4
61547,615.47
61655,616.55
61757,617.57
61854,618.54
61955,619.55
62055,620.55
62155,621.55
62252,622.52
62348,623.48
62444,624.44
62544,625.44
62646,626.46
62748,627.48
62848,628.48
62947,629.47
63045,630.45
63150,631.5
63254,632.54
63358,633.58
63464,634.64
63564,635.64
63661,636.61
63758,637.58
63858,638.58
63961,639.61
64069,640.69
64178,641.78
64279,642.79
64376,643.76
64476,644.76
64586,645.86
64696,646.96
64798,647.98
64900,649.0
65009,650.09
65117,651.17
65220,652.2
65317,653.17
65402,654.02
65487,654.87
65603,656.03
65701,657.01
65817,658.17
65920,659.2
66028,660.28
66137,661.37
66244,662.44
66347,663.47
66450,664.5
66556,665.56
66665,666.65
66776,667.76
66883,668.83
66988,669.88
67096,670.96
67205,672.05
67315,673.15
67424,674.24
67529,675.29
67632,676.32
67737,677.37
67844,678.44
67949,679.49
68052,680.52
68152,681.52
68252,682.52
68357,683.57
68466,684.66
68577,685.77
68684,686.84
68789,687.89
68897,688.97
69007,690.07
69116,691.16
69220,692.2
69324,693.24
69430,694.3
69537,695.37
69640,696.4
69741,697.41
69837,698.37
69935,699.35
70039,700.39
70145,701.45
70248,702.48
70349,703.49
70448,704.48
70547,705.47
70649,706.49
70746,707.46
70840,708.4
70937,709.37
71036,710.36
71123,711.23
71208,712.08
71292,712.92
71375,713.75
71462,714.62
71554,715.54
71653,716.53
71761,717.61
71865,718.65
71969,719.69
72078,720.78
72190,721.9
72304,723.04
72415,724.15
72516,725.16
72614,726.14
72714,727.14
72813,728.13
72913,729.13
73014,730.14
73113,731.13
73213,732.13
73315,733.15
73418,734.18
73522,735.22
73620,736.2
73716,737.16
73814,738.14
73915,739.15
74018,740.18
74119,741.19
74219,742.19
74318,743.18
74423,744.23
74531,745.31
74634,746.34
74733,747.33
74831,748.31
74925,749.25
75021,750.21
75119,751.19
75216,752.16
75312,753.12
75406,754.06
75499,754.99
75599,755.99
75692,756.92
75784,757.84
75875,758.75
75966,759.66
76053,760.53
76136,761.36
76224,762.24
76317,763.17
76417,764.17
76523,765.23
76624,766.24
76720,767.2
76819,768.19
76920,769.2
77024,770.24
77124,771.24
77223,772.23
77327,773.27
77432,774.32
77540,775.4
77642,776.42
77740,777.4
77848,778.48
77958,779.58
78072,780.72
78186,781.86
78294,782.94
78399,783.99
78505,785.05
78611,786.11
78717,787.17
78821,788.21
78919,789.19
79016,790.16
79115,791.15
79216,792.16
79313,793.13
79410,794.1
79508,795.08
79613,796.13
79724,797.24
79835,798.35
79933,799.33
80028,800.28
80122,801.22
80212,802.12
80299,802.99
80388,803.88
80480,804.8
80573,805.73
80667,806.67
80765,807.65
80859,808.59
80950,809.5
81039,810.39
81127,811.27
81213,812.13
81306,813.06
81400,814.0
81502,815.02
81611,816.11
81717,817.17
81821,818.21
81934,819.34
82048,820.48
82159,821.59
82269,822.69
82375,823.75
82477,824.77
82577,825.77
82674,826.74
82771,827.71
82870,828.7
82970,829.7
83072,830.72
83177,831.77
83279,832.79
83380,833.8
83484,834.84
83592,835.92
83697,836.97
83797,837.97
83900,839.0
84006,840.06
84114,841.14
84218,842.18
84319,843.19
84420,844.2
84535,845.35
84650,846.5
84760,847.6
84862,848.62
84959,849.59
85062,850.62
85170,851.7
85273,852.73
85373,853.73
85470,854.7
85574,855.74
85682,856.82
85785,857.85
85882,858.82
85977,859.77
86078,860.78
86173,861.73
86261,862.61
86354,863.54
86444,864.44
86533,865.33
86617,866.17
86700,867.0
86790,867.9
86878,868.78
86965,869.65
87052,870.52
87143,871.43
87237,872.37
87334,873.34
87427,874.27
87519,875.19
87615,876.15
87714,877.14
87817,878.17
87915,879.15
88014,880.14
88113,881.13
88217,882.17
88328,883.28
88442,884.42
88556,885.56
88668,886.68
88772,887.72
88877,888.77
88982,889.82
89089,890.89
89194,891.94
89296,892.96
89397,893.97
89500,895.0
89606,896.06
89711,897.11
89816,898.16
89919,899.19
90020,900.2
90123,901.23
90230,902.3
90336,903.36
90442,904.42
90545,905.45
90647,906.47
90753,907.53
90860,908.6
90965,909.65
91065,910.65
91161,911.61
91257,912.57
91357,913.57
91463,914.63
91572,915.72
91675,916.75
91775,917.75
91875,918.75
91978,919.78
92084,920.84
92191,921.91
92291,922.91
92389,923.89
92488,924.88
92591,925.91
92697,926.97
92797,927.97
92894,928.94
92995,929.95
93099,930.99
93196,931.96
93289,932.89
93381,933.81
93471,934.71
93562,935.62
93651,936.51
93736,937.36
93823,938.23
93910,939.1
93997,939.97
94085,940.85
94171,941.71
94258,942.58
94344,943.44
94435,944.35
94530,945.3
94630,946.3
94736,947.36
94835,948.35
94933,949.33
95036,950.36
95146,951.46
95260,952.6
95374,953.74
95480,954.8
95584,955.84
95689,956.89
95795,957.95
95902,959.02
96006,960.06
96108,961.08
96212,962.12
96316,963.16
96421,964.21
96522,965.22
96618,966.18
96716,967.16
96818,968.18
96920,969.2
97019,970.19
97118,971.18
97223,972.23
97337,973.37
97450,974.5
97556,975.56
97657,976.57
97756,977.56
97859,978.59
97962,979.62
98059,980.59
98156,981.56
98258,982.58
98367,983.67
98469,984.69
98567,985.67
98663,986.63
98765,987.65
98870,988.7
98967,989.67
99059,990.59
99153,991.53
99251,992.51
99345,993.45
99438,994.38
99527,995.27
99623,996.23
99720,997.2
99811,998.11
99903,999.03
99995,999.95
100086,1000.86
100173,1001.73
100263,1002.63
100351,1003.51
100435,1004.35
100521,1005.21
100608,1006.08
100692,1006.92
100774,1007.74
100855,1008.55
100937,1009.37
101023,1010.23
101115,1011.15
101219,1012.19
101325,1013.25
101428,1014.28
101536,1015.36
101650,1016.5
101769,1017.69
101887,1018.87
102008,1020.08
102139,1021.39
102258,1022.58
102367,1023.67
102476,1024.76
102577,1025.77
102674,1026.74
102774,1027.74
102878,1028.78
102985,1029.85
103094,1030.94
103198,1031.98
103301,1033.01
103406,1034.06
103513,1035.13
103620,1036.2
103728,1037.28
103828,1038.28
103927,1039.27
104025,1040.25
104127,1041.27
104232,1042.32
104338,1043.38
104462,1044.62
104586,1045.86
104692,1046.92
104792,1047.92
104897,1048.97
105005,1050.05
105111,1051.11
105211,1052.11
105309,1053.09
105410,1054.1
105515,1055.15
105622,1056.22
105722,1057.22
105820,1058.2
105924,1059.24
106029,1060.29
106136,1061.36
106236,1062.36
106331,1063.31
106425,1064.25
106521,1065.21
106620,1066.2
106723,1067.23
106819,1068.19
106914,1069.14
107007,1070.07
107107,1071.07
107207,1072.07
107304,1073.04
107396,1073.96
107486,1074.86
107577,1075.77
107664,1076.64
107749,1077.49
107830,1078.3
107915,1079.15
108006,1080.06
108100,1081.0
108195,1081.95
108287,1082.87
108379,1083.79
108474,1084.74
108570,1085.7
108663,1086.63
108756,1087.56
108853,1088.53
108958,1089.58
109074,1090.74
109196,1091.96
109308,1093.08
109411,1094.11
109517,1095.17
109623,1096.23
109728,1097.28
109832,1098.32
109929,1099.29
110024,1100.24
110122,1101.22
110219,1102.19
110314,1103.14
110407,1104.07
110499,1104.99
110593,1105.93
110694,1106.94
110795,1107.95
110891,1108.91
110985,1109.85
111078,1110.78
111174,1111.74
111270,1112.7
111362,1113.62
111454,1114.54
111547,1115.47
111647,1116.47
111746,1117.46
111840,1118.4
111933,1119.33
112033,1120.33
112136,1121.36
112229,1122.29
112321,1123.21
112416,1124.16
112507,1125.07
112593,1125.93
112677,1126.77
112763,1127.63
112847,1128.47
112930,1129.3
113011,1130.11
113091,1130.91
113176,1131.76
113259,1132.59
113340,1133.4
113419,1134.19
113498,1134.98
113580,1135.8
113664,1136.64
113747,1137.47
113833,1138.33
113925,1139.25
114020,1140.2
114120,1141.2
114224,1142.24
114322,1143.22
114422,1144.22
114529,1145.29
114642,1146.42
114756,1147.56
114868,1148.68
114973,1149.73
115074,1150.74
115180,1151.8
115286,1152.86
115389,1153.89
115490,1154.9
115587,1155.87
115680,1156.8
115772,1157.72
115863,1158.63
115961,1159.61
116064,1160.64
116162,1161.62
116259,1162.59
116353,1163.53
116451,1164.51
116552,1165.52
116651,1166.51
116744,1167.44
116834,1168.34
116924,1169.24
117019,1170.19
117116,1171.16
117207,1172.07
117299,1172.99
117388,1173.88
117482,1174.82
117576,1175.76
117665,1176.65
117754,1177.54
117844,1178.44
117933,1179.33
118018,1180.18
118103,1181.03
118186,1181.86
118267,1182.67
118348,1183.48
118432,1184.32
118517,1185.17
118600,1186.0
118684,1186.84
118769,1187.69
118853,1188.53
118936,1189.36
119023,1190.23
119114,1191.14
119213,1192.13
119311,1193.11
119408,1194.08
119503,1195.03
119606,1196.06
119714,1197.14
119825,1198.25
119939,1199.39
120054,1200.54
120159,1201.59
120262,1202.62
120369,1203.69
120479,1204.79
120588,1205.88
120698,1206.98
120807,1208.07
120910,1209.1
121008,1210.08
121106,1211.06
121204,1212.04
121303,1213.03
121398,1213.98
121493,1214.93
121592,1215.92
121694,1216.94
121793,1217.93
121889,1218.89
121985,1219.85
122078,1220.78
122175,1221.75
122278,1222.78
122376,1223.76
122472,1224.72
122566,1225.66
122659,1226.59
122759,1227.59
122858,1228.58
122953,1229.53
123046,1230.46
123137,1231.37
123233,1232.33
123323,1233.23
123410,1234.1
123498,1234.98
123584,1235.84
123669,1236.69
123752,1237.52
123837,1238.37
123925,1239.25
124011,1240.11
124094,1240.94
124183,1241.83
124268,1242.68
124352,1243.52
124432,1244.32
124511,1245.11
124591,1245.91
124672,1246.72
124752,1247.52
124832,1248.32
124917,1249.17
125004,1250.04
125095,1250.95
125192,1251.92
125287,1252.87
125383,1253.83
125484,1254.84
125586,1255.86
125694,1256.94
125801,1258.01
125910,1259.1
126017,1260.17
126120,1261.2
126220,1262.2
126321,1263.21
126424,1264.24
126528,1265.28
126634,1266.34
126739,1267.39
126838,1268.38
126934,1269.34
127032,1270.32
127131,1271.31
127229,1272.29
127325,1273.25
127421,1274.21
127522,1275.22
127623,1276.23
127720,1277.2
127816,1278.16
127909,1279.09
128009,1280.09
128112,1281.12
128214,1282.14
128312,1283.12
128409,1284.09
128507,1285.07
128610,1286.1
128718,1287.18
128815,1288.15
128909,1289.09
129002,1290.02
129101,1291.01
129204,1292.04
129299,1292.99
129391,1293.91
129486,1294.86
129579,1295.79
129664,1296.64
129754,1297.54
129844,1298.44
129931,1299.31
130014,1300.14
130097,1300.97
130184,1301.84
130271,1302.71
130356,1303.56
130442,1304.42
130532,1305.32
130624,1306.24
130714,1307.14
130805,1308.05
130899,1308.99
130997,1309.97
131099,1310.99
131207,1312.07
131308,1313.08
131407,1314.07
131512,1315.12
131617,1316.17
131724,1317.24
131824,1318.24
131924,1319.24
132026,1320.26
132127,1321.27
132229,1322.29
132334,1323.34
132439,1324.39
132542,1325.42
132643,1326.43
132745,1327.45
132847,1328.47
132951,1329.51
133057,1330.57
133157,1331.57
133255,1332.55
133350,1333.5
133450,1334.5
133550,1335.5
133650,1336.5
133746,1337.46
133842,1338.42
133942,1339.42
134047,1340.47
134150,1341.5
134247,1342.47
134342,1343.42
134439,1344.39
134543,1345.43
134648,1346.48
134745,1347.45
134839,1348.39
134934,1349.34
135032,1350.32
135130,1351.3
135221,1352.21
135314,1353.14
135413,1354.13
135514,1355.14
135607,1356.07
135699,1356.99
135798,1357.98
135901,1359.01
135998,1359.98
136087,1360.87
136182,1361.82
136273,1362.73
136359,1363.59
136446,1364.46
136532,1365.32
136616,1366.16
136700,1367.0
136786,1367.86
136871,1368.71
136957,1369.57
137041,1370.41
137128,1371.28
137217,1372.17
137307,1373.07
137393,1373.93
137480,1374.8
137572,1375.72
137668,1376.68
137768,1377.68
137864,1378.64
137960,1379.6
138064,1380.64
138172,1381.72
138284,1382.84
138397,1383.97
138510,1385.1
138619,1386.19
138718,1387.18
138815,1388.15
138914,1389.14
139015,1390.15
139116,1391.16
139218,1392.18
139318,1393.18
139413,1394.13
139507,1395.07
139598,1395.98
139696,1396.96
139796,1397.96
139901,1399.01
139997,1399.97
140093,1400.93
140188,1401.88
140285,1402.85
140386,1403.86
140480,1404.8
140574,1405.74
140673,1406.73
140774,1407.74
140871,1408.71
140966,1409.66
141058,1410.58
141154,1411.54
141252,1412.52
141346,1413.46
141435,1414.35
141530,1415.3
141628,1416.28
141724,1417.24
141811,1418.11
141902,1419.02
141993,1419.93
142079,1420.79
142166,1421.66
142252,1422.52
142338,1423.38
142422,1424.22
142507,1425.07
142594,1425.94
142678,1426.78
142761,1427.61
142841,1428.41
142925,1429.25
143010,1430.1
143097,1430.97
143185,1431.85
143272,1432.72
143359,1433.59
143448,1434.48
143541,1435.41
143640,1436.4
143744,1437.44
143852,1438.52
143954,1439.54
144051,1440.51
144152,1441.52
144254,1442.54
144356,1443.56
144458,1444.58
144560,1445.6
144659,1446.59
144753,1447.53
144849,1448.49
144948,1449.48
145052,1450.52
145153,1451.53
145251,1452.51
145348,1453.48
145451,1454.51
145558,1455.58
145667,1456.67
145771,1457.71
145867,1458.67
145961,1459.61
146061,1460.61
146160,1461.6
146256,1462.56
146351,1463.51
146452,1464.52
146556,1465.56
146663,1466.63
146760,1467.6
146853,1468.53
146950,1469.5
147050,1470.5
147147,1471.47
147238,1472.38
147332,1473.32
147426,1474.26
147523,1475.23
147616,1476.16
147703,1477.03
147796,1477.96
147890,1478.9
147985,1479.85
148071,1480.71
148160,1481.6
148248,1482.48
148332,1483.32
148417,1484.17
148503,1485.03
148585,1485.85
148670,1486.7
148754,1487.54
148835,1488.35
148920,1489.2
149004,1490.04
149085,1490.85
149163,1491.63
149243,1492.43
149326,1493.26
149409,1494.09
149497,1494.97
149587,1495.87
149676,1496.76
149766,1497.66
149864,1498.64
149967,1499.67
150075,1500.75
150185,1501.85
150292,1502.92
150398,1503.98
150500,1505.0
150600,1506.0
150692,1506.92
150787,1507.87
150881,1508.81
150977,1509.77
151072,1510.72
151167,1511.67
151258,1512.58
151350,1513.5
151441,1514.41
151539,1515.39
151641,1516.41
151747,1517.47
151847,1518.47
151945,1519.45
152042,1520.42
152147,1521.47
152260,1522.6
152364,1523.64
152461,1524.61
152556,1525.56
152658,1526.58
152762,1527.62
152859,1528.59
152953,1529.53
153046,1530.46
153143,1531.43
153243,1532.43
153334,1533.34
153423,1534.23
153517,1535.17
153614,1536.14
153710,1537.1
153800,1538.0
153892,1538.92
153990,1539.9
154090,1540.9
154182,1541.82
154273,1542.73
154371,1543.71
154470,1544.7
154557,1545.57
154645,1546.45
154738,1547.38
154830,1548.3
154914,1549.14
155003,1550.03
155091,1550.91
155174,1551.74
155259,1552.59
155344,1553.44
155426,1554.26
155511,1555.11
155595,1555.95
155676,1556.76
155761,1557.61
155845,1558.45
155926,1559.26
156006,1560.06
156089,1560.89
156174,1561.74
156262,1562.62
156348,1563.48
156435,1564.35
156527,1565.27
156624,1566.24
156726,1567.26
156834,1568.34
156944,1569.44
157059,1570.59
157173,1571.73
157280,1572.8
157385,1573.85
157488,1574.88
157589,1575.89
157690,1576.9
157790,1577.9
157889,1578.89
157985,1579.85
158082,1580.82
158178,1581.78
158272,1582.72
158360,1583.6
158449,1584.49
158543,1585.43
158638,1586.38
158736,1587.36
158830,1588.3
158922,1589.22
159011,1590.11
159108,1591.08
159204,1592.04
159307,1593.07
159403,1594.03
159498,1594.98
159600,1596.0
159703,1597.03
159801,1598.01
159895,1598.95
159986,1599.86
160079,1600.79
160175,1601.75
160263,1602.63
160352,1603.52
160447,1604.47
160543,1605.43
160640,1606.4
160732,1607.32
160820,1608.2
160917,1609.17
161014,1610.14
161105,1611.05
161192,1611.92
161288,1612.88
161385,1613.85
161476,1614.76
161563,1615.63
161659,1616.59
161756,1617.56
161845,1618.45
161932,1619.32
162022,1620.22
162108,1621.08
162192,1621.92
162275,1622.75
162358,1623.58
162439,1624.39
162524,1625.24
162605,1626.05
162685,1626.85
162769,1627.69
162851,1628.51
162930,1629.3
163011,1630.11
163093,1630.93
163177,1631.77
163265,1632.65
163351,1633.51
163438,1634.38
163533,1635.33
163634,1636.34
163741,1637.41
163851,1638.51
163963,1639.63
164072,1640.72
164176,1641.76
164278,1642.78
164380,1643.8
164479,1644.79
164577,1645.77
164675,1646.75
164773,1647.73
164871,1648.71
164965,1649.65
165062,1650.62
165157,1651.57
165254,1652.54
165347,1653.47
165438,1654.38
165529,1655.29
165626,1656.26
165728,1657.28
165833,1658.33
165938,1659.38
166034,1660.34
166128,1661.28
166229,1662.29
166332,1663.32
166430,1664.3
166524,1665.24
166616,1666.16
166714,1667.14
166815,1668.15
166913,1669.13
167003,1670.03
167093,1670.93
167188,1671.88
167285,1672.85
167376,1673.76
167463,1674.63
167556,1675.56
167653,1676.53
167744,1677.44
167831,1678.31
167922,1679.22
168013,1680.13
168105,1681.05
168190,1681.9
168275,1682.75
168367,1683.67
168461,1684.61
168544,1685.44
168632,1686.32
168716,1687.16
168801,1688.01
168884,1688.84
168965,1689.65
169051,1690.51
169134,1691.34
169217,1692.17
169302,1693.02
169389,1693.89
169474,1694.74
169556,1695.56
169645,1696.45
169733,1697.33
169824,1698.24
169912,1699.12
170004,1700.04
170106,1701.06
170212,1702.12
170322,1703.22
170431,1704.31
170537,1705.37
170640,1706.4
170741,1707.41
170841,1708.41
170941,1709.41
171041,1710.41
171141,1711.41
171242,1712.42
171342,1713.42
171436,1714.36
171529,1715.29
171624,1716.24
171720,1717.2
171820,1718.2
171920,1719.2
172014,1720.14
172106,1721.06
172196,1721.96
172288,1722.88
172383,1723.83
172483,1724.83
172577,1725.77
172669,1726.69
172766,1727.66
172865,1728.65
172960,1729.6
173050,1730.5
173141,1731.41
173235,1732.35
173332,1733.32
173419,1734.19
173507,1735.07
173599,1735.99
173691,1736.91
173779,1737.79
173863,1738.63
173955,1739.55
174047,1740.47
174131,1741.31
174220,1742.2
174314,1743.14
174406,1744.06
174492,1744.92
174584,1745.84
174674,1746.74
174755,1747.55
174841,1748.41
174923,1749.23
175003,1750.03
175085,1750.85
175166,1751.66
175245,1752.45
175329,1753.29
175410,1754.1
175491,1754.91
175573,1755.73
175653,1756.53
175730,1757.3
175813,1758.13
175894,1758.94
175976,1759.76
176058,1760.58
176141,1761.41
176224,1762.24
176311,1763.11
176402,1764.02
176495,1764.95
176592,1765.92
176692,1766.92
176786,1767.86
176884,1768.84
176982,1769.82
177081,1770.81
177181,1771.81
177283,1772.83
177382,1773.82
177480,1774.8
177579,1775.79
177678,1776.78
177776,1777.76
177874,1778.74
177969,1779.69
178060,1780.6
178147,1781.47
178240,1782.4
178333,1783.33
178430,1784.3
178519,1785.19
178605,1786.05
178691,1786.91
178782,1787.82
178875,1788.75
178973,1789.73
179064,1790.64
179154,1791.54
179248,1792.48
179344,1793.44
179436,1794.36
179524,1795.24
179610,1796.1
179703,1797.03
179795,1797.95
179880,1798.8
179969,1799.69
180058,1800.58
180153,1801.53
180246,1802.46
180334,1803.34
180423,1804.23
180516,1805.16
180612,1806.12
180699,1806.99
180788,1807.88
180881,1808.81
180977,1809.77
181063,1810.63
181150,1811.5
181238,1812.38
181329,1813.29
181415,1814.15
181501,1815.01
181591,1815.91
181679,1816.79
181761,1817.61
181849,1818.49
181932,1819.32
182014,1820.14
182096,1820.96
182176,1821.76
182258,1822.58
182340,1823.4
182419,1824.19
182502,1825.02
182584,1825.84
182662,1826.62
182742,1827.42
182823,1828.23
182905,1829.05
182990,1829.9
183073,1830.73
183158,1831.58
183248,1832.48
183345,1833.45
183449,1834.49
183560,1835.6
183676,1836.76
183793,1837.93
183908,1839.08
184017,1840.17
184121,1841.21
184222,1842.22
184320,1843.2
184412,1844.12
184503,1845.03
184596,1845.96
184693,1846.93
184789,1847.89
184881,1848.81
184971,1849.71
185058,1850.58
185153,1851.53
185249,1852.49
185343,1853.43
185431,1854.31
185520,1855.2
185613,1856.13
185707,1857.07
185806,1858.06
185895,1858.95
185984,1859.84
186078,1860.78
186172,1861.72
186264,1862.64
186351,1863.51
186440,1864.4
186531,1865.31
186625,1866.25
186713,1867.13
186801,1868.01
186891,1868.91
186984,1869.84
187072,1870.72
187156,1871.56
187246,1872.46
187334,1873.34
187417,1874.17
187500,1875.0
187590,1875.9
187676,1876.76
187758,1877.58
187843,1878.43
187925,1879.25
188004,1880.04
188088,1880.88
188167,1881.67
188246,1882.46
188327,1883.27
188404,1884.04
188482,1884.82
188561,1885.61
188642,1886.42
188725,1887.25
188805,1888.05
188891,1888.91
188982,1889.82
189085,1890.85
189195,1891.95
189311,1893.11
189429,1894.29
189544,1895.44
189655,1896.55
189758,1897.58
189856,1898.56
189951,1899.51
190046,1900.46
190140,1901.4
190233,1902.33
190325,1903.25
190414,1904.14
190502,1905.02
190588,1905.88
190679,1906.79
190771,1907.71
190866,1908.66
190958,1909.58
191045,1910.45
191132,1911.32
191228,1912.28
191322,1913.22
191413,1914.13
191500,1915.0
191590,1915.9
191684,1916.84
191780,1917.8
191868,1918.68
191957,1919.57
192047,1920.47
192136,1921.36
192225,1922.25
192308,1923.08
192394,1923.94
192481,1924.81
192570,1925.7
192654,1926.54
192739,1927.39
192828,1928.28
192916,1929.16
193003,1930.03
193084,1930.84
193170,1931.7
193256,1932.56
193347,1933.47
193432,1934.32
193517,1935.17
193603,1936.03
193685,1936.85
193767,1937.67
193849,1938.49
193929,1939.29
194012,1940.12
194093,1940.93
194172,1941.72
194254,1942.54
194335,1943.35
194415,1944.15
194494,1944.94
194576,1945.76
194661,1946.61
194749,1947.49
194845,1948.45
194940,1949.4
195033,1950.33
195128,1951.28
195221,1952.21
195311,1953.11
195395,1953.95
195473,1954.73
195554,1955.54
195634,1956.34
195714,1957.14
195795,1957.95
195876,1958.76
195956,1959.56
196037,1960.37
196118,1961.18
196198,1961.98
196279,1962.79
196357,1963.57
196436,1964.36
196513,1965.13
196588,1965.88
196664,1966.64
196738,1967.38
196812,1968.12
196885,1968.85
196958,1969.58
197029,1970.29
197101,1971.01
197171,1971.71
197242,1972.42
197314,1973.14
197388,1973.88
197462,1974.62
197539,1975.39
197617,1976.17
197697,1976.97
197778,1977.78
197860,1978.6
197942,1979.42
198020,1980.2
198100,1981.0
198180,1981.8
198259,1982.59
198340,1983.4
198422,1984.22
198506,1985.06
198590,1985.9
198676,1986.76
198762,1987.62
198847,1988.47
198931,1989.31
199010,1990.1
199087,1990.87
199163,1991.63
199240,1992.4
199314,1993.14
199388,1993.88
199462,1994.62
199537,1995.37
199614,1996.14
199693,1996.93
199773,1997.73
199854,1998.54
199935,1999.35
200018,2000.18
200102,2001.02
200186,2001.86
200271,2002.71
200354,2003.54
200437,2004.37
200519,2005.19
200601,2006.01
200682,2006.82
200762,2007.62
200843,2008.43
200923,2009.23
201002,2010.02
201081,2010.81
201161,2011.61
201240,2012.4
201320,2013.2
201399,2013.99
201479,2014.79
201560,2015.6
201640,2016.4
201721,2017.21
201803,2018.03
201885,2018.85
201967,2019.67
202048,2020.48
202129,2021.29
202208,2022.08
202286,2022.86
202364,2023.64
202442,2024.42
202520,2025.2
202601,2026.01
202686,2026.86
202775,2027.75
202864,2028.64
202951,2029.51
203036,2030.36
203120,2031.2
203202,2032.02
203286,2032.86
203371,2033.71
203456,2034.56
203543,2035.43
203631,2036.31
203721,2037.21
203810,2038.1
203898,2038.98
203988,2039.88
204076,2040.76
204166,2041.66
204255,2042.55
204343,2043.43
204429,2044.29
204515,2045.15
204600,2046.0
204684,2046.84
204768,2047.68
204851,2048.51
204934,2049.34
205016,2050.16
205097,2050.97
205178,2051.78
205257,2052.57
205337,2053.37
205418,2054.18
205501,2055.01
205587,2055.87
205672,2056.72
205760,2057.6
205848,2058.48
205935,2059.35
206021,2060.21
206108,2061.08
206194,2061.94
206280,2062.8
206366,2063.66
206453,2064.53
206538,2065.38
206625,2066.25
206713,2067.13
206801,2068.01
206892,2068.92
206984,2069.84
207072,2070.72
207160,2071.6
207248,2072.48
207332,2073.32
207417,2074.17
207499,2074.99
207581,2075.81
207662,2076.62
207741,2077.41
207820,2078.2
207899,2078.99
207980,2079.8
208059,2080.59
208141,2081.41
208224,2082.24
208310,2083.1
208398,2083.98
208489,2084.89
208583,2085.83
208678,2086.78
208770,2087.7
208863,2088.63
208954,2089.54
209043,2090.43
209132,2091.32
209219,2092.19
209306,2093.06
209392,2093.92
209481,2094.81
209572,2095.72
209661,2096.61
209753,2097.53
209846,2098.46
209941,2099.41
210032,2100.32
210125,2101.25
210216,2102.16
210305,2103.05
210394,2103.94
210481,2104.81
210564,2105.64
210645,2106.45
210731,2107.31
210816,2108.16
210904,2109.04
210993,2109.93
211080,2110.8
211168,2111.68
211255,2112.55
211341,2113.41
211427,2114.27
211515,2115.15
211602,2116.02
211690,2116.9
211782,2117.82
211876,2118.76
211970,2119.7
212063,2120.63
212159,2121.59
212256,2122.56
212350,2123.5
212442,2124.42
212537,2125.37
212632,2126.32
212729,2127.29
212821,2128.21
212912,2129.12
213001,2130.01
213084,2130.84
213168,2131.68
213256,2132.56
213341,2133.41
213424,2134.24
213505,2135.05
213586,2135.86
213669,2136.69
213756,2137.56
213843,2138.43
213929,2139.29
214016,2140.16
214107,2141.07
214200,2142.0
214295,2142.95
214390,2143.9
214487,2144.87
214585,2145.85
214683,2146.83
214780,2147.8
214876,2148.76
214971,2149.71
215067,2150.67
215165,2151.65
215265,2152.65
215363,2153.63
215460,2154.6
215559,2155.59
215658,2156.58
215756,2157.56
215852,2158.52
215946,2159.46
216040,2160.4
216136,2161.36
216232,2162.32
216322,2163.22
216411,2164.11
216498,2164.98
216583,2165.83
216667,2166.67
216751,2167.51
216836,2168.36
216924,2169.24
217011,2170.11
217099,2170.99
217187,2171.87
217275,2172.75
217363,2173.63
217448,2174.48
217533,2175.33
217616,2176.16
217699,2176.99
217781,2177.81
217863,2178.63
217946,2179.46
218031,2180.31
218114,2181.14
218199,2181.99
218285,2182.85
218368,2183.68
218450,2184.5
218530,2185.3
218610,2186.1
218688,2186.88
218766,2187.66
218843,2188.43
218921,2189.21
218998,2189.98
219076,2190.76
219153,2191.53
219230,2192.3
219307,2193.07
219384,2193.84
219459,2194.59
219534,2195.34
219608,2196.08
219684,2196.84
219759,2197.59
219837,2198.37
219916,2199.16
219996,2199.96
220077,2200.77
220159,2201.59
220241,2202.41
220323,2203.23
220405,2204.05
220487,2204.87
220567,2205.67
220649,2206.49
220730,2207.3
220926,2209.26
221123,2211.23
221195,2211.95
221266,2212.66
221335,2213.35
221405,2214.05
221475,2214.75
221546,2215.46
221617,2216.17
221689,2216.89
221763,2217.63
221836,2218.36
221911,2219.11
221988,2219.88
222065,2220.65
222142,2221.42
222221,2222.21
222300,2223.0
222378,2223.78
222457,2224.57
222536,2225.36
222615,2226.15
222694,2226.94
222772,2227.72
222851,2228.51
222929,2229.29
223006,2230.06
223083,2230.83
223161,2231.61
223240,2232.4
223319,2233.19
223398,2233.98
223475,2234.75
223554,2235.54
223632,2236.32
223711,2237.11
223792,2237.92
223874,2238.74
223958,2239.58
224043,2240.43
224129,2241.29
224214,2242.14
224299,2242.99
224385,2243.85
224470,2244.7
224554,2245.54
224638,2246.38
224722,2247.22
224807,2248.07
224894,2248.94
224983,2249.83
225071,2250.71
225160,2251.6
225251,2252.51
225343,2253.43
225433,2254.33
225522,2255.22
225612,2256.12
225703,2257.03
225793,2257.93
225882,2258.82
225971,2259.71
226062,2260.62
226155,2261.55
226249,2262.49
226342,2263.42
226432,2264.32
226522,2265.22
226612,2266.12
226702,2267.02
226791,2267.91
226878,2268.78
226965,2269.65
227052,2270.52
227142,2271.42
227233,2272.33
227323,2273.23
227417,2274.17
227511,2275.11
227603,2276.03
227693,2276.93
227784,2277.84
227876,2278.76
227966,2279.66
228053,2280.53
228142,2281.42
228229,2282.29
228314,2283.14
228398,2283.98
228483,2284.83
228568,2285.68
228653,2286.53
228739,2287.39
228825,2288.25
228912,2289.12
228998,2289.98
229083,2290.83
229167,2291.67
229249,2292.49
229331,2293.31
229412,2294.12
229489,2294.89
229569,2295.69
229649,2296.49
229729,2297.29
229811,2298.11
229895,2298.95
229978,2299.78
230062,2300.62
230148,2301.48
230236,2302.36
230325,2303.25
230412,2304.12
230499,2304.99
230583,2305.83
230668,2306.68
230754,2307.54
230839,2308.39
230923,2309.23
231007,2310.07
231091,2310.91
231173,2311.73
231256,2312.56
231338,2313.38
231419,2314.19
231500,2315.0
231581,2315.81
231662,2316.62
231743,2317.43
231824,2318.24
231906,2319.06
231987,2319.87
232070,2320.7
232152,2321.52
232235,2322.35
232318,2323.18
232401,2324.01
232483,2324.83
232566,2325.66
232649,2326.49
232731,2327.31
232812,2328.12
232892,2328.92
232972,2329.72
233052,2330.52
233132,2331.32
233211,2332.11
233291,2332.91
233371,2333.71
233452,2334.52
233532,2335.32
233612,2336.12
233691,2336.91
233771,2337.71
233849,2338.49
233926,2339.26
234004,2340.04
234082,2340.82
234160,2341.6
234238,2342.38
234314,2343.14
234390,2343.9
234467,2344.67
234543,2345.43
234619,2346.19
234695,2346.95
234770,2347.7
234846,2348.46
234922,2349.22
234999,2349.99
235078,2350.78
235155,2351.55
235233,2352.33
235311,2353.11
235388,2353.88
235464,2354.64
235540,2355.4
235615,2356.15
235690,2356.9
235764,2357.64
235838,2358.38
235912,2359.12
235987,2359.87
236062,2360.62
236138,2361.38
236213,2362.13
236289,2362.89
236366,2363.66
236443,2364.43
236521,2365.21
236598,2365.98
236676,2366.76
236753,2367.53
236829,2368.29
236905,2369.05
236981,2369.81
237057,2370.57
237132,2371.32
237207,2372.07
237282,2372.82
237356,2373.56
237432,2374.32
237508,2375.08
237585,2375.85
237662,2376.62
237739,2377.39
237816,2378.16
237893,2378.93
237969,2379.69
238044,2380.44
238118,2381.18
238191,2381.91
238262,2382.62
238332,2383.32
238402,2384.02
238470,2384.7
238537,2385.37
238605,2386.05
238673,2386.73
238743,2387.43
238813,2388.13
238884,2388.84
238955,2389.55
239028,2390.28
239103,2391.03
239178,2391.78
239255,2392.55
239335,2393.35
239414,2394.14
239495,2394.95
239577,2395.77
239656,2396.56
239735,2397.35
239813,2398.13
239888,2398.88
239964,2399.64
240039,2400.39
240115,2401.15
240190,2401.9
240265,2402.65
240340,2403.4
240415,2404.15
240491,2404.91
240565,2405.65
240640,2406.4
240714,2407.14
240788,2407.88
240862,2408.62
240937,2409.37
241012,2410.12
241088,2410.88
241164,2411.64
241240,2412.4
241316,2413.16
241392,2413.92
241467,2414.67
241542,2415.42
241617,2416.17
241692,2416.92
241766,2417.66
241839,2418.39
241914,2419.14
241987,2419.87
242060,2420.6
242134,2421.34
242208,2422.08
242284,2422.84
242361,2423.61
242439,2424.39
242518,2425.18
242598,2425.98
242678,2426.78
242761,2427.61
242845,2428.45
242931,2429.31
243016,2430.16
243103,2431.03
243190,2431.9
243277,2432.77
243363,2433.63
243451,2434.51
243541,2435.41
243631,2436.31
243721,2437.21
243815,2438.15
243911,2439.11
244008,2440.08
244104,2441.04
244202,2442.02
244298,2442.98
244392,2443.92
244486,2444.86
244581,2445.81
244675,2446.75
244763,2447.63
244849,2448.49
244930,2449.3
245012,2450.12
245095,2450.95
245179,2451.79
245261,2452.61
245341,2453.41
245423,2454.23
245505,2455.05
245587,2455.87
245668,2456.68
245747,2457.47
245826,2458.26
245906,2459.06
245985,2459.85
246066,2460.66
246148,2461.48
246231,2462.31
246315,2463.15
246402,2464.02
246492,2464.92
246583,2465.83
246674,2466.74
246769,2467.69
246866,2468.66
246962,2469.62
247053,2470.53
247144,2471.44
247233,2472.33
247320,2473.2
247408,2474.08
247494,2474.94
247582,2475.82
247670,2476.7
247759,2477.59
247847,2478.47
247935,2479.35
248024,2480.24
248111,2481.11
248199,2481.99
248285,2482.85
248371,2483.71
248455,2484.55
248538,2485.38
248621,2486.21
248703,2487.03
248786,2487.86
248871,2488.71
248956,2489.56
249039,2490.39
249124,2491.24
249210,2492.1
249295,2492.95
249379,2493.79
249462,2494.62
249547,2495.47
249633,2496.33
249721,2497.21
249813,2498.13
249910,2499.1
250006,2500.06
250102,2501.02
250200,2502.0
250300,2503.0
250400,2504.0
250496,2504.96
250590,2505.9
250686,2506.86
250780,2507.8
250875,2508.75
250977,2509.77
251079,2510.79
251176,2511.76
251274,2512.74
251367,2513.67
251460,2514.6
251557,2515.57
251656,2516.56
251755,2517.55
251851,2518.51
251946,2519.46
252042,2520.42
252139,2521.39
252234,2522.34
252326,2523.26
252417,2524.17
252510,2525.1
252604,2526.04
252697,2526.97
252789,2527.89
252881,2528.81
252975,2529.75
253071,2530.71
253165,2531.65
253258,2532.58
253353,2533.53
253449,2534.49
253545,2535.45
253638,2536.38
253731,2537.31
253825,2538.25
253922,2539.22
254019,2540.19
254112,2541.12
254207,2542.07
254300,2543.0
254390,2543.9
254481,2544.81
254572,2545.72
254662,2546.62
254750,2547.5
254837,2548.37
254925,2549.25
255012,2550.12
255100,2551.0
255191,2551.91
255285,2552.85
255383,2553.83
255480,2554.8
255575,2555.75
255674,2556.74
255776,2557.76
255878,2558.78
255974,2559.74
256070,2560.7
256168,2561.68
256266,2562.66
256363,2563.63
256457,2564.57
256552,2565.52
256649,2566.49
256748,2567.48
256842,2568.42
256938,2569.38
257036,2570.36
257135,2571.35
257234,2572.34
257329,2573.29
257424,2574.24
257522,2575.22
257619,2576.19
257715,2577.15
257809,2578.09
257902,2579.02
257998,2579.98
258095,2580.95
258191,2581.91
258284,2582.84
258376,2583.76
258470,2584.7
258566,2585.66
258662,2586.62
258755,2587.55
258847,2588.47
258938,2589.38
259030,2590.3
259125,2591.25
259221,2592.21
259312,2593.12
259401,2594.01
259492,2594.92
259579,2595.79
259665,2596.65
259749,2597.49
259837,2598.37
259924,2599.24
260013,2600.13
260107,2601.07
260204,2602.04
260301,2603.01
260395,2603.95
260491,2604.91
260589,2605.89
260687,2606.87
260783,2607.83
260876,2608.76
260972,2609.72
261070,2610.7
261168,2611.68
261263,2612.63
261362,2613.62
261465,2614.65
261569,2615.69
261667,2616.67
261764,2617.64
261861,2618.61
261958,2619.58
262057,2620.57
262151,2621.51
262243,2622.43
262339,2623.39
262435,2624.35
262533,2625.33
262629,2626.29
262723,2627.23
262821,2628.21
262922,2629.22
263022,2630.22
263117,2631.17
263211,2632.11
263306,2633.06
263403,2634.03
263500,2635.0
263595,2635.95
263689,2636.89
263788,2637.88
263888,2638.88
263986,2639.86
264080,2640.8
264175,2641.75
264272,2642.72
264370,2643.7
264467,2644.67
264561,2645.61
264656,2646.56
264753,2647.53
264851,2648.51
264950,2649.5
265044,2650.44
265138,2651.38
265234,2652.34
265330,2653.3
265427,2654.27
265520,2655.2
265613,2656.13
265709,2657.09
265805,2658.05
265903,2659.03
265997,2659.97
266091,2660.91
266188,2661.88
266286,2662.86
266385,2663.85
266480,2664.8
266572,2665.72
266667,2666.67
266762,2667.62
266859,2668.59
266952,2669.52
267045,2670.45
267140,2671.4
267236,2672.36
267336,2673.36
267432,2674.32
267527,2675.27
267624,2676.24
267724,2677.24
267823,2678.23
267918,2679.18
268012,2680.12
268109,2681.09
268206,2682.06
268302,2683.02
268397,2683.97
268491,2684.91
268590,2685.9
268688,2686.88
268789,2687.89
268885,2688.85
268979,2689.79
269078,2690.78
269178,2691.78
269280,2692.8
269377,2693.77
269473,2694.73
269571,2695.71
269672,2696.72
269774,2697.74
269871,2698.71
269965,2699.65
270062,2700.62
270159,2701.59
270257,2702.57
270352,2703.52
270447,2704.47
270543,2705.43
270641,2706.41
270738,2707.38
270833,2708.33
270928,2709.28
271024,2710.24
271123,2711.23
271217,2712.17
271310,2713.1
271405,2714.05
271501,2715.01
271597,2715.97
271690,2716.9
271781,2717.81
271875,2718.75
271971,2719.71
272066,2720.66
272160,2721.6
272256,2722.56
272354,2723.54
272454,2724.54
272552,2725.52
272647,2726.47
272743,2727.43
272839,2728.39
272937,2729.37
273032,2730.32
273126,2731.26
273219,2732.19
273316,2733.16
273415,2734.15
273516,2735.16
273613,2736.13
273711,2737.11
273811,2738.11
273913,2739.13
274014,2740.14
274111,2741.11
274206,2742.06
274301,2743.01
274398,2743.98
274496,2744.96
274591,2745.91
274685,2746.85
274781,2747.81
274879,2748.79
274976,2749.76
275071,2750.71
275164,2751.64
275260,2752.6
275356,2753.56
275452,2754.52
275546,2755.46
275640,2756.4
275738,2757.38
275835,2758.35
275933,2759.33
276028,2760.28
276123,2761.23
276222,2762.22
276322,2763.22
276423,2764.23
276521,2765.21
276619,2766.19
276719,2767.19
276818,2768.18
276912,2769.12
277007,2770.07
277104,2771.04
277202,2772.02
277300,2773.0
277395,2773.95
277491,2774.91
277588,2775.88
277685,2776.85
277781,2777.81
277876,2778.76
277971,2779.71
278068,2780.68
278165,2781.65
278258,2782.58
278351,2783.51
278445,2784.45
278540,2785.4
278633,2786.33
278726,2787.26
278819,2788.19
278916,2789.16
279011,2790.11
279104,2791.04
279196,2791.96
279290,2792.9
279385,2793.85
279481,2794.81
279574,2795.74
279668,2796.68
279765,2797.65
279862,2798.62
279957,2799.57
280051,2800.51
280145,2801.45
280241,2802.41
280337,2803.37
280430,2804.3
280522,2805.22
280616,2806.16
280712,2807.12
280808,2808.08
280900,2809.0
280992,2809.92
281086,2810.86
281181,2811.81
281277,2812.77
281371,2813.71
281466,2814.66
281563,2815.63
281662,2816.62
281759,2817.59
281853,2818.53
281946,2819.46
282041,2820.41
282136,2821.36
282232,2822.32
282324,2823.24
282416,2824.16
282510,2825.1
282604,2826.04
282699,2826.99
282791,2827.91
282882,2828.82
282975,2829.75
283072,2830.72
283169,2831.69
283263,2832.63
283357,2833.57
283453,2834.53
283550,2835.5
283647,2836.47
283740,2837.4
283832,2838.32
283926,2839.26
284021,2840.21
284115,2841.15
284207,2842.07
284298,2842.98
284392,2843.92
284489,2844.89
284584,2845.84
284678,2846.78
284773,2847.73
284869,2848.69
284967,2849.67
285061,2850.61
285154,2851.54
285246,2852.46
285342,2853.42
285438,2854.38
285531,2855.31
285622,2856.22
285715,2857.15
285809,2858.09
285903,2859.03
285996,2859.96
286087,2860.87
286182,2861.82
286277,2862.77
286372,2863.72
286466,2864.66
286558,2865.58
286652,2866.52
286749,2867.49
286847,2868.47
286943,2869.43
287039,2870.39
287141,2871.41
287241,2872.41
287340,2873.4
287436,2874.36
287529,2875.29
287623,2876.23
287717,2877.17
287812,2878.12
287904,2879.04
287996,2879.96
288086,2880.86
288172,2881.72
288258,2882.58
288346,2883.46
288430,2884.3
288513,2885.13
288593,2885.93
288673,2886.73
288754,2887.54
288836,2888.36
288916,2889.16
288996,2889.96
289076,2890.76
289156,2891.56
289235,2892.35
289315,2893.15
289393,2893.93
289471,2894.71
289548,2895.48
289625,2896.25
289702,2897.02
289778,2897.78
289854,2898.54
289931,2899.31
290008,2900.08
290084,2900.84
290162,2901.62
290241,2902.41
290323,2903.23
290406,2904.06
290492,2904.92
290579,2905.79
290666,2906.66
290750,2907.5
290832,2908.32
290914,2909.14
290994,2909.94
291074,2910.74
291154,2911.54
291235,2912.35
291317,2913.17
291401,2914.01
291485,2914.85
291566,2915.66
291645,2916.45
291726,2917.26
291805,2918.05
291883,2918.83
291960,2919.6
292041,2920.41
292123,2921.23
292207,2922.07
292294,2922.94
292380,2923.8
292465,2924.65
292552,2925.52
292638,2926.38
292725,2927.25
292813,2928.13
292903,2929.03
292993,2929.93
293085,2930.85
293178,2931.78
293270,2932.7
293367,2933.67
293464,2934.64
293559,2935.59
293652,2936.52
293743,2937.43
293827,2938.27
293911,2939.11
293993,2939.93
294074,2940.74
294153,2941.53
294231,2942.31
294308,2943.08
294386,2943.86
294462,2944.62
294540,2945.4
294618,2946.18
294701,2947.01
294785,2947.85
294870,2948.7
294958,2949.58
295050,2950.5
295146,2951.46
295243,2952.43
295341,2953.41
295443,2954.43
295547,2955.47
295650,2956.5
295753,2957.53
295862,2958.62
295971,2959.71
296082,2960.82
296192,2961.92
296300,2963.0
296407,2964.07
296514,2965.14
296617,2966.17
296721,2967.21
296827,2968.27
296934,2969.34
297035,2970.35
297134,2971.34
297234,2972.34
297333,2973.33
297431,2974.31
297527,2975.27
297621,2976.21
297717,2977.17
297812,2978.12
297908,2979.08
298002,2980.02
298096,2980.96
298192,2981.92
298288,2982.88
298385,2983.85
298480,2984.8
298575,2985.75
298672,2986.72
298770,2987.7
298866,2988.66
298963,2989.63
299064,2990.64
299166,2991.66
299269,2992.69
299367,2993.67
299466,2994.66
299567,2995.67
299668,2996.68
299768,2997.68
299867,2998.67
299968,2999.68
300069,3000.69
300168,3001.68
300266,3002.66
300364,3003.64
300463,3004.63
300557,3005.57
300655,3006.55
300754,3007.54
300849,3008.49
300942,3009.42
301032,3010.32
301118,3011.18
301204,3012.04
301287,3012.87
301365,3013.65
301447,3014.47
301528,3015.28
301611,3016.11
301692,3016.92
301780,3017.8
301869,3018.69
301962,3019.62
302058,3020.58
302152,3021.52
302249,3022.49
302349,3023.49
302450,3024.5
302548,3025.48
302644,3026.44
302740,3027.4
302837,3028.37
302933,3029.33
303028,3030.28
303124,3031.24
303221,3032.21
303321,3033.21
303420,3034.2
303518,3035.18
303618,3036.18
303718,3037.18
303818,3038.18
303915,3039.15
304011,3040.11
304110,3041.1
304209,3042.09
304310,3043.1
304406,3044.06
304504,3045.04
304605,3046.05
304705,3047.05
304803,3048.03
304898,3048.98
304995,3049.95
305093,3050.93
305188,3051.88
305283,3052.83
305378,3053.78
305477,3054.77
305577,3055.77
305673,3056.73
305767,3057.67
305862,3058.62
305957,3059.57
306052,3060.52
306145,3061.45
306238,3062.38
306335,3063.35
306432,3064.32
306530,3065.3
306626,3066.26
306722,3067.22
306820,3068.2
306920,3069.2
307019,3070.19
307116,3071.16
307212,3072.12
307309,3073.09
307406,3074.06
307503,3075.03
307598,3075.98
307692,3076.92
307790,3077.9
307888,3078.88
307988,3079.88
308084,3080.84
308180,3081.8
308277,3082.77
308375,3083.75
308472,3084.72
308567,3085.67
308661,3086.61
308757,3087.57
308854,3088.54
308953,3089.53
309051,3090.51
309148,3091.48
309247,3092.47
309347,3093.47
309445,3094.45
309541,3095.41
309637,3096.37
309733,3097.33
309832,3098.32
309930,3099.3
310026,3100.26
310124,3101.24
310225,3102.25
310326,3103.26
310429,3104.29
310528,3105.28
310626,3106.26
310723,3107.23
310823,3108.23
310923,3109.23
311022,3110.22
311121,3111.21
311221,3112.21
311317,3113.17
311413,3114.13
311509,3115.09
311608,3116.08
311708,3117.08
311806,3118.06
311903,3119.03
312002,3120.02
312104,3121.04
312206,3122.06
312306,3123.06
312403,3124.03
312502,3125.02
312603,3126.03
312703,3127.03
312804,3128.04
312902,3129.02
313000,3130.0
313098,3130.98
313197,3131.97
313298,3132.98
313394,3133.94
313491,3134.91
313590,3135.9
313690,3136.9
313793,3137.93
313899,3138.99
314000,3140.0
314098,3140.98
314196,3141.96
314295,3142.95
314392,3143.92
314489,3144.89
314585,3145.85
314683,3146.83
314785,3147.85
314889,3148.89
314992,3149.92
315091,3150.91
315188,3151.88
315283,3152.83
315380,3153.8
315479,3154.79
315578,3155.78
315676,3156.76
315773,3157.73
315871,3158.71
315971,3159.71
316073,3160.73
316174,3161.74
316272,3162.72
316368,3163.68
316463,3164.63
316560,3165.6
316658,3166.58
316758,3167.58
316855,3168.55
316951,3169.51
317048,3170.48
317148,3171.48
317250,3172.5
317353,3173.53
317454,3174.54
317553,3175.53
317657,3176.57
317761,3177.61
317866,3178.66
317966,3179.66
318064,3180.64
318159,3181.59
318255,3182.55
318353,3183.53
318453,3184.53
318554,3185.54
318652,3186.52
318748,3187.48
318845,3188.45
318943,3189.43
319043,3190.43
319142,3191.42
319239,3192.39
319334,3193.34
319429,3194.29
319527,3195.27
319625,3196.25
319721,3197.21
319816,3198.16
319912,3199.12
320009,3200.09
320107,3201.07
320201,3202.01
320296,3202.96
320393,3203.93
320492,3204.92
320589,3205.89
320684,3206.84
320778,3207.78
320876,3208.76
320975,3209.75
321073,3210.73
321169,3211.69
321266,3212.66
321365,3213.65
321464,3214.64
321561,3215.61
321656,3216.56
321752,3217.52
321849,3218.49
321946,3219.46
322040,3220.4
322134,3221.34
322232,3222.32
322331,3223.31
322432,3224.32
322530,3225.3
322626,3226.26
322723,3227.23
322821,3228.21
322919,3229.19
323015,3230.15
323110,3231.1
323204,3232.04
323301,3233.01
323400,3234.0
323499,3234.99
323596,3235.96
323694,3236.94
323794,3237.94
323897,3238.97
324001,3240.01
324104,3241.04
324204,3242.04
324300,3243.0
324397,3243.97
324495,3244.95
324593,3245.93
324693,3246.93
324791,3247.91
324889,3248.89
324988,3249.88
325088,3250.88
325189,3251.89
325287,3252.87
325383,3253.83
325480,3254.8
325580,3255.8
325682,3256.82
325785,3257.85
325883,3258.83
325980,3259.8
326077,3260.77
326177,3261.77
326280,3262.8
326385,3263.85
326484,3264.84
326583,3265.83
326682,3266.82
326784,3267.84
326889,3268.89
326989,3269.89
327087,3270.87
327183,3271.83
327280,3272.8
327379,3273.79
327481,3274.81
327580,3275.8
327678,3276.78
327779,3277.79
327880,3278.8
327983,3279.83
328084,3280.84
328184,3281.84
328285,3282.85
328388,3283.88
328489,3284.89
328587,3285.87
328686,3286.86
328788,3287.88
328894,3288.94
329000,3290.0
329103,3291.03
329202,3292.02
329301,3293.01
329403,3294.03
329508,3295.08
329616,3296.16
329728,3297.28
329833,3298.33
329934,3299.34
330034,3300.34
330135,3301.35
330236,3302.36
330339,3303.39
330437,3304.37
330535,3305.35
330629,3306.29
330727,3307.27
330829,3308.29
330930,3309.3
331031,3310.31
331130,3311.3
331228,3312.28
331329,3313.29
331428,3314.28
331526,3315.26
331623,3316.23
331723,3317.23
331826,3318.26
331924,3319.24
332015,3320.15
332107,3321.07
332196,3321.96
332283,3322.83
332368,3323.68
332451,3324.51
332533,3325.33
332614,3326.14
332698,3326.98
332784,3327.84
332871,3328.71
332962,3329.62
333051,3330.51
333142,3331.42
333234,3332.34
333329,3333.29
333425,3334.25
333519,3335.19
333612,3336.12
333704,3337.04
333798,3337.98
333893,3338.93
333991,3339.91
334086,3340.86
334180,3341.8
334273,3342.73
334369,3343.69
334465,3344.65
334561,3345.61
334656,3346.56
334750,3347.5
334846,3348.46
334945,3349.45
335042,3350.42
335138,3351.38
335232,3352.32
335326,3353.26
335423,3354.23
335519,3355.19
335614,3356.14
335708,3357.08
335805,3358.05
335901,3359.01
335998,3359.98
336091,3360.91
336184,3361.84
336278,3362.78
336373,3363.73
336469,3364.69
336562,3365.62
336655,3366.55
336750,3367.5
336844,3368.44
336939,3369.39
337032,3370.32
337126,3371.26
337222,3372.22
337319,3373.19
337416,3374.16
337511,3375.11
337605,3376.05
337701,3377.01
337798,3377.98
337895,3378.95
337989,3379.89
338084,3380.84
338179,3381.79
338276,3382.76
338374,3383.74
338469,3384.69
338563,3385.63
338662,3386.62
338761,3387.61
338855,3388.55
338947,3389.47
339040,3390.4
339135,3391.35
339232,3392.32
339331,3393.31
339427,3394.27
339525,3395.25
339624,3396.24
339725,3397.25
339829,3398.29
339936,3399.36
340040,3400.4
340141,3401.41
340239,3402.39
340339,3403.39
340440,3404.4
340541,3405.41
340646,3406.46
340747,3407.47
340846,3408.46
340942,3409.42
341038,3410.38
341137,3411.37
341238,3412.38
341337,3413.37
341436,3414.36
341535,3415.35
341638,3416.38
341742,3417.42
341843,3418.43
341941,3419.41
342040,3420.4
342141,3421.41
342244,3422.44
342345,3423.45
342443,3424.43
342539,3425.39
342638,3426.38
342736,3427.36
342836,3428.36
342934,3429.34
343030,3430.3
343128,3431.28
343231,3432.31
343338,3433.38
343444,3434.44
343545,3435.45
343643,3436.43
343744,3437.44
343846,3438.46
343952,3439.52
344059,3440.59
344162,3441.62
344265,3442.65
344366,3443.66
344467,3444.67
344567,3445.67
344667,3446.67
344765,3447.65
344865,3448.65
344966,3449.66
345070,3450.7
345172,3451.72
345271,3452.71
345370,3453.7
345471,3454.71
345574,3455.74
345675,3456.75
345772,3457.72
345868,3458.68
345962,3459.62
346056,3460.56
346155,3461.55
346259,3462.59
346360,3463.6
346460,3464.6
346560,3465.6
346663,3466.63
346768,3467.68
346866,3468.66
346961,3469.61
347057,3470.57
347154,3471.54
347252,3472.52
347347,3473.47
347442,3474.42
347539,3475.39
347639,3476.39
347742,3477.42
347849,3478.49
347955,3479.55
348058,3480.58
348165,3481.65
348274,3482.74
348379,3483.79
348483,3484.83
348582,3485.82
348677,3486.77
348773,3487.73
348871,3488.71
348970,3489.7
349071,3490.71
349172,3491.72
349271,3492.71
349370,3493.7
349466,3494.66
349563,3495.63
349664,3496.64
349766,3497.66
349872,3498.72
349973,3499.73
350076,3500.76
350179,3501.79
350284,3502.84
350386,3503.86
350483,3504.83
350581,3505.81
350677,3506.77
350776,3507.76
350879,3508.79
350982,3509.82
351082,3510.82
351179,3511.79
351274,3512.74
351372,3513.72
351472,3514.72
351571,3515.71
351667,3516.67
351763,3517.63
351864,3518.64
351964,3519.64
352066,3520.66
352164,3521.64
352260,3522.6
352360,3523.6
352460,3524.6
352561,3525.61
352665,3526.65
352766,3527.66
352864,3528.64
352966,3529.66
353067,3530.67
353168,3531.68
353267,3532.67
353363,3533.63
353459,3534.59
353559,3535.59
353660,3536.6
353764,3537.64
353873,3538.73
353978,3539.78
354082,3540.82
354186,3541.86
354290,3542.9
354394,3543.94
354495,3544.95
354596,3545.96
354696,3546.96
354801,3548.01
354909,3549.09
355017,3550.17
355120,3551.2
355227,3552.27
355329,3553.29
355430,3554.3
355527,3555.27
355621,3556.21
355713,3557.13
355809,3558.09
355911,3559.11
356017,3560.17
356120,3561.2
356223,3562.23
356327,3563.27
356429,3564.29
356526,3565.26
356621,3566.21
356718,3567.18
356817,3568.17
356920,3569.2
357019,3570.19
357118,3571.18
357221,3572.21
357325,3573.25
357426,3574.26
357524,3575.24
357622,3576.22
357724,3577.24
357825,3578.25
357923,3579.23
358021,3580.21
358121,3581.21
358222,3582.22
358323,3583.23
358426,3584.26
358524,3585.24
358622,3586.22
358724,3587.24
358826,3588.26
358930,3589.3
359033,3590.33
359134,3591.34
359232,3592.32
359329,3593.29
359424,3594.24
359521,3595.21
359620,3596.2
359717,3597.17
359813,3598.13
359907,3599.07
360005,3600.05
360102,3601.02
360201,3602.01
360296,3602.96
360393,3603.93
360491,3604.91
360593,3605.93
360694,3606.94
360792,3607.92
360888,3608.88
360982,3609.82
361076,3610.76
361170,3611.7
361263,3612.63
361356,3613.56
361452,3614.52
361551,3615.51
361654,3616.54
361758,3617.58
361858,3618.58
361956,3619.56
362058,3620.58
362159,3621.59
362261,3622.61
362363,3623.63
362462,3624.62
362560,3625.6
362658,3626.58
362758,3627.58
362861,3628.61
362967,3629.67
363068,3630.68
363169,3631.69
363269,3632.69
363374,3633.74
363480,3634.8
363584,3635.84
363686,3636.86
363786,3637.86
363886,3638.86
363989,3639.89
364092,3640.92
364195,3641.95
364296,3642.96
364394,3643.94
364491,3644.91
364589,3645.89
364688,3646.88
364786,3647.86
364880,3648.8
364976,3649.76
365070,3650.7
365168,3651.68
365267,3652.67
365366,3653.66
365461,3654.61
365556,3655.56
365649,3656.49
365745,3657.45
365845,3658.45
365945,3659.45
366042,3660.42
366137,3661.37
366232,3662.32
366329,3663.29
366423,3664.23
366515,3665.15
366607,3666.07
366701,3667.01
366796,3667.96
366889,3668.89
366981,3669.81
367077,3670.77
367177,3671.77
367282,3672.82
367389,3673.89
367492,3674.92
367591,3675.91
367688,3676.88
367786,3677.86
367882,3678.82
367982,3679.82
368083,3680.83
368189,3681.89
368296,3682.96
368400,3684.0
368501,3685.01
368602,3686.02
368703,3687.03
368802,3688.02
368898,3688.98
368990,3689.9
369082,3690.82
369177,3691.77
369274,3692.74
369373,3693.73
369469,3694.69
369564,3695.64
369660,3696.6
369759,3697.59
369861,3698.61
369960,3699.6
370056,3700.56
370150,3701.5
370242,3702.42
370336,3703.36
370401,3704.01
370498,3704.98
370578,3705.78
370689,3706.89
370786,3707.86
370881,3708.81
370972,3709.72
371062,3710.62
371155,3711.55
371250,3712.5
371345,3713.45
371439,3714.39
371539,3715.39
371642,3716.42
371748,3717.48
371854,3718.54
371951,3719.51
372046,3720.46
372141,3721.41
372237,3722.37
372335,3723.35
372431,3724.31
372525,3725.25
372619,3726.19
372718,3727.18
372820,3728.2
372925,3729.25
373028,3730.28
373128,3731.28
373226,3732.26
373326,3733.26
373428,3734.28
373528,3735.28
373624,3736.24
373719,3737.19
373817,3738.17
373918,3739.18
374018,3740.18
374112,3741.12
374205,3742.05
374298,3742.98
374389,3743.89
374482,3744.82
374573,3745.73
374665,3746.65
374760,3747.6
374855,3748.55
374947,3749.47
375039,3750.39
375134,3751.34
375225,3752.25
375315,3753.15
375405,3754.05
375496,3754.96
375587,3755.87
375682,3756.82
375774,3757.74
375867,3758.67
375963,3759.63
376062,3760.62
376164,3761.64
376269,3762.69
376377,3763.77
376482,3764.82
376584,3765.84
376688,3766.88
376794,3767.94
376899,3768.99
376998,3769.98
377096,3770.96
377195,3771.95
377293,3772.93
377391,3773.91
377491,3774.91
377590,3775.9
377688,3776.88
377790,3777.9
377894,3778.94
377995,3779.95
378094,3780.94
378191,3781.91
378293,3782.93
378392,3783.92
378487,3784.87
378584,3785.84
378681,3786.81
378781,3787.81
378883,3788.83
378981,3789.81
379077,3790.77
379172,3791.72
379271,3792.71
379373,3793.73
379474,3794.74
379570,3795.7
379665,3796.65
379757,3797.57
379851,3798.51
379949,3799.49
380051,3800.51
380149,3801.49
380243,3802.43
380336,3803.36
380428,3804.28
380521,3805.21
380617,3806.17
380710,3807.1
380802,3808.02
380895,3808.95
380990,3809.9
381088,3810.88
381190,3811.9
381288,3812.88
381384,3813.84
381478,3814.78
381572,3815.72
381667,3816.67
381764,3817.64
381857,3818.57
381953,3819.53
382045,3820.45
382137,3821.37
382227,3822.27
382317,3823.17
382406,3824.06
382492,3824.92
382578,3825.78
382664,3826.64
382752,3827.52
382848,3828.48
382946,3829.46
383050,3830.5
383149,3831.49
383246,3832.46
383345,3833.45
383443,3834.43
383543,3835.43
383644,3836.44
383740,3837.4
383835,3838.35
383931,3839.31
384029,3840.29
384131,3841.31
384236,3842.36
384337,3843.37
384437,3844.37
384538,3845.38
384641,3846.41
384744,3847.44
384844,3848.44
384942,3849.42
385043,3850.43
385144,3851.44
385244,3852.44
385341,3853.41
385435,3854.35
385528,3855.28
385623,3856.23
385718,3857.18
385815,3858.15
385911,3859.11
386006,3860.06
386101,3861.01
386202,3862.02
386300,3863.0
386393,3863.93
386486,3864.86
386581,3865.81
386679,3866.79
386776,3867.76
386871,3868.71
386965,3869.65
387058,3870.58
387155,3871.55
387252,3872.52
387347,3873.47
387442,3874.42
387537,3875.37
387638,3876.38
387743,3877.43
387851,3878.51
387957,3879.57
388056,3880.56
388152,3881.52
388245,3882.45
388342,3883.42
388441,3884.41
388542,3885.42
388640,3886.4
388738,3887.38
388841,3888.41
388946,3889.46
389054,3890.54
389158,3891.58
389257,3892.57
389353,3893.53
389448,3894.48
389548,3895.48
389651,3896.51
389753,3897.53
389853,3898.53
389950,3899.5
390045,3900.45
390145,3901.45
390245,3902.45
390343,3903.43
390437,3904.37
390530,3905.3
390621,3906.21
390715,3907.15
390812,3908.12
390908,3909.08
391001,3910.01
391093,3910.93
391185,3911.85
391281,3912.81
391376,3913.76
391470,3914.7
391562,3915.62
391655,3916.55
391754,3917.54
391853,3918.53
391949,3919.49
392044,3920.44
392138,3921.38
392237,3922.37
392335,3923.35
392429,3924.29
392522,3925.22
392619,3926.19
392722,3927.22
392825,3928.25
392918,3929.18
393008,3930.08
393102,3931.02
393191,3931.91
393276,3932.76
393362,3933.62
393449,3934.49
393532,3935.32
393614,3936.14
393692,3936.92
393770,3937.7
393852,3938.52
393933,3939.33
394017,3940.17
394105,3941.05
394193,3941.93
394282,3942.82
394372,3943.72
394466,3944.66
394563,3945.63
394665,3946.65
394766,3947.66
394863,3948.63
394961,3949.61
395060,3950.6
395160,3951.6
395257,3952.57
395351,3953.51
395445,3954.45
395541,3955.41
395638,3956.38
395735,3957.35
395829,3958.29
395922,3959.22
396017,3960.17
396113,3961.13
396209,3962.09
396302,3963.02
396395,3963.95
396488,3964.88
396585,3965.85
396686,3966.86
396790,3967.9
396889,3968.89
396985,3969.85
397081,3970.81
397179,3971.79
397278,3972.78
397372,3973.72
397465,3974.65
397559,3975.59
397653,3976.53
397746,3977.46
397837,3978.37
397927,3979.27
398016,3980.16
398106,3981.06
398201,3982.01
398294,3982.94
398387,3983.87
398479,3984.79
398576,3985.76
398676,3986.76
398772,3987.72
398865,3988.65
398956,3989.56
399051,3990.51
399147,3991.47
399238,3992.38
399328,3993.28
399419,3994.19
399511,3995.11
399603,3996.03
399692,3996.92
399779,3997.79
399867,3998.67
399956,3999.56
400042,4000.42
400130,4001.3
400217,4002.17
400303,4003.03
400390,4003.9
400478,4004.78
400567,4005.67
400654,4006.54
400745,4007.45
400839,4008.39
400936,4009.36
401032,4010.32
401135,4011.35
401242,4012.42
401352,4013.52
401463,4014.63
401564,4015.64
401664,4016.64
401762,4017.62
401862,4018.62
401963,4019.63
402063,4020.63
402164,4021.64
402263,4022.63
402358,4023.58
402452,4024.52
402546,4025.46
402642,4026.42
402739,4027.39
402838,4028.38
402934,4029.34
403033,4030.33
403133,4031.33
403236,4032.36
403338,4033.38
403438,4034.38
403534,4035.34
403628,4036.28
403725,4037.25
403823,4038.23
403919,4039.19
404013,4040.13
404108,4041.08
404199,4041.99
404290,4042.9
404381,4043.81
404471,4044.71
404560,4045.6
404656,4046.56
404754,4047.54
404854,4048.54
404950,4049.5
405046,4050.46
405146,4051.46
405250,4052.5
405350,4053.5
405447,4054.47
405542,4055.42
405638,4056.38
405736,4057.36
405837,4058.37
405933,4059.33
406027,4060.27
406126,4061.26
406226,4062.26
406332,4063.32
406436,4064.36
406535,4065.35
406629,4066.29
406721,4067.21
406813,4068.13
406905,4069.05
406995,4069.95
407086,4070.86
407175,4071.75
407271,4072.71
407369,4073.69
407463,4074.63
407557,4075.57
407649,4076.49
407745,4077.45
407845,4078.45
407940,4079.4
408032,4080.32
408125,4081.25
408213,4082.13
408301,4083.01
408391,4083.91
408479,4084.79
408568,4085.68
408662,4086.62
408752,4087.52
408842,4088.42
408936,4089.36
409031,4090.31
409123,4091.23
409217,4092.17
409310,4093.1
409408,4094.08
409510,4095.1
409607,4096.07
409702,4097.02
409807,4098.07
409918,4099.18
410031,4100.31
410136,4101.36
410234,4102.34
410331,4103.31
410427,4104.27
410523,4105.23
410616,4106.16
410707,4107.07
410797,4107.97
410891,4108.91
410987,4109.87
411081,4110.81
411176,4111.76
411271,4112.71
411371,4113.71
411469,4114.69
411564,4115.64
411656,4116.56
411747,4117.47
411842,4118.42
411936,4119.36
412027,4120.27
412116,4121.16
412208,4122.08
412303,4123.03
412395,4123.95
412486,4124.86
412576,4125.76
412668,4126.68
412761,4127.61
412852,4128.52
412942,4129.42
413033,4130.33
413127,4131.27
413219,4132.19
413308,4133.08
413397,4133.97
413483,4134.83
413569,4135.69
413657,4136.57
413745,4137.45
413831,4138.31
413921,4139.21
414011,4140.11
414102,4141.02
414196,4141.96
414294,4142.94
414393,4143.93
414489,4144.89
414584,4145.84
414681,4146.81
414776,4147.76
414872,4148.72
414968,4149.68
415061,4150.61
415154,4151.54
415244,4152.44
415333,4153.33
415421,4154.21
415507,4155.07
415590,4155.9
415673,4156.73
415758,4157.58
415841,4158.41
415925,4159.25
416009,4160.09
416092,4160.92
416175,4161.75
416258,4162.58
416341,4163.41
416424,4164.24
416508,4165.08
416591,4165.91
416675,4166.75
416759,4167.59
416844,4168.44
416931,4169.31
417018,4170.18
417105,4171.05
417194,4171.94
417287,4172.87
417380,4173.8
417475,4174.75
417570,4175.7
417666,4176.66
417760,4177.6
417852,4178.52
417946,4179.46
418037,4180.37
418127,4181.27
418215,4182.15
418302,4183.02
418389,4183.89
418477,4184.77
418563,4185.63
418649,4186.49
418734,4187.34
418821,4188.21
418908,4189.08
418994,4189.94
419081,4190.81
419166,4191.66
419252,4192.52
419336,4193.36
419420,4194.2
419503,4195.03
419585,4195.85
419666,4196.66
419746,4197.46
419826,4198.26
419907,4199.07
419990,4199.9
420074,4200.74
420161,4201.61
420251,4202.51
420342,4203.42
420434,4204.34
420528,4205.28
420626,4206.26
420724,4207.24
420820,4208.2
420918,4209.18
421017,4210.17
421114,4211.14
421209,4212.09
421306,4213.06
421404,4214.04
421505,4215.05
421604,4216.04
421702,4217.02
421800,4218.0
421896,4218.96
421989,4219.89
422083,4220.83
422177,4221.77
422272,4222.72
422365,4223.65
422460,4224.6
422557,4225.57
422654,4226.54
422750,4227.5
422844,4228.44
422940,4229.4
423036,4230.36
423131,4231.31
423224,4232.24
423319,4233.19
423416,4234.16
423511,4235.11
423606,4236.06
423702,4237.02
423798,4237.98
423896,4238.96
423993,4239.93
424089,4240.89
424185,4241.85
424282,4242.82
424380,4243.8
424475,4244.75
424570,4245.7
424666,4246.66
424763,4247.63
424863,4248.63
424960,4249.6
425056,4250.56
425156,4251.56
425257,4252.57
425361,4253.61
425460,4254.6
425558,4255.58
425658,4256.58
425758,4257.58
425859,4258.59
425957,4259.57
426051,4260.51
426144,4261.44
426238,4262.38
426330,4263.3
426425,4264.25
426523,4265.23
426623,4266.23
426722,4267.22
426821,4268.21
426920,4269.2
427018,4270.18
427112,4271.12
427203,4272.03
427293,4272.93
427385,4273.85
427480,4274.8
427571,4275.71
427659,4276.59
427750,4277.5
427845,4278.45
427945,4279.45
428049,4280.49
428151,4281.51
428254,4282.54
428354,4283.54
428452,4284.52
428550,4285.5
428646,4286.46
428743,4287.43
428840,4288.4
428935,4289.35
429029,4290.29
429124,4291.24
429217,4292.17
429310,4293.1
429402,4294.02
429495,4294.95
429587,4295.87
429682,4296.82
429775,4297.75
429871,4298.71
429967,4299.67
430061,4300.61
430156,4301.56
430250,4302.5
430345,4303.45
430441,4304.41
430535,4305.35
430630,4306.3
430727,4307.27
430825,4308.25
430923,4309.23
431019,4310.19
431112,4311.12
431203,4312.03
431293,4312.93
431381,4313.81
431468,4314.68
431553,4315.53
431641,4316.41
431732,4317.32
431824,4318.24
431920,4319.2
432016,4320.16
432110,4321.1
432204,4322.04
432296,4322.96
432387,4323.87
432479,4324.79
432570,4325.7
432662,4326.62
432753,4327.53
432846,4328.46
432939,4329.39
433031,4330.31
433124,4331.24
433218,4332.18
433314,4333.14
433411,4334.11
433509,4335.09
433605,4336.05
433701,4337.01
433797,4337.97
433891,4338.91
433982,4339.82
434073,4340.73
434163,4341.63
434253,4342.53
434345,4343.45
434435,4344.35
434527,4345.27
434617,4346.17
434708,4347.08
434799,4347.99
434890,4348.9
434981,4349.81
435073,4350.73
435164,4351.64
435255,4352.55
435347,4353.47
435436,4354.36
435524,4355.24
435610,4356.1
435696,4356.96
435781,4357.81
435866,4358.66
435953,4359.53
436040,4360.4
436131,4361.31
436222,4362.22
436321,4363.21
436419,4364.19
436515,4365.15
436612,4366.12
436709,4367.09
436802,4368.02
436892,4368.92
436982,4369.82
437070,4370.7
437157,4371.57
437244,4372.44
437330,4373.3
437416,4374.16
437501,4375.01
437585,4375.85
437669,4376.69
437751,4377.51
437832,4378.32
437910,4379.1
437988,4379.88
438068,4380.68
438148,4381.48
438229,4382.29
438312,4383.12
438397,4383.97
438483,4384.83
438569,4385.69
438657,4386.57
438745,4387.45
438836,4388.36
438926,4389.26
439017,4390.17
439110,4391.1
439205,4392.05
439300,4393.0
439393,4393.93
439488,4394.88
439582,4395.82
439675,4396.75
439767,4397.67
439859,4398.59
439952,4399.52
440047,4400.47
440140,4401.4
440234,4402.34
440327,4403.27
440420,4404.2
440512,4405.12
440606,4406.06
440695,4406.95
440785,4407.85
440875,4408.75
440964,4409.64
441053,4410.53
441141,4411.41
441229,4412.29
441318,4413.18
441406,4414.06
441493,4414.93
441582,4415.82
441670,4416.7
441759,4417.59
441848,4418.48
441937,4419.37
442026,4420.26
442115,4421.15
442204,4422.04
442290,4422.9
442376,4423.76
442461,4424.61
442546,4425.46
442629,4426.29
442712,4427.12
442794,4427.94
442879,4428.79
442964,4429.64
443048,4430.48
443133,4431.33
443217,4432.17
443301,4433.01
443385,4433.85
443470,4434.7
443555,4435.55
443637,4436.37
443720,4437.2
443803,4438.03
443886,4438.86
443970,4439.7
444054,4440.54
444139,4441.39
444226,4442.26
444313,4443.13
444402,4444.02
444490,4444.9
444579,4445.79
444669,4446.69
444760,4447.6
444851,4448.51
444942,4449.42
445035,4450.35
445129,4451.29
445223,4452.23
445318,4453.18
445415,4454.15
445514,4455.14
445613,4456.13
445712,4457.12
445811,4458.11
445911,4459.11
446012,4460.12
446114,4461.14
446214,4462.14
446313,4463.13
446413,4464.13
446514,4465.14
446614,4466.14
446714,4467.14
446814,4468.14
446916,4469.16
447018,4470.18
447119,4471.19
447221,4472.21
447325,4473.25
447427,4474.27
447526,4475.26
447623,4476.23
447718,4477.18
447810,4478.1
447898,4478.98
447986,4479.86
448072,4480.72
448156,4481.56
448240,4482.4
448325,4483.25
448413,4484.13
448505,4485.05
448600,4486.0
448696,4486.96
448793,4487.93
448893,4488.93
448993,4489.93
449091,4490.91
449187,4491.87
449284,4492.84
449380,4493.8
449477,4494.77
449572,4495.72
449667,4496.67
449762,4497.62
449858,4498.58
449956,4499.56
450052,4500.52
450149,4501.49
450247,4502.47
450345,4503.45
450441,4504.41
450538,4505.38
450636,4506.36
450733,4507.33
450830,4508.3
450925,4509.25
451022,4510.22
451117,4511.17
451212,4512.12
451309,4513.09
451408,4514.08
451508,4515.08
451608,4516.08
451709,4517.09
451811,4518.11
451913,4519.13
452013,4520.13
452113,4521.13
452214,4522.14
452313,4523.13
452411,4524.11
452509,4525.09
452609,4526.09
452710,4527.1
452812,4528.12
452910,4529.1
453009,4530.09
453106,4531.06
453203,4532.03
453298,4532.98
453396,4533.96
453493,4534.93
453591,4535.91
453688,4536.88
453786,4537.86
453884,4538.84
453982,4539.82
454080,4540.8
454177,4541.77
454276,4542.76
454375,4543.75
454472,4544.72
454569,4545.69
454667,4546.67
454763,4547.63
454859,4548.59
454953,4549.53
455049,4550.49
455144,4551.44
455239,4552.39
455333,4553.33
455428,4554.28
455524,4555.24
455621,4556.21
455716,4557.16
455810,4558.1
455906,4559.06
456002,4560.02
456098,4560.98
456192,4561.92
456287,4562.87
456382,4563.82
456478,4564.78
456573,4565.73
456668,4566.68
456764,4567.64
456861,4568.61
456958,4569.58
457055,4570.55
457151,4571.51
457250,4572.5
457348,4573.48
457447,4574.47
457543,4575.43
457639,4576.39
457735,4577.35
457831,4578.31
457928,4579.28
458024,4580.24
458119,4581.19
458216,4582.16
458313,4583.13
458411,4584.11
458510,4585.1
458607,4586.07
458705,4587.05
458805,4588.05
458904,4589.04
459004,4590.04
459102,4591.02
459201,4592.01
459301,4593.01
459400,4594.0
459499,4594.99
459595,4595.95
459690,4596.9
459786,4597.86
459883,4598.83
459980,4599.8
460077,4600.77
460173,4601.73
460269,4602.69
460368,4603.68
460467,4604.67
460564,4605.64
460663,4606.63
460760,4607.6
460858,4608.58
460957,4609.57
461054,4610.54
461150,4611.5
461248,4612.48
461345,4613.45
461443,4614.43
461540,4615.4
461638,4616.38
461735,4617.35
461834,4618.34
461931,4619.31
462029,4620.29
462128,4621.28
462227,4622.27
462327,4623.27
462425,4624.25
462522,4625.22
462621,4626.21
462721,4627.21
462821,4628.21
462922,4629.22
463026,4630.26
463128,4631.28
463231,4632.31
463335,4633.35
463438,4634.38
463542,4635.42
463643,4636.43
463743,4637.43
463841,4638.41
463939,4639.39
464040,4640.4
464139,4641.39
464237,4642.37
464335,4643.35
464433,4644.33
464533,4645.33
464633,4646.33
464731,4647.31
464829,4648.29
464928,4649.28
465028,4650.28
465127,4651.27
465225,4652.25
465323,4653.23
465423,4654.23
465523,4655.23
465622,4656.22
465721,4657.21
465820,4658.2
465920,4659.2
466021,4660.21
466121,4661.21
466218,4662.18
466318,4663.18
466417,4664.17
466514,4665.14
466610,4666.1
466706,4667.06
466802,4668.02
466898,4668.98
466994,4669.94
467088,4670.88
467181,4671.81
467274,4672.74
467368,4673.68
467461,4674.61
467554,4675.54
467646,4676.46
467740,4677.4
467834,4678.34
467929,4679.29
468024,4680.24
468118,4681.18
468214,4682.14
468310,4683.1
468406,4684.06
468501,4685.01
468595,4685.95
468691,4686.91
468786,4687.86
468882,4688.82
468977,4689.77
469070,4690.7
469167,4691.67
469264,4692.64
469365,4693.65
469465,4694.65
469565,4695.65
469665,4696.65
469766,4697.66
469865,4698.65
469963,4699.63
470058,4700.58
470155,4701.55
470252,4702.52
470347,4703.47
470442,4704.42
470536,4705.36
470631,4706.31
470728,4707.28
470825,4708.25
470921,4709.21
471018,4710.18
471116,4711.16
471214,4712.14
471311,4713.11
471407,4714.07
471501,4715.01
471597,4715.97
471693,4716.93
471788,4717.88
471883,4718.83
471981,4719.81
472080,4720.8
472178,4721.78
472275,4722.75
472372,4723.72
472468,4724.68
472566,4725.66
472662,4726.62
472757,4727.57
472851,4728.51
472947,4729.47
473044,4730.44
473140,4731.4
473235,4732.35
473332,4733.32
473430,4734.3
473529,4735.29
473626,4736.26
473723,4737.23
473822,4738.22
473920,4739.2
474019,4740.19
474116,4741.16
474212,4742.12
474309,4743.09
474408,4744.08
474506,4745.06
474606,4746.06
474708,4747.08
474809,4748.09
474908,4749.08
475006,4750.06
475104,4751.04
475202,4752.02
475302,4753.02
475399,4753.99
475497,4754.97
475596,4755.96
475696,4756.96
475794,4757.94
475892,4758.92
475989,4759.89
476087,4760.87
476186,4761.86
476287,4762.87
476386,4763.86
476484,4764.84
476583,4765.83
476684,4766.84
476782,4767.82
476880,4768.8
476976,4769.76
477072,4770.72
477170,4771.7
477268,4772.68
477363,4773.63
477460,4774.6
477558,4775.58
477657,4776.57
477757,4777.57
477854,4778.54
477952,4779.52
478050,4780.5
478150,4781.5
478248,4782.48
478346,4783.46
478442,4784.42
478540,4785.4
478638,4786.38
478734,4787.34
478831,4788.31
478927,4789.27
479025,4790.25
479124,4791.24
479223,4792.23
479321,4793.21
479420,4794.2
479521,4795.21
479625,4796.25
479727,4797.27
479829,4798.29
479932,4799.32
480036,4800.36
480138,4801.38
480239,4802.39
480340,4803.4
480442,4804.42
480545,4805.45
480645,4806.45
480743,4807.43
480838,4808.38
480933,4809.33
481029,4810.29
481125,4811.25
481225,4812.25
481324,4813.24
481424,4814.24
481523,4815.23
481624,4816.24
481725,4817.25
481825,4818.25
481924,4819.24
482022,4820.22
482120,4821.2
482218,4822.18
482315,4823.15
482412,4824.12
482510,4825.1
482611,4826.11
482716,4827.16
482822,4828.22
482925,4829.25
483028,4830.28
483130,4831.3
483231,4832.31
483327,4833.27
483422,4834.22
483516,4835.16
483611,4836.11
483706,4837.06
483804,4838.04
483902,4839.02
484001,4840.01
484099,4840.99
484201,4842.01
484304,4843.04
484406,4844.06
484505,4845.05
484605,4846.05
484701,4847.01
484799,4847.99
484897,4848.97
484999,4849.99
485098,4850.98
485201,4852.01
485299,4852.99
485395,4853.95
485494,4854.94
485594,4855.94
485693,4856.93
485793,4857.93
485892,4858.92
485993,4859.93
486095,4860.95
486196,4861.96
486296,4862.96
486397,4863.97
486501,4865.01
486607,4866.07
486713,4867.13
486815,4868.15
486921,4869.21
487024,4870.24
487121,4871.21
487218,4872.18
487315,4873.15
487413,4874.13
487512,4875.12
487609,4876.09
487709,4877.09
487814,4878.14
487921,4879.21
488031,4880.31
488136,4881.36
488238,4882.38
488341,4883.41
488443,4884.43
488543,4885.43
488641,4886.41
488738,4887.38
488836,4888.36
488935,4889.35
489031,4890.31
489127,4891.27
489222,4892.22
489316,4893.16
489410,4894.1
489507,4895.07
489607,4896.07
489707,4897.07
489807,4898.07
489909,4899.09
490014,4900.14
490114,4901.14
490211,4902.11
490306,4903.06
490400,4904.0
490491,4904.91
490582,4905.82
490668,4906.68
490758,4907.58
490841,4908.41
490925,4909.25
491006,4910.06
491087,4910.87
491164,4911.64
491241,4912.41
491318,4913.18
491397,4913.97
491474,4914.74
491552,4915.52
491631,4916.31
491711,4917.11
491792,4917.92
491876,4918.76
491961,4919.61
492047,4920.47
492133,4921.33
492222,4922.22
492313,4923.13
492404,4924.04
492493,4924.93
492583,4925.83
492676,4926.76
492770,4927.7
492867,4928.67
492965,4929.65
493064,4930.64
493163,4931.63
493260,4932.6
493356,4933.56
493453,4934.53
493550,4935.5
493648,4936.48
493745,4937.45
493842,4938.42
493938,4939.38
494033,4940.33
494131,4941.31
494230,4942.3
494328,4943.28
494424,4944.24
494517,4945.17
494608,4946.08
494701,4947.01
494795,4947.95
494891,4948.91
494986,4949.86
495082,4950.82
495182,4951.82
495283,4952.83
495385,4953.85
495483,4954.83
495578,4955.78
495674,4956.74
495770,4957.7
495866,4958.66
495961,4959.61
496055,4960.55
496153,4961.53
496251,4962.51
496350,4963.5
496447,4964.47
496543,4965.43
496643,4966.43
496744,4967.44
496844,4968.44
496941,4969.41
497042,4970.42
497146,4971.46
497248,4972.48
497348,4973.48
497446,4974.46
497547,4975.47
497648,4976.48
497749,4977.49
497844,4978.44
497939,4979.39
498034,4980.34
498131,4981.31
498234,4982.34
498337,4983.37
498443,4984.43
498546,4985.46
498644,4986.44
498741,4987.41
498836,4988.36
498934,4989.34
499034,4990.34
499132,4991.32
499232,4992.32
499327,4993.27
499421,4994.21
499517,4995.17
499614,4996.14
499710,4997.1
499804,4998.04
499896,4998.96
499988,4999.88
500078,5000.78
500166,5001.66
500253,5002.53
500339,5003.39
500423,5004.23
500508,5005.08
500590,5005.9
500672,5006.72
500753,5007.53
500835,5008.35
500917,5009.17
501002,5010.02
501090,5010.9
501179,5011.79
501270,5012.7
501364,5013.64
501460,5014.6
501558,5015.58
501654,5016.54
501748,5017.48
501846,5018.46
501945,5019.45
502048,5020.48
502153,5021.53
502259,5022.59
502366,5023.66
502470,5024.7
502569,5025.69
502669,5026.69
502768,5027.68
502870,5028.7
502971,5029.71
503072,5030.72
503173,5031.73
503278,5032.78
503383,5033.83
503486,5034.86
503584,5035.84
503680,5036.8
503774,5037.74
503868,5038.68
503966,5039.66
504070,5040.7
504177,5041.77
504284,5042.84
504390,5043.9
504491,5044.91
504594,5045.94
504697,5046.97
504801,5048.01
504899,5048.99
504996,5049.96
505090,5050.9
505184,5051.84
505281,5052.81
505383,5053.83
505489,5054.89
505591,5055.91
505691,5056.91
505789,5057.89
505889,5058.89
505993,5059.93
506098,5060.98
506200,5062.0
506302,5063.02
506398,5063.98
506491,5064.91
506587,5065.87
506685,5066.85
506790,5067.9
506891,5068.91
506992,5069.92
507089,5070.89
507187,5071.87
507288,5072.88
507389,5073.89
507492,5074.92
507591,5075.91
507690,5076.9
507788,5077.88
507890,5078.9
507993,5079.93
508097,5080.97
508199,5081.99
508298,5082.98
508395,5083.95
508490,5084.9
508586,5085.86
508683,5086.83
508783,5087.83
508879,5088.79
508976,5089.76
509071,5090.71
509166,5091.66
509264,5092.64
509363,5093.63
509467,5094.67
509566,5095.66
509663,5096.63
509758,5097.58
509852,5098.52
509947,5099.47
510042,5100.42
510136,5101.36
510229,5102.29
510325,5103.25
510423,5104.23
510524,5105.24
510621,5106.21
510718,5107.18
510812,5108.12
510905,5109.05
510997,5109.97
511091,5110.91
511183,5111.83
511273,5112.73
511364,5113.64
511455,5114.55
511545,5115.45
511634,5116.34
511720,5117.2
511804,5118.04
511889,5118.89
511974,5119.74
512062,5120.62
512152,5121.52
512245,5122.45
512339,5123.39
512434,5124.34
512535,5125.35
512641,5126.41
512751,5127.51
512860,5128.6
512966,5129.66
513071,5130.71
513176,5131.76
513279,5132.79
513382,5133.82
513483,5134.83
513581,5135.81
513677,5136.77
513776,5137.76
513874,5138.74
513972,5139.72
514070,5140.7
514164,5141.64
514258,5142.58
514351,5143.51
514448,5144.48
514547,5145.47
514651,5146.51
514751,5147.51
514851,5148.51
514952,5149.52
515058,5150.58
515165,5151.65
515265,5152.65
515361,5153.61
515458,5154.58
515556,5155.56
515657,5156.57
515752,5157.52
515846,5158.46
515944,5159.44
516042,5160.42
516140,5161.4
516236,5162.36
516330,5163.3
516426,5164.26
516518,5165.18
516609,5166.09
516700,5167.0
516790,5167.9
516879,5168.79
516965,5169.65
517053,5170.53
517139,5171.39
517223,5172.23
517306,5173.06
517388,5173.88
517469,5174.69
517549,5175.49
517631,5176.31
517715,5177.15
517801,5178.01
517889,5178.89
517981,5179.81
518079,5180.79
518178,5181.78
518280,5182.8
518377,5183.77
518477,5184.77
518580,5185.8
518686,5186.86
518793,5187.93
518900,5189.0
519008,5190.08
519113,5191.13
519212,5192.12
519311,5193.11
519411,5194.11
519510,5195.1
519609,5196.09
519707,5197.07
519806,5198.06
519907,5199.07
520009,5200.09
520113,5201.13
520213,5202.13
520312,5203.12
520410,5204.1
520511,5205.11
520613,5206.13
520713,5207.13
520813,5208.13
520909,5209.09
521005,5210.05
521098,5210.98
521193,5211.93
521289,5212.89
521386,5213.86
521481,5214.81
521574,5215.74
521667,5216.67
521760,5217.6
521856,5218.56
521954,5219.54
522053,5220.53
522150,5221.5
522249,5222.49
522350,5223.5
522454,5224.54
522557,5225.57
522654,5226.54
522748,5227.48
522843,5228.43
522940,5229.4
523035,5230.35
523128,5231.28
523221,5232.21
523312,5233.12
523404,5234.04
523501,5235.01
523601,5236.01
523699,5236.99
523795,5237.95
523892,5238.92
523993,5239.93
524096,5240.96
524193,5241.93
524288,5242.88
524381,5243.81
524480,5244.8
524579,5245.79
524677,5246.77
524774,5247.74
524868,5248.68
524960,5249.6
525053,5250.53
525147,5251.47
525238,5252.38
525329,5253.29
525422,5254.22
525518,5255.18
525614,5256.14
525708,5257.08
525801,5258.01
525892,5258.92
525980,5259.8
526068,5260.68
526157,5261.57
526244,5262.44
526331,5263.31
526416,5264.16
526500,5265.0
526586,5265.86
526672,5266.72
526761,5267.61
526856,5268.56
526957,5269.57
527067,5270.67
527184,5271.84
527301,5273.01
527407,5274.07
527511,5275.11
527614,5276.14
527716,5277.16
527818,5278.18
527917,5279.17
528013,5280.13
528109,5281.09
528206,5282.06
528303,5283.03
528401,5284.01
528502,5285.02
528604,5286.04
528704,5287.04
528799,5287.99
528893,5288.93
528987,5289.87
529083,5290.83
529181,5291.81
529281,5292.81
529377,5293.77
529471,5294.71
529570,5295.7
529666,5296.66
529760,5297.6
529854,5298.54
529946,5299.46
530037,5300.37
530131,5301.31
530228,5302.28
530326,5303.26
530421,5304.21
530516,5305.16
530615,5306.15
530713,5307.13
530808,5308.08
530901,5309.01
530992,5309.92
531085,5310.85
531174,5311.74
531262,5312.62
531350,5313.5
531437,5314.37
531523,5315.23
531607,5316.07
531690,5316.9
531774,5317.74
531861,5318.61
531951,5319.51
532045,5320.45
532142,5321.42
532238,5322.38
532336,5323.36
532441,5324.41
532551,5325.51
532662,5326.62
532772,5327.72
532874,5328.74
532973,5329.73
533074,5330.74
533174,5331.74
533272,5332.72
533370,5333.7
533467,5334.67
533561,5335.61
533657,5336.57
533756,5337.56
533859,5338.59
533961,5339.61
534061,5340.61
534159,5341.59
534256,5342.56
534355,5343.55
534455,5344.55
534558,5345.58
534661,5346.61
534762,5347.62
534861,5348.61
534957,5349.57
535055,5350.55
535156,5351.56
535258,5352.58
535361,5353.61
535459,5354.59
535555,5355.55
535654,5356.54
535756,5357.56
535860,5358.6
535963,5359.63
536062,5360.62
536159,5361.59
536253,5362.53
536350,5363.5
536447,5364.47
536544,5365.44
536639,5366.39
536733,5367.33
536828,5368.28
536928,5369.28
537033,5370.33
537135,5371.35
537233,5372.33
537329,5373.29
537426,5374.26
537525,5375.25
537624,5376.24
537726,5377.26
537826,5378.26
537923,5379.23
538020,5380.2
538119,5381.19
538220,5382.2
538316,5383.16
538412,5384.12
538508,5385.08
538607,5386.07
538708,5387.08
538807,5388.07
538903,5389.03
538996,5389.96
539091,5390.91
539187,5391.87
539285,5392.85
539378,5393.78
539471,5394.71
539563,5395.63
539658,5396.58
539757,5397.57
539858,5398.58
539955,5399.55
540051,5400.51
540153,5401.53
540253,5402.53
540350,5403.5
540445,5404.45
540538,5405.38
540631,5406.31
540730,5407.3
540833,5408.33
540936,5409.36
541033,5410.33
541126,5411.26
541218,5412.18
541309,5413.09
541399,5413.99
541490,5414.9
541581,5415.81
541676,5416.76
541767,5417.67
541860,5418.6
541953,5419.53
542044,5420.44
542135,5421.35
542231,5422.31
542325,5423.25
542421,5424.21
542519,5425.19
542623,5426.23
542731,5427.31
542840,5428.4
542943,5429.43
543045,5430.45
543148,5431.48
543250,5432.5
543349,5433.49
543447,5434.47
543544,5435.44
543638,5436.38
543732,5437.32
543827,5438.27
543923,5439.23
544019,5440.19
544114,5441.14
544210,5442.1
544308,5443.08
544407,5444.07
544500,5445.0
544593,5445.93
544689,5446.89
544783,5447.83
544874,5448.74
544966,5449.66
545055,5450.55
545145,5451.45
545233,5452.33
545319,5453.19
545406,5454.06
545494,5454.94
545586,5455.86
545682,5456.82
545784,5457.84
545889,5458.89
545989,5459.89
546088,5460.88
546190,5461.9
546292,5462.92
546392,5463.92
546487,5464.87
546579,5465.79
546673,5466.73
546767,5467.67
546864,5468.64
546965,5469.65
547063,5470.63
547160,5471.6
547258,5472.58
547357,5473.57
547459,5474.59
547560,5475.6
547656,5476.56
547752,5477.52
547850,5478.5
547951,5479.51
548057,5480.57
548159,5481.59
548259,5482.59
548363,5483.63
548468,5484.68
548573,5485.73
548671,5486.71
548767,5487.67
548862,5488.62
548959,5489.59
549057,5490.57
549156,5491.56
549253,5492.53
549348,5493.48
549444,5494.44
549545,5495.45
549648,5496.48
549752,5497.52
549851,5498.51
549947,5499.47
550041,5500.41
550135,5501.35
550232,5502.32
550331,5503.31
550428,5504.28
550525,5505.25
550625,5506.25
550730,5507.3
550834,5508.34
550934,5509.34
551031,5510.31
551126,5511.26
551225,5512.25
551326,5513.26
551430,5514.3
551529,5515.29
551627,5516.27
551722,5517.22
551821,5518.21
551922,5519.22
552024,5520.24
552122,5521.22
552219,5522.19
552315,5523.15
552415,5524.15
552518,5525.18
552615,5526.15
552711,5527.11
552806,5528.06
552905,5529.05
553007,5530.07
553104,5531.04
553200,5532.0
553296,5532.96
553394,5533.94
553493,5534.93
553588,5535.88
553680,5536.8
553772,5537.72
553867,5538.67
553961,5539.61
554053,5540.53
554144,5541.44
554236,5542.36
554330,5543.3
554427,5544.27
554522,5545.22
554616,5546.16
554709,5547.09
554807,5548.07
554907,5549.07
555007,5550.07
555102,5551.02
555195,5551.95
555287,5552.87
555383,5553.83
555482,5554.82
555579,5555.79
555674,5556.74
555768,5557.68
555861,5558.61
555954,5559.54
556050,5560.5
556143,5561.43
556236,5562.36
556333,5563.33
556437,5564.37
556539,5565.39
556638,5566.38
556734,5567.34
556833,5568.33
556935,5569.35
557028,5570.28
557121,5571.21
557213,5572.13
557305,5573.05
557395,5573.95
557485,5574.85
557573,5575.73
557660,5576.6
557746,5577.46
557832,5578.32
557924,5579.24
558017,5580.17
558109,5581.09
558202,5582.02
558295,5582.95
558391,5583.91
558482,5584.82
558572,5585.72
558663,5586.63
558760,5587.6
558861,5588.61
558962,5589.62
559059,5590.59
559157,5591.57
559261,5592.61
559365,5593.65
559466,5594.66
559567,5595.67
559667,5596.67
559764,5597.64
559857,5598.57
559950,5599.5
560042,5600.42
560135,5601.35
560240,5602.4
560340,5603.4
560445,5604.45
560543,5605.43
560645,5606.45
560750,5607.5
560853,5608.53
560948,5609.48
561041,5610.41
561132,5611.32
561226,5612.26
561320,5613.2
561410,5614.1
561499,5614.99
561593,5615.93
561688,5616.88
561779,5617.79
561869,5618.69
561956,5619.56
562044,5620.44
562131,5621.31
562217,5622.17
562305,5623.05
562391,5623.91
562477,5624.77
562567,5625.67
562657,5626.57
562743,5627.43
562831,5628.31
562922,5629.22
563017,5630.17
563111,5631.11
563205,5632.05
563304,5633.04
563405,5634.05
563507,5635.07
563603,5636.03
563703,5637.03
563803,5638.03
563904,5639.04
564005,5640.05
564105,5641.05
564200,5642.0
564294,5642.94
564389,5643.89
564486,5644.86
564582,5645.82
564679,5646.79
564771,5647.71
564864,5648.64
564955,5649.55
565050,5650.5
565145,5651.45
565241,5652.41
565333,5653.33
565424,5654.24
565518,5655.18
565612,5656.12
565704,5657.04
565795,5657.95
565886,5658.86
565983,5659.83
566080,5660.8
566173,5661.73
566266,5662.66
566362,5663.62
566460,5664.6
566552,5665.52
566643,5666.43
566738,5667.38
566834,5668.34
566924,5669.24
567013,5670.13
567099,5670.99
567186,5671.86
567272,5672.72
567361,5673.61
567450,5674.5
567538,5675.38
567630,5676.3
567723,5677.23
567815,5678.15
567904,5679.04
567993,5679.93
568086,5680.86
568179,5681.79
568270,5682.7
568362,5683.62
568461,5684.61
568561,5685.61
568665,5686.65
568774,5687.74
568884,5688.84
568992,5689.92
569098,5690.98
569200,5692.0
569302,5693.02
569399,5693.99
569493,5694.93
569588,5695.88
569685,5696.85
569783,5697.83
569882,5698.82
569975,5699.75
570067,5700.67
570160,5701.6
570256,5702.56
570355,5703.55
570450,5704.5
570544,5705.44
570638,5706.38
570737,5707.37
570840,5708.4
570941,5709.41
571035,5710.35
571127,5711.27
571223,5712.23
571320,5713.2
571416,5714.16
571508,5715.08
571601,5716.01
571698,5716.98
571796,5717.96
571889,5718.89
571982,5719.82
572076,5720.76
572174,5721.74
572268,5722.68
572359,5723.59
572452,5724.52
572545,5725.45
572632,5726.32
572717,5727.17
572803,5728.03
572887,5728.87
572975,5729.75
573063,5730.63
573149,5731.49
573235,5732.35
573320,5733.2
573405,5734.05
573492,5734.92
573579,5735.79
573665,5736.65
573751,5737.51
573837,5738.37
573925,5739.25
574015,5740.15
574105,5741.05
574197,5741.97
574295,5742.95
574397,5743.97
574503,5745.03
574607,5746.07
574712,5747.12
574814,5748.14
574918,5749.18
575015,5750.15
575114,5751.14
575212,5752.12
575314,5753.14
575410,5754.1
575505,5755.05
575599,5755.99
575694,5756.94
575790,5757.9
575887,5758.87
575982,5759.82
576077,5760.77
576173,5761.73
576270,5762.7
576370,5763.7
576466,5764.66
576560,5765.6
576652,5766.52
576746,5767.46
576841,5768.41
576936,5769.36
577030,5770.3
577122,5771.22
577215,5772.15
577314,5773.14
577417,5774.17
577521,5775.21
577620,5776.2
577721,5777.21
577824,5778.24
577926,5779.26
578022,5780.22
578115,5781.15
578209,5782.09
578305,5783.05
578401,5784.01
578495,5784.95
578588,5785.88
578681,5786.81
578777,5787.77
578873,5788.73
578965,5789.65
579058,5790.58
579154,5791.54
579255,5792.55
579348,5793.48
579440,5794.4
579532,5795.32
579627,5796.27
579723,5797.23
579816,5798.16
579910,5799.1
580003,5800.03
580094,5800.94
580181,5801.81
580269,5802.69
580355,5803.55
580439,5804.39
580526,5805.26
580613,5806.13
580697,5806.97
580783,5807.83
580870,5808.7
580959,5809.59
581046,5810.46
581134,5811.34
581229,5812.29
581329,5813.29
581432,5814.32
581528,5815.28
581626,5816.26
581727,5817.27
581832,5818.32
581932,5819.32
582030,5820.3
582124,5821.24
582217,5822.17
582312,5823.12
582409,5824.09
582506,5825.06
582601,5826.01
582700,5827.0
582798,5827.98
582896,5828.96
582990,5829.9
583082,5830.82
583174,5831.74
583269,5832.69
583365,5833.65
583457,5834.57
583550,5835.5
583640,5836.4
583733,5837.33
583831,5838.31
583931,5839.31
584026,5840.26
584121,5841.21
584222,5842.22
584325,5843.25
584421,5844.21
584515,5845.15
584610,5846.1
584711,5847.11
584808,5848.08
584904,5849.04
585002,5850.02
585106,5851.06
585205,5852.05
585300,5853.0
585395,5853.95
585494,5854.94
585592,5855.92
585686,5856.86
585777,5857.77
585872,5858.72
585966,5859.66
586056,5860.56
586146,5861.46
586240,5862.4
586330,5863.3
586418,5864.18
586504,5865.04
586588,5865.88
586671,5866.71
586754,5867.54
586839,5868.39
586925,5869.25
587009,5870.09
587095,5870.95
587181,5871.81
587266,5872.66
587354,5873.54
587442,5874.42
587530,5875.3
587618,5876.18
587712,5877.12
587810,5878.1
587913,5879.13
588019,5880.19
588122,5881.22
588224,5882.24
588322,5883.22
588416,5884.16
588509,5885.09
588600,5886.0
588693,5886.93
588784,5887.84
588877,5888.77
588970,5889.7
589065,5890.65
589161,5891.61
589257,5892.57
589352,5893.52
589443,5894.43
589533,5895.33
589623,5896.23
589714,5897.14
589805,5898.05
589897,5898.97
589992,5899.92
590090,5900.9
590186,5901.86
590279,5902.79
590372,5903.72
590468,5904.68
590568,5905.68
590666,5906.66
590760,5907.6
590854,5908.54
590952,5909.52
591051,5910.51
591144,5911.44
591236,5912.36
591329,5913.29
591424,5914.24
591515,5915.15
591605,5916.05
591698,5916.98
591795,5917.95
591886,5918.86
591977,5919.77
592070,5920.7
592166,5921.66
592256,5922.56
592346,5923.46
592442,5924.42
592537,5925.37
592628,5926.28
592719,5927.19
592812,5928.12
592900,5929.0
592985,5929.85
593070,5930.7
593154,5931.54
593237,5932.37
593324,5933.24
593408,5934.08
593494,5934.94
593580,5935.8
593663,5936.63
593747,5937.47
593831,5938.31
593916,5939.16
594004,5940.04
594090,5940.9
594178,5941.78
594269,5942.69
594364,5943.64
594462,5944.62
594564,5945.64
594665,5946.65
594767,5947.67
594867,5948.67
594965,5949.65
595064,5950.64
595161,5951.61
595256,5952.56
595350,5953.5
595445,5954.45
595537,5955.37
595632,5956.32
595729,5957.29
595828,5958.28
595927,5959.27
596025,5960.25
596119,5961.19
596211,5962.11
596307,5963.07
596400,5964.0
596496,5964.96
596587,5965.87
596678,5966.78
596769,5967.69
596863,5968.63
596958,5969.58
597050,5970.5
597141,5971.41
597234,5972.34
597328,5973.28
597424,5974.24
597515,5975.15
597606,5976.06
597703,5977.03
597802,5978.02
597898,5978.98
597992,5979.92
598083,5980.83
598180,5981.8
598278,5982.78
598370,5983.7
598463,5984.63
598556,5985.56
598650,5986.5
598741,5987.41
598833,5988.33
598928,5989.28
599024,5990.24
599116,5991.16
599207,5992.07
599297,5992.97
599384,5993.84
599470,5994.7
599555,5995.55
599638,5996.38
599723,5997.23
599811,5998.11
599897,5998.97
599981,5999.81
600066,6000.66
600150,6001.5
600233,6002.33
600318,6003.18
600401,6004.01
600484,6004.84
600568,6005.68
600654,6006.54
600741,6007.41
600827,6008.27
600912,6009.12
600997,6009.97
601083,6010.83
601170,6011.7
601260,6012.6
601352,6013.52
601445,6014.45
601540,6015.4
601635,6016.35
601731,6017.31
601827,6018.27
601922,6019.22
602017,6020.17
602111,6021.11
602203,6022.03
602298,6022.98
602392,6023.92
602486,6024.86
602580,6025.8
602671,6026.71
602764,6027.64
602857,6028.57
602953,6029.53
603047,6030.47
603139,6031.39
603231,6032.31
603324,6033.24
603419,6034.19
603511,6035.11
603602,6036.02
603693,6036.93
603789,6037.89
603887,6038.87
603981,6039.81
604074,6040.74
604165,6041.65
604260,6042.6
604357,6043.57
604452,6044.52
604544,6045.44
604636,6046.36
604733,6047.33
604833,6048.33
604929,6049.29
605023,6050.23
605115,6051.15
605210,6052.1
605303,6053.03
605393,6053.93
605483,6054.83
605577,6055.77
605673,6056.73
605766,6057.66
605859,6058.59
605958,6059.58
606056,6060.56
606149,6061.49
606237,6062.37
606324,6063.24
606411,6064.11
606495,6064.95
606582,6065.82
606668,6066.68
606753,6067.53
606842,6068.42
606931,6069.31
607018,6070.18
607107,6071.07
607199,6071.99
607293,6072.93
607389,6073.89
607484,6074.84
607586,6075.86
607692,6076.92
607801,6078.01
607911,6079.11
608017,6080.17
608120,6081.2
608217,6082.17
608313,6083.13
608411,6084.11
608508,6085.08
608604,6086.04
608699,6086.99
608793,6087.93
608883,6088.83
608975,6089.75
609071,6090.71
609170,6091.7
609271,6092.71
609367,6093.67
609463,6094.63
609556,6095.56
609652,6096.52
609748,6097.48
609843,6098.43
609935,6099.35
610025,6100.25
610115,6101.15
610207,6102.07
610303,6103.03
610394,6103.94
610491,6104.91
610590,6105.9
610685,6106.85
610778,6107.78
610871,6108.71
610967,6109.67
611061,6110.61
611152,6111.52
611246,6112.46
611342,6113.42
611433,6114.33
611524,6115.24
611618,6116.18
611713,6117.13
611806,6118.06
611896,6118.96
611986,6119.86
612072,6120.72
612157,6121.57
612241,6122.41
612324,6123.24
612407,6124.07
612493,6124.93
612576,6125.76
612659,6126.59
612742,6127.42
612823,6128.23
612904,6129.04
612986,6129.86
613066,6130.66
613148,6131.48
613231,6132.31
613314,6133.14
613400,6134.0
613487,6134.87
613576,6135.76
613670,6136.7
613768,6137.68
613869,6138.69
613971,6139.71
614074,6140.74
614175,6141.75
614273,6142.73
614366,6143.66
614460,6144.6
614554,6145.54
614646,6146.46
614739,6147.39
614832,6148.32
614925,6149.25
615017,6150.17
615110,6151.1
615204,6152.04
615299,6152.99
615391,6153.91
615485,6154.85
615578,6155.78
615672,6156.72
615763,6157.63
615857,6158.57
615946,6159.46
616035,6160.35
616129,6161.29
616224,6162.24
616320,6163.2
616415,6164.15
616507,6165.07
616603,6166.03
616701,6167.01
616802,6168.02
616895,6168.95
616989,6169.89
617083,6170.83
617178,6171.78
617275,6172.75
617367,6173.67
617460,6174.6
617556,6175.56
617655,6176.55
617748,6177.48
617842,6178.42
617940,6179.4
618044,6180.44
618143,6181.43
618237,6182.37
618331,6183.31
618420,6184.2
618506,6185.06
618593,6185.93
618678,6186.78
618763,6187.63
618852,6188.52
618939,6189.39
619026,6190.26
619117,6191.17
619207,6192.07
619295,6192.95
619383,6193.83
619476,6194.76
619573,6195.73
619676,6196.76
619775,6197.75
619873,6198.73
619974,6199.74
620077,6200.77
620183,6201.83
620284,6202.84
620385,6203.85
620486,6204.86
620585,6205.85
620684,6206.84
620783,6207.83
620880,6208.8
620977,6209.77
621070,6210.7
621162,6211.62
621256,6212.56
621352,6213.52
621448,6214.48
621541,6215.41
621634,6216.34
621725,6217.25
621820,6218.2
621918,6219.18
622013,6220.13
622105,6221.05
622198,6221.98
622291,6222.91
622386,6223.86
622485,6224.85
622578,6225.78
622672,6226.72
622768,6227.68
622867,6228.67
622966,6229.66
623062,6230.62
623157,6231.57
623251,6232.51
623340,6233.4
623429,6234.29
623517,6235.17
623601,6236.01
623686,6236.86
623771,6237.71
623853,6238.53
623938,6239.38
624021,6240.21
624104,6241.04
624189,6241.89
624272,6242.72
624354,6243.54
624436,6244.36
624521,6245.21
624609,6246.09
624700,6247.0
624790,6247.9
624884,6248.84
624979,6249.79
625075,6250.75
625174,6251.74
625277,6252.77
625375,6253.75
625474,6254.74
625575,6255.75
625674,6256.74
625772,6257.72
625871,6258.71
625971,6259.71
626070,6260.7
626170,6261.7
626270,6262.7
626369,6263.69
626468,6264.68
626564,6265.64
626657,6266.57
626747,6267.47
626836,6268.36
626925,6269.25
627016,6270.16
627109,6271.09
627200,6272.0
627290,6272.9
627379,6273.79
627468,6274.68
627559,6275.59
627651,6276.51
627741,6277.41
627832,6278.32
627927,6279.27
628025,6280.25
628119,6281.19
628214,6282.14
628310,6283.1
628410,6284.1
628505,6285.05
628599,6285.99
628694,6286.94
628790,6287.9
628887,6288.87
628979,6289.79
629071,6290.71
629167,6291.67
629265,6292.65
629358,6293.58
629449,6294.49
629538,6295.38
629626,6296.26
629713,6297.13
629800,6298.0
629885,6298.85
629972,6299.72
630059,6300.59
630145,6301.45
630232,6302.32
630318,6303.18
630403,6304.03
630489,6304.89
630577,6305.77
630668,6306.68
630759,6307.59
630853,6308.53
630956,6309.56
631064,6310.64
631174,6311.74
631285,6312.85
631397,6313.97
631504,6315.04
631604,6316.04
631706,6317.06
631808,6318.08
631909,6319.09
632007,6320.07
632102,6321.02
632196,6321.96
632291,6322.91
632385,6323.85
632476,6324.76
632566,6325.66
632655,6326.55
632747,6327.47
632841,6328.41
632937,6329.37
633029,6330.29
633121,6331.21
633213,6332.13
633308,6333.08
633403,6334.03
633498,6334.98
633592,6335.92
633687,6336.87
633791,6337.91
633896,6338.96
633995,6339.95
634095,6340.95
634198,6341.98
634302,6343.02
634400,6344.0
634497,6344.97
634594,6345.94
634696,6346.96
634797,6347.97
634894,6348.94
634993,6349.93
635090,6350.9
635183,6351.83
635275,6352.75
635369,6353.69
635464,6354.64
635558,6355.58
635650,6356.5
635742,6357.42
635833,6358.33
635922,6359.22
636007,6360.07
636092,6360.92
636174,6361.74
636258,6362.58
636342,6363.42
636424,6364.24
636510,6365.1
636596,6365.96
636683,6366.83
636771,6367.71
636862,6368.62
636954,6369.54
637043,6370.43
637135,6371.35
637231,6372.31
637334,6373.34
637440,6374.4
637541,6375.41
637638,6376.38
637738,6377.38
637837,6378.37
637936,6379.36
638035,6380.35
638135,6381.35
638236,6382.36
638338,6383.38
638439,6384.39
638536,6385.36
638630,6386.3
638725,6387.25
638825,6388.25
638926,6389.26
639027,6390.27
639123,6391.23
639218,6392.18
639313,6393.13
639410,6394.1
639503,6395.03
639598,6395.98
639695,6396.95
639798,6397.98
639899,6398.99
639997,6399.97
640096,6400.96
640197,6401.97
640297,6402.97
640391,6403.91
640484,6404.84
640580,6405.8
640679,6406.79
640773,6407.73
640866,6408.66
640965,6409.65
641065,6410.65
641160,6411.6
641257,6412.57
641358,6413.58
641461,6414.61
641557,6415.57
641653,6416.53
641748,6417.48
641841,6418.41
641930,6419.3
642015,6420.15
642101,6421.01
642185,6421.85
642268,6422.68
642352,6423.52
642434,6424.34
642517,6425.17
642600,6426.0
642682,6426.82
642765,6427.65
642848,6428.48
642933,6429.33
643017,6430.17
643104,6431.04
643195,6431.95
643291,6432.91
643395,6433.95
643503,6435.03
643612,6436.12
643720,6437.2
643827,6438.27
643932,6439.32
644035,6440.35
644132,6441.32
644228,6442.28
644323,6443.23
644418,6444.18
644513,6445.13
644607,6446.07
644701,6447.01
644792,6447.92
644881,6448.81
644968,6449.68
645054,6450.54
645136,6451.36
645216,6452.16
645294,6452.94
645369,6453.69
645444,6454.44
645521,6455.21
645598,6455.98
645672,6456.72
645746,6457.46
645820,6458.2
645893,6458.93
645965,6459.65
646036,6460.36
646107,6461.07
646179,6461.79
646251,6462.51
646324,6463.24
646399,6463.99
646478,6464.78
646560,6465.6
646647,6466.47
646739,6467.39
646835,6468.35
646932,6469.32
647029,6470.29
647125,6471.25
647222,6472.22
647317,6473.17
647411,6474.11
647508,6475.08
647605,6476.05
647704,6477.04
647803,6478.03
647903,6479.03
648000,6480.0
648093,6480.93
648185,6481.85
648273,6482.73
648364,6483.64
648459,6484.59
648559,6485.59
648658,6486.58
648760,6487.6
648866,6488.66
648973,6489.73
649072,6490.72
649168,6491.68
649259,6492.59
649349,6493.49
649437,6494.37
649527,6495.27
649614,6496.14
649700,6497.0
649785,6497.85
649868,6498.68
649950,6499.5
650035,6500.35
650128,6501.28
650219,6502.19
650312,6503.12
650411,6504.11
650506,6505.06
650600,6506.0
650694,6506.94
650792,6507.92
650892,6508.92
650990,6509.9
651087,6510.87
651186,6511.86
651286,6512.86
651387,6513.87
651489,6514.89
651591,6515.91
651693,6516.93
651796,6517.96
651896,6518.96
651998,6519.98
652101,6521.01
652200,6522.0
652300,6523.0
652400,6524.0
652501,6525.01
652601,6526.01
652701,6527.01
652801,6528.01
652901,6529.01
652997,6529.97
653093,6530.93
653190,6531.9
653291,6532.91
653394,6533.94
653494,6534.94
653593,6535.93
653695,6536.95
653801,6538.01
653907,6539.07
654007,6540.07
654110,6541.1
654212,6542.12
654310,6543.1
654404,6544.04
654500,6545.0
654597,6545.97
654690,6546.9
654783,6547.83
654879,6548.79
654977,6549.77
655073,6550.73
655166,6551.66
655260,6552.6
655350,6553.5
655440,6554.4
655530,6555.3
655622,6556.22
655711,6557.11
655800,6558.0
655891,6558.91
655984,6559.84
656074,6560.74
656164,6561.64
656254,6562.54
656341,6563.41
656426,6564.26
656512,6565.12
656596,6565.96
656682,6566.82
656767,6567.67
656851,6568.51
656936,6569.36
657020,6570.2
657104,6571.04
657189,6571.89
657275,6572.75
657362,6573.62
657451,6574.51
657545,6575.45
657639,6576.39
657737,6577.37
657835,6578.35
657930,6579.3
658028,6580.28
658127,6581.27
658225,6582.25
658320,6583.2
658415,6584.15
658512,6585.12
658608,6586.08
658705,6587.05
658801,6588.01
658896,6588.96
658991,6589.91
659086,6590.86
659179,6591.79
659274,6592.74
659371,6593.71
659470,6594.7
659566,6595.66
659660,6596.6
659753,6597.53
659849,6598.49
659946,6599.46
660045,6600.45
660141,6601.41
660238,6602.38
660336,6603.36
660435,6604.35
660531,6605.31
660625,6606.25
660721,6607.21
660819,6608.19
660913,6609.13
661005,6610.05
661097,6610.97
661188,6611.88
661277,6612.77
661366,6613.66
661452,6614.52
661537,6615.37
661622,6616.22
661709,6617.09
661798,6617.98
661884,6618.84
661970,6619.7
662055,6620.55
662140,6621.4
662222,6622.22
662304,6623.04
662387,6623.87
662472,6624.72
662561,6625.61
662651,6626.51
662744,6627.44
662840,6628.4
662941,6629.41
663046,6630.46
663148,6631.48
663250,6632.5
663356,6633.56
663464,6634.64
663576,6635.76
663688,6636.88
663801,6638.01
663908,6639.08
664012,6640.12
664114,6641.14
664212,6642.12
664308,6643.08
664405,6644.05
664501,6645.01
664598,6645.98
664697,6646.97
664793,6647.93
664888,6648.88
664982,6649.82
665080,6650.8
665182,6651.82
665278,6652.78
665375,6653.75
665471,6654.71
665570,6655.7
665670,6656.7
665769,6657.69
665864,6658.64
665958,6659.58
666057,6660.57
666156,6661.56
666255,6662.55
666351,6663.51
666447,6664.47
666547,6665.47
666647,6666.47
666745,6667.45
666841,6668.41
666941,6669.41
667041,6670.41
667135,6671.35
667227,6672.27
667320,6673.2
667408,6674.08
667494,6674.94
667582,6675.82
667668,6676.68
667755,6677.55
667844,6678.44
667932,6679.32
668023,6680.23
668118,6681.18
668215,6682.15
668309,6683.09
668406,6684.06
668508,6685.08
668609,6686.09
668704,6687.04
668800,6688.0
668899,6688.99
669001,6690.01
669104,6691.04
669212,6692.12
669319,6693.19
669426,6694.26
669524,6695.24
669625,6696.25
669723,6697.23
669824,6698.24
669926,6699.26
670026,6700.26
670125,6701.25
670223,6702.23
670327,6703.27
670432,6704.32
670532,6705.32
670632,6706.32
670733,6707.33
670835,6708.35
670932,6709.32
671028,6710.28
671122,6711.22
671218,6712.18
671312,6713.12
671408,6714.08
671507,6715.07
671607,6716.07
671702,6717.02
671796,6717.96
671891,6718.91
671990,6719.9
672084,6720.84
672179,6721.79
672277,6722.77
672377,6723.77
672472,6724.72
672568,6725.68
672669,6726.69
672767,6727.67
672862,6728.62
672959,6729.59
673060,6730.6
673156,6731.56
673252,6732.52
673353,6733.53
673458,6734.58
673555,6735.55
673650,6736.5
673740,6737.4
673827,6738.27
673915,6739.15
674000,6740.0
674085,6740.85
674171,6741.71
674254,6742.54
674340,6743.4
674424,6744.24
674508,6745.08
674593,6745.93
674679,6746.79
674768,6747.68
674857,6748.57
674952,6749.52
675053,6750.53
675158,6751.58
675260,6752.6
675361,6753.61
675465,6754.65
675568,6755.68
675671,6756.71
675773,6757.73
675875,6758.75
675975,6759.75
676077,6760.77
676180,6761.8
676283,6762.83
676385,6763.85
676487,6764.87
676585,6765.85
676679,6766.79
676773,6767.73
676865,6768.65
676963,6769.63
677062,6770.62
677158,6771.58
677254,6772.54
677350,6773.5
677453,6774.53
677558,6775.58
677661,6776.61
677760,6777.6
677859,6778.59
677960,6779.6
678060,6780.6
678159,6781.59
678260,6782.6
678364,6783.64
678465,6784.65
678565,6785.65
678663,6786.63
678761,6787.61
678858,6788.58
678950,6789.5
679040,6790.4
679128,6791.28
679213,6792.13
679299,6792.99
679383,6793.83
679467,6794.67
679552,6795.52
679636,6796.36
679718,6797.18
679801,6798.01
679886,6798.86
679971,6799.71
680056,6800.56
680142,6801.42
680233,6802.33
680325,6803.25
680416,6804.16
680510,6805.1
680608,6806.08
680708,6807.08
680807,6808.07
680903,6809.03
680998,6809.98
681098,6810.98
681200,6812.0
681306,6813.06
681414,6814.14
681522,6815.22
681624,6816.24
681720,6817.2
681819,6818.19
681922,6819.22
682028,6820.28
682129,6821.29
682228,6822.28
682326,6823.26
682427,6824.27
682528,6825.28
682626,6826.26
682723,6827.23
682823,6828.23
682922,6829.22
683023,6830.23
683120,6831.2
683218,6832.18
683313,6833.13
683409,6834.09
683504,6835.04
683597,6835.97
683690,6836.9
683787,6837.87
683883,6838.83
683976,6839.76
684068,6840.68
684163,6841.63
684253,6842.53
684343,6843.43
684433,6844.33
684525,6845.25
684616,6846.16
684709,6847.09
684804,6848.04
684895,6848.95
684984,6849.84
685072,6850.72
685156,6851.56
685241,6852.41
685325,6853.25
685409,6854.09
685494,6854.94
685577,6855.77
685662,6856.62
685748,6857.48
685833,6858.33
685919,6859.19
686003,6860.03
686088,6860.88
686173,6861.73
686259,6862.59
686350,6863.5
686444,6864.44
686540,6865.4
686639,6866.39
686733,6867.33
686832,6868.32
686936,6869.36
687038,6870.38
687143,6871.43
687248,6872.48
687353,6873.53
687458,6874.58
687562,6875.62
687667,6876.67
687772,6877.72
687875,6878.75
687976,6879.76
688073,6880.73
688167,6881.67
688258,6882.58
688351,6883.51
688446,6884.46
688542,6885.42
688635,6886.35
688727,6887.27
688820,6888.2
688916,6889.16
689018,6890.18
689115,6891.15
689214,6892.14
689318,6893.18
689425,6894.25
689532,6895.32
689632,6896.32
689736,6897.36
689837,6898.37
689932,6899.32
690028,6900.28
690127,6901.27
690226,6902.26
690320,6903.2
690415,6904.15
690514,6905.14
690612,6906.12
690708,6907.08
690806,6908.06
690906,6909.06
691000,6910.0
691091,6910.91
691179,6911.79
691264,6912.64
691349,6913.49
691433,6914.33
691518,6915.18
691607,6916.07
691695,6916.95
691782,6917.82
691871,6918.71
691957,6919.57
692044,6920.44
692131,6921.31
692220,6922.2
692307,6923.07
692397,6923.97
692491,6924.91
692590,6925.9
692691,6926.91
692789,6927.89
692891,6928.91
692999,6929.99
693112,6931.12
693229,6932.29
693341,6933.41
693448,6934.48
693552,6935.52
693654,6936.54
693758,6937.58
693863,6938.63
693965,6939.65
694066,6940.66
694166,6941.66
694263,6942.63
694357,6943.57
694451,6944.51
694550,6945.5
694652,6946.52
694757,6947.57
694856,6948.56
694954,6949.54
695048,6950.48
695148,6951.48
695250,6952.5
695344,6953.44
695439,6954.39
695535,6955.35
695635,6956.35
695729,6957.29
695825,6958.25
695922,6959.22
696024,6960.24
696120,6961.2
696215,6962.15
696307,6963.07
696400,6964.0
696490,6964.9
696578,6965.78
696663,6966.63
696748,6967.48
696833,6968.33
696916,6969.16
696998,6969.98
697079,6970.79
697159,6971.59
697237,6972.37
697315,6973.15
697393,6973.93
697471,6974.71
697548,6975.48
697626,6976.26
697702,6977.02
697779,6977.79
697854,6978.54
697930,6979.3
698004,6980.04
698077,6980.77
698150,6981.5
698224,6982.24
698301,6983.01
698380,6983.8
698462,6984.62
698547,6985.47
698637,6986.37
698729,6987.29
698825,6988.25
698923,6989.23
699024,6990.24
699120,6991.2
699215,6992.15
699308,6993.08
699401,6994.01
699496,6994.96
699593,6995.93
699690,6996.9
699789,6997.89
699887,6998.87
699982,6999.82
700073,7000.73
700163,7001.63
700251,7002.51
700341,7003.41
700430,7004.3
700525,7005.25
700617,7006.17
700711,7007.11
700805,7008.05
700906,7009.06
701011,7010.11
701108,7011.08
701206,7012.06
701309,7013.09
701422,7014.22
701530,7015.3
701628,7016.28
701724,7017.24
701825,7018.25
701928,7019.28
702036,7020.36
702136,7021.36
702235,7022.35
702335,7023.35
702437,7024.37
702535,7025.35
702637,7026.37
702747,7027.47
702852,7028.52
702948,7029.48
703043,7030.43
703134,7031.34
703221,7032.21
703309,7033.09
703397,7033.97
703483,7034.83
703570,7035.7
703660,7036.6
703749,7037.49
703837,7038.37
703927,7039.27
704018,7040.18
704106,7041.06
704197,7041.97
704292,7042.92
704393,7043.93
704500,7045.0
704599,7045.99
704701,7047.01
704808,7048.08
704916,7049.16
705017,7050.17
705122,7051.22
705227,7052.27
705326,7053.26
705424,7054.24
705528,7055.28
705635,7056.35
705739,7057.39
705835,7058.35
705928,7059.28
706022,7060.22
706118,7061.18
706216,7062.16
706311,7063.11
706405,7064.05
706502,7065.02
706604,7066.04
706702,7067.02
706800,7068.0
706901,7069.01
707008,7070.08
707112,7071.12
707211,7072.11
707309,7073.09
707407,7074.07
707501,7075.01
707593,7075.93
707689,7076.89
707789,7077.89
707885,7078.85
707980,7079.8
708082,7080.82
708184,7081.84
708279,7082.79
708375,7083.75
708471,7084.71
708567,7085.67
708660,7086.6
708751,7087.51
708842,7088.42
708928,7089.28
709015,7090.15
709099,7090.99
709183,7091.83
709271,7092.71
709355,7093.55
709440,7094.4
709526,7095.26
709609,7096.09
709692,7096.92
709777,7097.77
709863,7098.63
709949,7099.49
710036,7100.36
710130,7101.3
710226,7102.26
710328,7103.28
710433,7104.33
710531,7105.31
710634,7106.34
710739,7107.39
710846,7108.46
710950,7109.5
711051,7110.51
711150,7111.5
711249,7112.49
711347,7113.47
711444,7114.44
711545,7115.45
711643,7116.43
711743,7117.43
711839,7118.39
711933,7119.33
712032,7120.32
712135,7121.35
712237,7122.37
712332,7123.32
712427,7124.27
712521,7125.21
712621,7126.21
712724,7127.24
712822,7128.22
712917,7129.17
713013,7130.13
713113,7131.13
713209,7132.09
713304,7133.04
713399,7133.99
713495,7134.95
713593,7135.93
713685,7136.85
713779,7137.79
713879,7138.79
713979,7139.79
714072,7140.72
714166,7141.66
714263,7142.63
714356,7143.56
714447,7144.47
714538,7145.38
714636,7146.36
714730,7147.3
714825,7148.25
714921,7149.21
715023,7150.23
715117,7151.17
715211,7152.11
715305,7153.05
715401,7154.01
715491,7154.91
715580,7155.8
715669,7156.69
715754,7157.54
715839,7158.39
715921,7159.21
716005,7160.05
716088,7160.88
716168,7161.68
716249,7162.49
716327,7163.27
716405,7164.05
716482,7164.82
716556,7165.56
716631,7166.31
716707,7167.07
716783,7167.83
716860,7168.6
716939,7169.39
717019,7170.19
717102,7171.02
717190,7171.9
717282,7172.82
717378,7173.78
717474,7174.74
717571,7175.71
717667,7176.67
717761,7177.61
717852,7178.52
717943,7179.43
718033,7180.33
718123,7181.23
718213,7182.13
718304,7183.04
718397,7183.97
718492,7184.92
718589,7185.89
718686,7186.86
718780,7187.8
718876,7188.76
718972,7189.72
719070,7190.7
719165,7191.65
719257,7192.57
719347,7193.47
719437,7194.37
719535,7195.35
719637,7196.37
719734,7197.34
719831,7198.31
719930,7199.3
720034,7200.34
720136,7201.36
720232,7202.32
720326,7203.26
720422,7204.22
720517,7205.17
720608,7206.08
720700,7207.0
720793,7207.93
720891,7208.91
720983,7209.83
721075,7210.75
721168,7211.68
721268,7212.68
721363,7213.63
721457,7214.57
721547,7215.47
721634,7216.34
721720,7217.2
721805,7218.05
721889,7218.89
721976,7219.76
722064,7220.64
722151,7221.51
722237,7222.37
722324,7223.24
722409,7224.09
722494,7224.94
722581,7225.81
722672,7226.72
722767,7227.67
722862,7228.62
722962,7229.62
723072,7230.72
723192,7231.92
723315,7233.15
723441,7234.41
723562,7235.62
723678,7236.78
723789,7237.89
723894,7238.94
723994,7239.94
724092,7240.92
724188,7241.88
724280,7242.8
724373,7243.73
724470,7244.7
724569,7245.69
724672,7246.72
724771,7247.71
724872,7248.72
724973,7249.73
725080,7250.8
725186,7251.86
725286,7252.86
725384,7253.84
725486,7254.86
725589,7255.89
725690,7256.9
725789,7257.89
725887,7258.87
725988,7259.88
726090,7260.9
726187,7261.87
726283,7262.83
726380,7263.8
726477,7264.77
726571,7265.71
726668,7266.68
726762,7267.62
726853,7268.53
726940,7269.4
727025,7270.25
727107,7271.07
727188,7271.88
727270,7272.7
727351,7273.51
727432,7274.32
727512,7275.12
727589,7275.89
727668,7276.68
727746,7277.46
727822,7278.22
727898,7278.98
727975,7279.75
728053,7280.53
728134,7281.34
728219,7282.19
728313,7283.13
728408,7284.08
728507,7285.07
728618,7286.18
728737,7287.37
728849,7288.49
728969,7289.69
729089,7290.89
729199,7291.99
729304,7293.04
729402,7294.02
729497,7294.97
729591,7295.91
729684,7296.84
729777,7297.77
729871,7298.71
729965,7299.65
730059,7300.59
730153,7301.53
730244,7302.44
730337,7303.37
730432,7304.32
730530,7305.3
730628,7306.28
730722,7307.22
730814,7308.14
730905,7309.05
730999,7309.99
731096,7310.96
731188,7311.88
731280,7312.8
731377,7313.77
731477,7314.77
731572,7315.72
731670,7316.7
731772,7317.72
731877,7318.77
731973,7319.73
732069,7320.69
732169,7321.69
732271,7322.71
732365,7323.65
732459,7324.59
732556,7325.56
732658,7326.58
732751,7327.51
732844,7328.44
732937,7329.37
733031,7330.31
733120,7331.2
733208,7332.08
733294,7332.94
733379,7333.79
733463,7334.63
733544,7335.44
733628,7336.28
733709,7337.09
733791,7337.91
733874,7338.74
733955,7339.55
734036,7340.36
734120,7341.2
734204,7342.04
734290,7342.9
734375,7343.75
734462,7344.62
734553,7345.53
734649,7346.49
734747,7347.47
734843,7348.43
734938,7349.38
735038,7350.38
735138,7351.38
735239,7352.39
735340,7353.4
735441,7354.41
735543,7355.43
735644,7356.44
735745,7357.45
735844,7358.44
735940,7359.4
736033,7360.33
736128,7361.28
736225,7362.25
736323,7363.23
736418,7364.18
736512,7365.12
736603,7366.03
736697,7366.97
736794,7367.94
736894,7368.94
736991,7369.91
737088,7370.88
737179,7371.79
737271,7372.71
737366,7373.66
737458,7374.58
737549,7375.49
737639,7376.39
737732,7377.32
737827,7378.27
737918,7379.18
738011,7380.11
738111,7381.11
738211,7382.11
738305,7383.05
738398,7383.98
738495,7384.95
738593,7385.93
738685,7386.85
738777,7387.77
738868,7388.68
738956,7389.56
739043,7390.43
739127,7391.27
739211,7392.11
739295,7392.95
739378,7393.78
739462,7394.62
739544,7395.44
739629,7396.29
739715,7397.15
739798,7397.98
739882,7398.82
739967,7399.67
740053,7400.53
740140,7401.4
740229,7402.29
740321,7403.21
740418,7404.18
740526,7405.26
740635,7406.35
740737,7407.37
740841,7408.41
740947,7409.47
741052,7410.52
741156,7411.56
741261,7412.61
741368,7413.68
741478,7414.78
741581,7415.81
741680,7416.8
741778,7417.78
741873,7418.73
741970,7419.7
742067,7420.67
742167,7421.67
742265,7422.65
742364,7423.64
742457,7424.57
742552,7425.52
742649,7426.49
742748,7427.48
742843,7428.43
742938,7429.38
743034,7430.34
743137,7431.37
743239,7432.39
743338,7433.38
743437,7434.37
743542,7435.42
743646,7436.46
743743,7437.43
743840,7438.4
743940,7439.4
744045,7440.45
744144,7441.44
744244,7442.44
744348,7443.48
744452,7444.52
744549,7445.49
744644,7446.44
744735,7447.35
744825,7448.25
744911,7449.11
744995,7449.95
745079,7450.79
745162,7451.62
745244,7452.44
745330,7453.3
745414,7454.14
745498,7454.98
745585,7455.85
745672,7456.72
745758,7457.58
745844,7458.44
745933,7459.33
746026,7460.26
746118,7461.18
746214,7462.14
746320,7463.2
746423,7464.23
746530,7465.3
746638,7466.38
746738,7467.38
746839,7468.39
746942,7469.42
747047,7470.47
747154,7471.54
747264,7472.64
747370,7473.7
747468,7474.68
747564,7475.64
747660,7476.6
747754,7477.54
747851,7478.51
747944,7479.44
748035,7480.35
748126,7481.26
748222,7482.22
748324,7483.24
748426,7484.26
748524,7485.24
748622,7486.22
748722,7487.22
748824,7488.24
748918,7489.18
749013,7490.13
749112,7491.12
749212,7492.12
749306,7493.06
749402,7494.02
749498,7494.98
749593,7495.93
749685,7496.85
749776,7497.76
749869,7498.69
749960,7499.6
750048,7500.48
750135,7501.35
750222,7502.22
750307,7503.07
750394,7503.94
750480,7504.8
750564,7505.64
750651,7506.51
750739,7507.39
750825,7508.25
750912,7509.12
751000,7510.0
751092,7510.92
751187,7511.87
751281,7512.81
751379,7513.79
751484,7514.84
751593,7515.93
751705,7517.05
751818,7518.18
751930,7519.3
752034,7520.34
752138,7521.38
752242,7522.42
752345,7523.45
752449,7524.49
752552,7525.52
752654,7526.54
752750,7527.5
752844,7528.44
752940,7529.4
753038,7530.38
753140,7531.4
753241,7532.41
753338,7533.38
753435,7534.35
753532,7535.32
753635,7536.35
753740,7537.4
753840,7538.4
753937,7539.37
754032,7540.32
754132,7541.32
754232,7542.32
754325,7543.25
754420,7544.2
754516,7545.16
754615,7546.15
754712,7547.12
754808,7548.08
754904,7549.04
755003,7550.03
755099,7550.99
755192,7551.92
755284,7552.84
755378,7553.78
755472,7554.72
755562,7555.62
755650,7556.5
755739,7557.39
755826,7558.26
755910,7559.1
755994,7559.94
756077,7560.77
756162,7561.62
756248,7562.48
756332,7563.32
756418,7564.18
756504,7565.04
756589,7565.89
756674,7566.74
756760,7567.6
756847,7568.47
756934,7569.34
757024,7570.24
757120,7571.2
757223,7572.23
757323,7573.23
757426,7574.26
757531,7575.31
757630,7576.3
757726,7577.26
757820,7578.2
757917,7579.17
758015,7580.15
758112,7581.12
758205,7582.05
758297,7582.97
758390,7583.9
758487,7584.87
758586,7585.86
758683,7586.83
758779,7587.79
758874,7588.74
758974,7589.74
759077,7590.77
759175,7591.75
759271,7592.71
759366,7593.66
759472,7594.72
759579,7595.79
759678,7596.78
759772,7597.72
759863,7598.63
759954,7599.54
760043,7600.43
760136,7601.36
760231,7602.31
760329,7603.29
760428,7604.28
760520,7605.2
760612,7606.12
760703,7607.03
760796,7607.96
760885,7608.85
760972,7609.72
761060,7610.6
761146,7611.46
761228,7612.28
761318,7613.18
761409,7614.09
761503,7615.03
761600,7616.0
761693,7616.93
761789,7617.89
761891,7618.91
761995,7619.95
762103,7621.03
762211,7622.11
762315,7623.15
762416,7624.16
762522,7625.22
762632,7626.32
762747,7627.47
762861,7628.61
762972,7629.72
763079,7630.79
763183,7631.83
763280,7632.8
763373,7633.73
763466,7634.66
763560,7635.6
763655,7636.55
763751,7637.51
763845,7638.45
763935,7639.35
764027,7640.27
764120,7641.2
764213,7642.13
764304,7643.04
764396,7643.96
764491,7644.91
764588,7645.88
764681,7646.81
764773,7647.73
764864,7648.64
764957,7649.57
765049,7650.49
765140,7651.4
765230,7652.3
765320,7653.2
765406,7654.06
765492,7654.92
765577,7655.77
765661,7656.61
765744,7657.44
765829,7658.29
765920,7659.2
766013,7660.13
766103,7661.03
766194,7661.94
766289,7662.89
766383,7663.83
766474,7664.74
766569,7665.69
766666,7666.66
766767,7667.67
766864,7668.64
766962,7669.62
767064,7670.64
767171,7671.71
767280,7672.8
767390,7673.9
767492,7674.92
767591,7675.91
767692,7676.92
767793,7677.93
767896,7678.96
767992,7679.92
768089,7680.89
768184,7681.84
768285,7682.85
768386,7683.86
768485,7684.85
768586,7685.86
768690,7686.9
768797,7687.97
768895,7688.95
768992,7689.92
769089,7690.89
769188,7691.88
769284,7692.84
769379,7693.79
769478,7694.78
769581,7695.81
769676,7696.76
769768,7697.68
769857,7698.57
769946,7699.46
770031,7700.31
770117,7701.17
770201,7702.01
770285,7702.85
770373,7703.73
770459,7704.59
770544,7705.44
770632,7706.32
770720,7707.2
770809,7708.09
770898,7708.98
770991,7709.91
771089,7710.89
771183,7711.83
771279,7712.79
771377,7713.77
771479,7714.79
771585,7715.85
771685,7716.85
771784,7717.84
771887,7718.87
771991,7719.91
772094,7720.94
772197,7721.97
772293,7722.93
772394,7723.94
772495,7724.95
772594,7725.94
772688,7726.88
772781,7727.81
772876,7728.76
772976,7729.76
773081,7730.81
773181,7731.81
773280,7732.8
773384,7733.84
773493,7734.93
773605,7736.05
773709,7737.09
773810,7738.1
773914,7739.14
774020,7740.2
774122,7741.22
774219,7742.19
774316,7743.16
774416,7744.16
774519,7745.19
774618,7746.18
774717,7747.17
774821,7748.21
774927,7749.27
775025,7750.25
775123,7751.23
775221,7752.21
775315,7753.15
775406,7754.06
775495,7754.95
775580,7755.8
775665,7756.65
775747,7757.47
775829,7758.29
775911,7759.11
775991,7759.91
776071,7760.71
