sample,time_sec
90,0.9
191,1.91
294,2.94
396,3.96
499,4.99
600,6.0
702,7.02
802,8.02
908,9.08
1013,10.13
1116,11.16
1213,12.13
1310,13.1
1403,14.03
1492,14.92
1580,15.8
1665,16.65
1751,17.51
1845,18.45
1944,19.44
2041,20.41
2141,21.41
2242,22.42
2340,23.4
2439,24.39
2537,25.37
2632,26.32
2729,27.29
2826,28.26
2919,29.19
3012,30.12
3106,31.06
3200,32.0
3296,32.96
3393,33.93
3493,34.93
3594,35.94
3693,36.93
3794,37.94
3893,38.93
3990,39.9
4089,40.89
4190,41.9
4290,42.9
4391,43.91
4495,44.95
4593,45.93
4692,46.92
4793,47.93
4896,48.96
5001,50.01
5109,51.09
5216,52.16
5321,53.21
5424,54.24
5529,55.29
5628,56.28
5726,57.26
5829,58.29
5936,59.36
6038,60.38
6136,61.36
6233,62.33
6333,63.33
6427,64.27
6518,65.18
6608,66.08
6700,67.0
6794,67.94
6887,68.87
6982,69.82
7079,70.79
7176,71.76
7271,72.71
7366,73.66
7464,74.64
7560,75.6
7654,76.54
7752,77.52
7851,78.51
7952,79.52
8054,80.54
8158,81.58
8261,82.61
8367,83.67
8469,84.69
8566,85.66
8661,86.61
8763,87.63
8866,88.66
8968,89.68
9056,90.56
9148,91.48
9235,92.35
9322,93.22
9409,94.09
9503,95.03
9599,95.99
9698,96.98
9799,97.99
9902,99.02
10003,100.03
10105,101.05
10208,102.08
10309,103.09
10408,104.08
10508,105.08
10610,106.1
10713,107.13
10814,108.14
10913,109.13
11016,110.16
11118,111.18
11220,112.2
11318,113.18
11414,114.14
11512,115.12
11615,116.15
11720,117.2
11821,118.21
11925,119.25
12033,120.33
12138,121.38
12240,122.4
12346,123.46
12451,124.51
12552,125.52
12652,126.52
12751,127.51
12845,128.45
12940,129.4
13043,130.43
13147,131.47
13252,132.52
13357,133.57
13457,134.57
13554,135.54
13647,136.47
13742,137.42
13831,138.31
13921,139.21
14012,140.12
14109,141.09
14204,142.04
14299,142.99
14398,143.98
14502,145.02
14609,146.09
14709,147.09
14803,148.03
14894,148.94
14999,149.99
15105,151.05
15202,152.02
15297,152.97
15393,153.93
15497,154.97
15602,156.02
15708,157.08
15811,158.11
15912,159.12
16012,160.12
16112,161.12
16210,162.1
16310,163.1
16410,164.1
16513,165.13
16615,166.15
16709,167.09
16801,168.01
16897,168.97
17000,170.0
17105,171.05
17210,172.1
17311,173.11
17410,174.1
17507,175.07
17602,176.02
17694,176.94
17787,177.87
17877,178.77
17966,179.66
18056,180.56
18142,181.42
18225,182.25
18308,183.08
18393,183.93
18478,184.78
18584,185.84
18729,187.29
18865,188.65
19002,190.02
19130,191.3
19246,192.46
19350,193.5
19448,194.48
19542,195.42
19629,196.29
19717,197.17
19804,198.04
19888,198.88
19969,199.69
20050,200.5
20130,201.3
20207,202.07
20283,202.83
20360,203.6
20436,204.36
20516,205.16
20605,206.05
20700,207.0
20800,208.0
20897,208.97
21008,210.08
21119,211.19
21224,212.24
21334,213.34
21444,214.44
21547,215.47
21644,216.44
21740,217.4
21835,218.35
21926,219.26
22022,220.22
22115,221.15
22208,222.08
22302,223.02
22396,223.96
22489,224.89
22583,225.83
22678,226.78
22775,227.75
22872,228.72
22969,229.69
23066,230.66
23161,231.61
23255,232.55
23352,233.52
23449,234.49
23546,235.46
23641,236.41
23732,237.32
23822,238.22
23911,239.11
24003,240.03
24094,240.94
24185,241.85
24281,242.81
24378,243.78
24480,244.8
24582,245.82
24685,246.85
24787,247.87
24888,248.88
24985,249.85
25076,250.76
25167,251.67
25259,252.59
25356,253.56
25452,254.52
25551,255.51
25653,256.53
25760,257.6
25864,258.64
25966,259.66
26060,260.6
26154,261.54
26247,262.47
26343,263.43
26436,264.36
26525,265.25
26611,266.11
26695,266.95
26778,267.78
26861,268.61
26946,269.46
27034,270.34
27123,271.23
27212,272.12
27298,272.98
27381,273.81
27464,274.64
27545,275.45
27626,276.26
27706,277.06
27793,277.93
27893,278.93
27999,279.99
28106,281.06
28207,282.07
28307,283.07
28408,284.08
28513,285.13
28618,286.18
28726,287.26
28835,288.35
28939,289.39
29039,290.39
29144,291.44
29255,292.55
29360,293.6
29465,294.65
29566,295.66
29667,296.67
29766,297.66
29866,298.66
29962,299.62
30062,300.62
30164,301.64
30264,302.64
30365,303.65
30466,304.66
30562,305.62
30657,306.57
30749,307.49
30839,308.39
30933,309.33
31026,310.26
31124,311.24
31237,312.37
31351,313.51
31454,314.54
31557,315.57
31659,316.59
31764,317.64
31866,318.66
31969,319.69
32071,320.71
32172,321.72
32274,322.74
32375,323.75
32476,324.76
32579,325.79
32684,326.84
32788,327.88
32890,328.9
32990,329.9
33089,330.89
33182,331.82
33272,332.72
33360,333.6
33447,334.47
33535,335.35
33620,336.2
33705,337.05
33788,337.88
33870,338.7
33956,339.56
34044,340.44
34131,341.31
34222,342.22
34312,343.12
34403,344.03
34494,344.94
34583,345.83
34670,346.7
34759,347.59
34850,348.5
34941,349.41
35033,350.33
35122,351.22
35213,352.13
35297,352.97
35382,353.82
35464,354.64
35544,355.44
35622,356.22
35699,356.99
35776,357.76
35851,358.51
35925,359.25
36001,360.01
36076,360.76
36153,361.53
36236,362.36
36324,363.24
36420,364.2
36520,365.2
36619,366.19
36723,367.23
36827,368.27
36928,369.28
37032,370.32
37138,371.38
37240,372.4
37339,373.39
37437,374.37
37534,375.34
37634,376.34
37720,377.2
37807,378.07
37893,378.93
37977,379.77
38058,380.58
38139,381.39
38218,382.18
38297,382.97
38377,383.77
38456,384.56
38539,385.39
38625,386.25
38708,387.08
38792,387.92
38875,388.75
38958,389.58
39044,390.44
39129,391.29
39216,392.16
39297,392.97
39382,393.82
39464,394.64
39547,395.47
39628,396.28
39710,397.1
39800,398.0
39896,398.96
39996,399.96
40095,400.95
40189,401.89
40280,402.8
40368,403.68
40457,404.57
40545,405.45
40637,406.37
40732,407.32
40830,408.3
40930,409.3
41031,410.31
41133,411.33
41231,412.31
41325,413.25
41420,414.2
41516,415.16
41608,416.08
41701,417.01
41798,417.98
41896,418.96
41999,419.99
42102,421.02
42207,422.07
42309,423.09
42413,424.13
42524,425.24
42630,426.3
42735,427.35
42840,428.4
42940,429.4
43040,430.4
43141,431.41
43238,432.38
43347,433.47
43464,434.64
43577,435.77
43689,436.89
43794,437.94
43900,439.0
44005,440.05
44110,441.1
44214,442.14
44318,443.18
44421,444.21
44526,445.26
44633,446.33
44736,447.36
44837,448.37
44938,449.38
45038,450.38
45138,451.38
45237,452.37
45338,453.38
45438,454.38
45541,455.41
45641,456.41
45737,457.37
45838,458.38
45940,459.4
46045,460.45
46149,461.49
46253,462.53
46359,463.59
46467,464.67
46574,465.74
46681,466.81
46788,467.88
46894,468.94
46996,469.96
47103,471.03
47210,472.1
47313,473.13
47421,474.21
47530,475.3
47633,476.33
47734,477.34
47839,478.39
47938,479.38
48043,480.43
48148,481.48
48252,482.52
48356,483.56
48458,484.58
48561,485.61
48663,486.63
48760,487.6
48855,488.55
48949,489.49
49040,490.4
49128,491.28
49212,492.12
49298,492.98
49385,493.85
49475,494.75
49564,495.64
49661,496.61
49760,497.6
49857,498.57
49952,499.52
50055,500.55
50157,501.57
50255,502.55
50354,503.54
50456,504.56
50553,505.53
50650,506.5
50750,507.5
50850,508.5
50955,509.55
51062,510.62
51165,511.65
51266,512.66
51367,513.67
51466,514.66
51567,515.67
51668,516.68
51774,517.74
51885,518.85
52000,520.0
52114,521.14
52222,522.22
52331,523.31
52442,524.42
52547,525.47
52654,526.54
52768,527.68
52888,528.88
53003,530.03
53111,531.11
53224,532.24
53334,533.34
53438,534.38
53546,535.46
53661,536.61
53770,537.7
53874,538.74
53978,539.78
54083,540.83
54183,541.83
54279,542.79
54379,543.79
54480,544.8
54578,545.78
54678,546.78
54785,547.85
54890,548.9
54990,549.9
55092,550.92
55200,552.0
55311,553.11
55417,554.17
55525,555.25
55638,556.38
55750,557.5
55858,558.58
55963,559.63
56076,560.76
56193,561.93
56308,563.08
56419,564.19
56534,565.34
56649,566.49
56761,567.61
56870,568.7
56983,569.83
57107,571.07
57221,572.21
57326,573.26
57435,574.35
57550,575.5
57660,576.6
57768,577.68
57881,578.81
57992,579.92
58096,580.96
58199,581.99
58307,583.07
58423,584.23
58530,585.3
58635,586.35
58743,587.43
58858,588.58
58967,589.67
59070,590.7
59177,591.77
59290,592.9
59400,594.0
59502,595.02
59607,596.07
59714,597.14
59822,598.22
59927,599.27
60032,600.32
60135,601.35
60243,602.43
60351,603.51
60456,604.56
60565,605.65
60676,606.76
60780,607.8
60884,608.84
60993,609.93
61099,610.99
61201,612.01
61311,613.11
61420,614.2
61531,615.31
61637,616.37
61743,617.43
61853,618.53
61963,619.63
62069,620.69
62172,621.72
62279,622.79
62389,623.89
62499,624.99
62608,626.08
62716,627.16
62830,628.3
62947,629.47
63058,630.58
63166,631.66
63277,632.77
63379,633.79
63485,634.85
63593,635.93
63699,636.99
63815,638.15
63922,639.22
64029,640.29
64140,641.4
64252,642.52
64357,643.57
64458,644.58
64562,645.62
64669,646.69
64776,647.76
64881,648.81
64991,649.91
65103,651.03
65207,652.07
65310,653.1
65411,654.11
65517,655.17
65629,656.29
65733,657.33
65837,658.37
65939,659.39
66049,660.49
66164,661.64
66275,662.75
66381,663.81
66491,664.91
66612,666.12
66727,667.27
66835,668.35
66949,669.49
67068,670.68
67187,671.87
67293,672.93
67407,674.07
67516,675.16
67616,676.16
67717,677.17
67837,678.37
67947,679.47
68053,680.53
68158,681.58
68271,682.71
68400,684.0
68530,685.3
68638,686.38
68748,687.48
68858,688.58
68963,689.63
69064,690.64
69172,691.72
69287,692.87
69394,693.94
69498,694.98
69610,696.1
69721,697.21
69825,698.25
69925,699.25
70028,700.28
70130,701.3
70230,702.3
70332,703.32
70431,704.31
70536,705.36
70650,706.5
70759,707.59
70861,708.61
70967,709.67
71087,710.87
71202,712.02
71311,713.11
71427,714.27
71538,715.38
71646,716.46
71747,717.47
71848,718.48
71960,719.6
72083,720.83
72199,721.99
72308,723.08
72419,724.19
72535,725.35
72657,726.57
72769,727.69
72878,728.78
72998,729.98
73116,731.16
73225,732.25
73332,733.32
73453,734.53
73566,735.66
73673,736.73
73784,737.84
73895,738.95
74009,740.09
74116,741.16
74219,742.19
74317,743.17
74427,744.27
74535,745.35
74643,746.43
74763,747.63
74873,748.73
74983,749.83
75091,750.91
75202,752.02
75316,753.16
75420,754.2
75518,755.18
75620,756.2
75736,757.36
75847,758.47
75955,759.55
76063,760.63
76179,761.79
76288,762.88
76390,763.9
76493,764.93
76608,766.08
76719,767.19
76824,768.24
76932,769.32
77058,770.58
77182,771.82
77296,772.96
77404,774.04
77515,775.15
77625,776.25
77729,777.29
77842,778.42
77955,779.55
78063,780.63
78166,781.66
78267,782.67
78376,783.76
78482,784.82
78586,785.86
78689,786.89
78800,788.0
78920,789.2
79043,790.43
79154,791.54
79266,792.66
79379,793.79
79493,794.93
79597,795.97
79697,796.97
79798,797.98
79909,799.09
80019,800.19
80127,801.27
80230,802.3
80340,803.4
80456,804.56
80566,805.66
80670,806.7
80778,807.78
80891,808.91
80996,809.96
81100,811.0
81216,812.16
81341,813.41
81466,814.66
81572,815.72
81690,816.9
81807,818.07
81915,819.15
82017,820.17
82123,821.23
82238,822.38
82352,823.52
82461,824.61
82565,825.65
82675,826.75
82784,827.84
82888,828.88
82991,829.91
83101,831.01
83211,832.11
83316,833.16
83417,834.17
83524,835.24
83640,836.4
83751,837.51
83857,838.57
83971,839.71
84088,840.88
84203,842.03
84310,843.1
84417,844.17
84530,845.3
84639,846.39
84745,847.45
84848,848.48
84956,849.56
85068,850.68
85175,851.75
85275,852.75
85385,853.85
85503,855.03
85617,856.17
85727,857.27
85839,858.39
85961,859.61
86075,860.75
86181,861.81
86287,862.87
86395,863.95
86503,865.03
86608,866.08
86708,867.08
86816,868.16
86926,869.26
87035,870.35
87138,871.38
87248,872.48
87359,873.59
87466,874.66
87570,875.7
87677,876.77
87783,877.83
87884,878.84
87988,879.88
88091,880.91
88200,882.0
88306,883.06
88408,884.08
88507,885.07
88610,886.1
88713,887.13
88814,888.14
88912,889.12
89013,890.13
89115,891.15
89217,892.17
89322,893.22
89424,894.24
89530,895.3
89638,896.38
89740,897.4
89838,898.38
89936,899.36
90039,900.39
90147,901.47
90255,902.55
90361,903.61
90473,904.73
90587,905.87
90693,906.93
90796,907.96
90903,909.03
91014,910.14
91119,911.19
91219,912.19
91324,913.24
91436,914.36
91536,915.36
91632,916.32
91729,917.29
91829,918.29
91938,919.38
92039,920.39
92166,921.66
92293,922.93
92400,924.0
92500,925.0
92598,925.98
92698,926.98
92797,927.97
92894,928.94
92987,929.87
93077,930.77
93163,931.63
93243,932.43
93323,933.23
93400,934.0
93477,934.77
93553,935.53
93628,936.28
93704,937.04
93782,937.82
93861,938.61
93942,939.42
94023,940.23
94108,941.08
94194,941.94
94285,942.85
94381,943.81
94482,944.82
94584,945.84
94684,946.84
94790,947.9
94910,949.1
95041,950.41
95167,951.67
95288,952.88
95418,954.18
95549,955.49
95673,956.73
95793,957.93
95912,959.12
96030,960.3
96153,961.53
96265,962.65
96399,963.99
96543,965.43
96677,966.77
96800,968.0
96913,969.13
97025,970.25
97129,971.29
97233,972.33
97372,973.72
97512,975.12
97624,976.24
97730,977.3
97845,978.45
97960,979.6
98067,980.67
98174,981.74
98289,982.89
98404,984.04
98512,985.12
98615,986.15
98719,987.19
98826,988.26
98940,989.4
99047,990.47
99152,991.52
99259,992.59
99387,993.87
99516,995.16
99627,996.27
99750,997.5
99870,998.7
99988,999.88
100098,1000.98
100207,1002.07
100321,1003.21
100432,1004.32
100540,1005.4
100652,1006.52
100780,1007.8
100904,1009.04
101015,1010.15
101118,1011.18
101230,1012.3
101352,1013.52
101465,1014.65
101574,1015.74
101697,1016.97
101826,1018.26
101936,1019.36
102041,1020.41
102151,1021.51
102283,1022.83
102416,1024.16
102529,1025.29
102643,1026.43
102771,1027.71
102899,1028.99
103018,1030.18
103133,1031.33
103256,1032.56
103378,1033.78
103492,1034.92
103602,1036.02
103721,1037.21
103843,1038.43
103963,1039.63
104071,1040.71
104183,1041.83
104298,1042.98
104406,1044.06
104509,1045.09
104611,1046.11
104719,1047.19
104834,1048.34
104938,1049.38
105036,1050.36
105141,1051.41
105250,1052.5
105357,1053.57
105462,1054.62
105567,1055.67
105676,1056.76
105787,1057.87
105892,1058.92
105989,1059.89
106084,1060.84
106182,1061.82
106282,1062.82
106379,1063.79
106481,1064.81
106610,1066.1
106740,1067.4
106845,1068.45
106945,1069.45
107049,1070.49
107157,1071.57
107261,1072.61
107364,1073.64
107469,1074.69
107584,1075.84
107698,1076.98
107807,1078.07
107910,1079.1
108019,1080.19
108138,1081.38
108257,1082.57
108369,1083.69
108476,1084.76
108589,1085.89
108705,1087.05
108815,1088.15
108917,1089.17
109015,1090.15
109117,1091.17
109228,1092.28
109334,1093.34
109440,1094.4
109547,1095.47
109665,1096.65
109777,1097.77
109879,1098.79
109979,1099.79
110087,1100.87
110205,1102.05
110312,1103.12
110416,1104.16
110526,1105.26
110645,1106.45
110764,1107.64
110872,1108.72
110984,1109.84
111105,1111.05
111217,1112.17
111323,1113.23
111432,1114.32
111548,1115.48
111666,1116.66
111775,1117.75
111881,1118.81
111992,1119.92
112101,1121.01
112204,1122.04
112309,1123.09
112430,1124.3
112548,1125.48
112658,1126.58
112758,1127.58
112860,1128.6
112974,1129.74
113086,1130.86
113196,1131.96
113324,1133.24
113453,1134.53
113562,1135.62
113675,1136.75
113794,1137.94
113903,1139.03
114009,1140.09
114112,1141.12
114228,1142.28
114346,1143.46
114452,1144.52
114556,1145.56
114667,1146.67
114784,1147.84
114897,1148.97
115004,1150.04
115113,1151.13
115224,1152.24
115335,1153.35
115445,1154.45
115555,1155.55
115670,1156.7
115795,1157.95
115915,1159.15
116024,1160.24
116127,1161.27
116231,1162.31
116351,1163.51
116472,1164.72
116587,1165.87
116698,1166.98
116817,1168.17
116939,1169.39
117050,1170.5
117153,1171.53
117255,1172.55
117363,1173.63
117472,1174.72
117572,1175.72
117671,1176.71
117771,1177.71
117879,1178.79
117995,1179.95
118105,1181.05
118209,1182.09
118325,1183.25
118452,1184.52
118567,1185.67
118676,1186.76
118786,1187.86
118905,1189.05
119020,1190.2
119129,1191.29
119237,1192.37
119349,1193.49
119458,1194.58
119566,1195.66
119670,1196.7
119771,1197.71
119882,1198.82
119998,1199.98
120110,1201.1
120214,1202.14
120318,1203.18
120433,1204.33
120544,1205.44
120646,1206.46
120748,1207.48
120863,1208.63
120979,1209.79
121088,1210.88
121191,1211.91
121301,1213.01
121418,1214.18
121529,1215.29
121636,1216.36
121743,1217.43
121860,1218.6
121968,1219.68
122071,1220.71
122171,1221.71
122280,1222.8
122398,1223.98
122507,1225.07
122613,1226.13
122724,1227.24
122838,1228.38
122943,1229.43
123046,1230.46
123155,1231.55
123274,1232.74
123391,1233.91
123499,1234.99
123604,1236.04
123715,1237.15
123832,1238.32
123941,1239.41
124047,1240.47
124164,1241.64
124285,1242.85
124398,1243.98
124506,1245.06
124620,1246.2
124734,1247.34
124842,1248.42
124945,1249.45
125048,1250.48
125158,1251.58
125268,1252.68
125375,1253.75
125485,1254.85
125606,1256.06
125720,1257.2
125825,1258.25
125925,1259.25
126029,1260.29
126144,1261.44
126251,1262.51
126353,1263.53
126468,1264.68
126584,1265.84
126691,1266.91
126795,1267.95
126904,1269.04
127019,1270.19
127127,1271.27
127228,1272.28
127330,1273.3
127440,1274.4
127551,1275.51
127656,1276.56
127755,1277.55
127859,1278.59
127978,1279.78
128090,1280.9
128196,1281.96
128304,1283.04
128412,1284.12
128523,1285.23
128625,1286.25
128722,1287.22
128820,1288.2
128922,1289.22
129046,1290.46
129160,1291.6
129271,1292.71
129389,1293.89
129507,1295.07
129617,1296.17
129725,1297.25
129834,1298.34
129947,1299.47
130055,1300.55
130157,1301.57
130265,1302.65
130378,1303.78
130488,1304.88
130591,1305.91
130699,1306.99
130812,1308.12
130922,1309.22
131027,1310.27
131128,1311.28
131244,1312.44
131364,1313.64
131473,1314.73
131576,1315.76
131678,1316.78
131784,1317.84
131893,1318.93
131997,1319.97
132098,1320.98
132207,1322.07
132321,1323.21
132431,1324.31
132534,1325.34
132637,1326.37
132744,1327.44
132847,1328.47
132944,1329.44
133040,1330.4
133141,1331.41
133241,1332.41
133341,1333.41
133437,1334.37
133548,1335.48
133662,1336.62
133769,1337.69
133869,1338.69
133963,1339.63
134064,1340.64
134166,1341.66
134266,1342.66
134367,1343.67
134470,1344.7
134577,1345.77
134686,1346.86
134786,1347.86
134884,1348.84
134987,1349.87
135095,1350.95
135198,1351.98
135300,1353.0
135397,1353.97
135501,1355.01
135606,1356.06
135705,1357.05
135805,1358.05
135907,1359.07
136026,1360.26
136144,1361.44
136251,1362.51
136354,1363.54
136465,1364.65
136577,1365.77
136680,1366.8
136779,1367.79
136879,1368.79
136983,1369.83
137080,1370.8
137179,1371.79
137273,1372.73
137377,1373.77
137481,1374.81
137587,1375.87
137682,1376.82
137780,1377.8
137881,1378.81
137992,1379.92
138092,1380.92
138189,1381.89
138291,1382.91
138414,1384.14
138530,1385.3
138637,1386.37
138742,1387.42
138850,1388.5
138959,1389.59
139061,1390.61
139161,1391.61
139266,1392.66
139380,1393.8
139486,1394.86
139589,1395.89
139697,1396.97
139808,1398.08
139916,1399.16
140019,1400.19
140125,1401.25
140240,1402.4
140356,1403.56
140464,1404.64
140569,1405.69
140681,1406.81
140789,1407.89
140893,1408.93
140991,1409.91
141088,1410.88
141186,1411.86
141285,1412.85
141384,1413.84
141480,1414.8
141583,1415.83
141689,1416.89
141787,1417.87
141883,1418.83
141987,1419.87
142103,1421.03
142211,1422.11
142313,1423.13
142407,1424.07
142509,1425.09
142610,1426.1
142709,1427.09
142803,1428.03
142897,1428.97
143000,1430.0
143108,1431.08
143214,1432.14
143312,1433.12
143413,1434.13
143528,1435.28
143635,1436.35
143740,1437.4
143836,1438.36
143933,1439.33
144036,1440.36
144145,1441.45
144249,1442.49
144352,1443.52
144469,1444.69
144586,1445.86
144696,1446.96
144803,1448.03
144912,1449.12
145025,1450.25
145133,1451.33
145237,1452.37
145346,1453.46
145458,1454.58
145569,1455.69
145672,1456.72
145771,1457.71
145877,1458.77
145988,1459.88
146097,1460.97
146202,1462.02
146309,1463.09
146417,1464.17
146522,1465.22
146623,1466.23
146721,1467.21
146823,1468.23
146931,1469.31
147036,1470.36
147139,1471.39
147248,1472.48
147362,1473.62
147468,1474.68
147569,1475.69
147671,1476.71
147775,1477.75
147878,1478.78
147979,1479.79
148079,1480.79
148187,1481.87
148301,1483.01
148409,1484.09
148513,1485.13
148621,1486.21
148731,1487.31
148839,1488.39
148942,1489.42
149040,1490.4
149143,1491.43
149251,1492.51
149358,1493.58
149462,1494.62
149564,1495.64
149674,1496.74
149786,1497.86
149894,1498.94
150001,1500.01
150114,1501.14
150231,1502.31
150341,1503.41
150445,1504.45
150553,1505.53
150662,1506.62
150770,1507.7
150876,1508.76
150985,1509.85
151103,1511.03
151217,1512.17
151326,1513.26
151431,1514.31
151535,1515.35
151645,1516.45
151749,1517.49
151852,1518.52
151964,1519.64
152085,1520.85
152195,1521.95
152303,1523.03
152409,1524.09
152517,1525.17
152629,1526.29
152737,1527.37
152845,1528.45
152953,1529.53
153059,1530.59
153162,1531.62
153268,1532.68
153380,1533.8
153488,1534.88
153592,1535.92
153700,1537.0
153816,1538.16
153926,1539.26
154031,1540.31
154137,1541.37
154247,1542.47
154351,1543.51
154451,1544.51
154553,1545.53
154663,1546.63
154774,1547.74
154879,1548.79
154980,1549.8
155087,1550.87
155197,1551.97
155306,1553.06
155410,1554.1
155513,1555.13
155622,1556.22
155731,1557.31
155835,1558.35
155935,1559.35
156036,1560.36
156141,1561.41
156245,1562.45
156349,1563.49
156452,1564.52
156560,1565.6
156671,1566.71
156776,1567.76
156879,1568.79
156990,1569.9
157096,1570.96
157197,1571.97
157294,1572.94
157394,1573.94
157497,1574.97
157597,1575.97
157696,1576.96
157795,1577.95
157899,1578.99
158004,1580.04
158105,1581.05
158202,1582.02
158301,1583.01
158402,1584.02
158507,1585.07
158608,1586.08
158706,1587.06
158811,1588.11
158922,1589.22
159029,1590.29
159134,1591.34
159237,1592.37
159346,1593.46
159456,1594.56
159559,1595.59
159659,1596.59
159764,1597.64
159870,1598.7
159972,1599.72
160073,1600.73
160174,1601.74
160282,1602.82
160393,1603.93
160499,1604.99
160600,1606.0
160712,1607.12
160824,1608.24
160929,1609.29
161031,1610.31
161137,1611.37
161249,1612.49
161354,1613.54
161455,1614.55
161553,1615.53
161656,1616.56
161762,1617.62
161868,1618.68
161971,1619.71
162079,1620.79
162191,1621.91
162296,1622.96
162399,1623.99
162507,1625.07
162620,1626.2
162728,1627.28
162832,1628.32
162936,1629.36
163044,1630.44
163155,1631.55
163258,1632.58
163360,1633.6
163463,1634.63
163572,1635.72
163678,1636.78
163781,1637.81
163885,1638.85
163993,1639.93
164102,1641.02
164207,1642.07
164311,1643.11
164422,1644.22
164531,1645.31
164636,1646.36
164738,1647.38
164846,1648.46
164960,1649.6
165067,1650.67
165171,1651.71
165290,1652.9
165402,1654.02
165518,1655.18
165621,1656.21
165725,1657.25
165833,1658.33
165936,1659.36
166036,1660.36
166141,1661.41
166255,1662.55
166369,1663.69
166472,1664.72
166576,1665.76
166686,1666.86
166796,1667.96
166899,1668.99
166999,1669.99
167107,1671.07
167220,1672.2
167326,1673.26
167429,1674.29
167532,1675.32
167644,1676.44
167755,1677.55
167860,1678.6
167958,1679.58
168060,1680.6
168166,1681.66
168269,1682.69
168372,1683.72
168480,1684.8
168597,1685.97
168715,1687.15
168822,1688.22
168925,1689.25
169031,1690.31
169141,1691.41
169245,1692.45
169346,1693.46
169451,1694.51
169561,1695.61
169663,1696.63
169763,1697.63
169865,1698.65
169971,1699.71
170073,1700.73
170174,1701.74
170285,1702.85
170397,1703.97
170502,1705.02
170603,1706.03
170708,1707.08
170814,1708.14
170918,1709.18
171019,1710.19
171119,1711.19
171229,1712.29
171346,1713.46
171457,1714.57
171564,1715.64
171677,1716.77
171792,1717.92
171898,1718.98
171999,1719.99
172102,1721.02
172210,1722.1
172315,1723.15
172417,1724.17
172517,1725.17
172623,1726.23
172735,1727.35
172842,1728.42
172946,1729.46
173053,1730.53
173164,1731.64
173271,1732.71
173376,1733.76
173476,1734.76
173584,1735.84
173691,1736.91
173793,1737.93
173895,1738.95
174002,1740.02
174111,1741.11
174221,1742.21
174323,1743.23
174422,1744.22
174523,1745.23
174626,1746.26
174725,1747.25
174823,1748.23
174925,1749.25
175039,1750.39
175154,1751.54
175257,1752.57
175359,1753.59
175466,1754.66
175575,1755.75
175678,1756.78
175781,1757.81
175887,1758.87
176000,1760.0
176104,1761.04
176207,1762.07
176314,1763.14
176425,1764.25
176534,1765.34
176638,1766.38
176737,1767.37
176846,1768.46
176955,1769.55
177061,1770.61
177164,1771.64
177272,1772.72
177382,1773.82
177484,1774.84
177584,1775.84
177682,1776.82
177792,1777.92
177898,1778.98
178000,1780.0
178099,1780.99
178204,1782.04
178311,1783.11
178419,1784.19
178518,1785.18
178622,1786.22
178731,1787.31
178836,1788.36
178937,1789.37
179038,1790.38
179144,1791.44
179254,1792.54
179358,1793.58
179460,1794.6
179567,1795.67
179679,1796.79
179785,1797.85
179885,1798.85
179985,1799.85
180086,1800.86
180189,1801.89
180288,1802.88
180385,1803.85
180485,1804.85
180590,1805.9
180691,1806.91
180788,1807.88
180883,1808.83
180985,1809.85
181090,1810.9
181187,1811.87
181283,1812.83
181389,1813.89
181500,1815.0
181604,1816.04
181703,1817.03
181802,1818.02
181905,1819.05
182002,1820.02
182099,1820.99
182195,1821.95
182303,1823.03
182417,1824.17
182527,1825.27
182630,1826.3
182734,1827.34
182844,1828.44
182949,1829.49
183049,1830.49
183144,1831.44
183254,1832.54
183364,1833.64
183464,1834.64
183560,1835.6
183657,1836.57
183765,1837.65
183869,1838.69
183964,1839.64
184059,1840.59
184159,1841.59
184263,1842.63
184360,1843.6
184454,1844.54
184547,1845.47
184652,1846.52
184759,1847.59
184860,1848.6
184957,1849.57
185051,1850.51
185153,1851.53
185255,1852.55
185348,1853.48
185440,1854.4
185533,1855.33
185636,1856.36
185732,1857.32
185830,1858.3
185924,1859.24
186039,1860.39
186154,1861.54
186265,1862.65
186370,1863.7
186473,1864.73
186585,1865.85
186695,1866.95
186799,1867.99
186900,1869.0
187005,1870.05
187114,1871.14
187219,1872.19
187319,1873.19
187419,1874.19
187519,1875.19
187627,1876.27
187724,1877.24
187816,1878.16
187916,1879.16
188015,1880.15
188113,1881.13
188207,1882.07
188303,1883.03
188404,1884.04
188511,1885.11
188611,1886.11
188706,1887.06
188801,1888.01
188906,1889.06
189006,1890.06
189102,1891.02
189197,1891.97
189294,1892.94
189397,1893.97
189496,1894.96
189591,1895.91
189685,1896.85
189791,1897.91
189892,1898.92
189987,1899.87
190081,1900.81
190181,1901.81
190282,1902.82
190384,1903.84
190484,1904.84
190582,1905.82
190692,1906.92
190806,1908.06
190914,1909.14
191015,1910.15
191108,1911.08
191205,1912.05
191303,1913.03
191401,1914.01
191496,1914.96
191590,1915.9
191696,1916.96
191798,1917.98
191900,1919.0
191998,1919.98
192095,1920.95
192205,1922.05
192306,1923.06
192403,1924.03
192499,1924.99
192601,1926.01
192714,1927.14
192820,1928.2
192922,1929.22
193017,1930.17
193112,1931.12
193227,1932.27
193339,1933.39
193444,1934.44
193554,1935.54
193673,1936.73
193789,1937.89
193899,1938.99
194004,1940.04
194112,1941.12
194221,1942.21
194324,1943.24
194426,1944.26
194542,1945.42
194662,1946.62
194772,1947.72
194875,1948.75
194983,1949.83
195093,1950.93
195199,1951.99
195300,1953.0
195402,1954.02
195512,1955.12
195626,1956.26
195730,1957.3
195833,1958.33
195940,1959.4
196049,1960.49
196150,1961.5
196248,1962.48
196346,1963.46
196446,1964.46
196546,1965.46
196646,1966.46
196744,1967.44
196853,1968.53
196957,1969.57
197052,1970.52
197146,1971.46
197245,1972.45
197345,1973.45
197442,1974.42
197538,1975.38
197638,1976.38
197742,1977.42
197844,1978.44
197940,1979.4
198039,1980.39
198144,1981.44
198252,1982.52
198346,1983.46
198439,1984.39
198533,1985.33
198638,1986.38
198739,1987.39
198837,1988.37
198933,1989.33
199039,1990.39
199152,1991.52
199257,1992.57
199357,1993.57
199455,1994.55
199563,1995.63
199664,1996.64
199758,1997.58
199851,1998.51
199948,1999.48
200048,2000.48
200144,2001.44
200237,2002.37
200340,2003.4
200443,2004.43
200549,2005.49
200644,2006.44
200740,2007.4
200846,2008.46
200951,2009.51
201058,2010.58
201154,2011.54
201250,2012.5
201351,2013.51
201471,2014.71
201582,2015.82
201686,2016.86
201790,2017.9
201899,2018.99
202005,2020.05
202104,2021.04
202200,2022.0
202305,2023.05
202416,2024.16
202519,2025.19
202616,2026.16
202717,2027.17
202823,2028.23
202916,2029.16
203012,2030.12
203108,2031.08
203218,2032.18
203325,2033.25
203427,2034.27
203527,2035.27
203631,2036.31
203739,2037.39
203841,2038.41
203939,2039.39
204036,2040.36
204148,2041.48
204254,2042.54
204350,2043.5
204445,2044.45
204548,2045.48
204650,2046.5
204747,2047.47
204840,2048.4
204936,2049.36
205059,2050.59
205174,2051.74
205279,2052.79
205380,2053.8
205481,2054.81
205586,2055.86
205689,2056.89
205790,2057.9
205889,2058.89
205996,2059.96
206111,2061.11
206221,2062.21
206323,2063.23
206425,2064.25
206530,2065.3
206636,2066.36
206735,2067.35
206831,2068.31
206936,2069.36
207041,2070.41
207141,2071.41
207237,2072.37
207333,2073.33
207439,2074.39
207548,2075.48
207650,2076.5
207747,2077.47
207852,2078.52
207954,2079.54
208054,2080.54
208148,2081.48
208241,2082.41
208348,2083.48
208451,2084.51
208553,2085.53
208652,2086.52
208748,2087.48
208846,2088.46
208948,2089.48
209041,2090.41
209135,2091.35
209231,2092.31
209339,2093.39
209435,2094.35
209528,2095.28
209625,2096.25
209736,2097.36
209842,2098.42
209943,2099.43
210043,2100.43
210152,2101.52
210256,2102.56
210353,2103.53
210449,2104.49
210552,2105.52
210656,2106.56
210763,2107.63
210863,2108.63
210962,2109.62
211068,2110.68
211173,2111.73
211271,2112.71
211365,2113.65
211472,2114.72
211577,2115.77
211680,2116.8
211776,2117.76
211874,2118.74
211983,2119.83
212090,2120.9
212186,2121.86
212278,2122.78
212371,2123.71
212470,2124.7
212568,2125.68
212665,2126.65
212761,2127.61
212876,2128.76
212995,2129.95
213101,2131.01
213204,2132.04
213303,2133.03
213402,2134.02
213500,2135.0
213594,2135.94
213688,2136.88
213794,2137.94
213896,2138.96
213993,2139.93
214089,2140.89
214188,2141.88
214301,2143.01
214415,2144.15
214520,2145.2
214618,2146.18
214719,2147.19
214820,2148.2
214920,2149.2
215016,2150.16
215115,2151.15
215222,2152.22
215334,2153.34
215435,2154.35
215533,2155.33
215631,2156.31
215735,2157.35
215837,2158.37
215935,2159.35
216028,2160.28
216130,2161.3
216233,2162.33
216329,2163.29
216423,2164.23
216520,2165.2
216632,2166.32
216735,2167.35
216830,2168.3
216921,2169.21
217013,2170.13
217117,2171.17
217215,2172.15
217311,2173.11
217403,2174.03
217506,2175.06
217612,2176.12
217715,2177.15
217812,2178.12
217911,2179.11
218016,2180.16
218117,2181.17
218211,2182.11
218304,2183.04
218408,2184.08
218510,2185.1
218610,2186.1
218704,2187.04
218802,2188.02
218907,2189.07
219013,2190.13
219108,2191.08
219200,2192.0
219290,2192.9
219377,2193.77
219464,2194.64
219552,2195.52
219640,2196.4
219727,2197.27
219821,2198.21
219946,2199.46
220071,2200.71
220179,2201.79
220293,2202.93
220407,2204.07
220516,2205.16
220622,2206.22
220727,2207.27
220834,2208.34
220939,2209.39
221041,2210.41
221142,2211.42
221249,2212.49
221354,2213.54
221454,2214.54
221554,2215.54
221658,2216.58
221761,2217.61
221865,2218.65
221966,2219.66
222067,2220.67
222172,2221.72
222278,2222.78
222379,2223.79
222478,2224.78
222579,2225.79
222685,2226.85
222787,2227.87
222886,2228.86
222987,2229.87
223092,2230.92
223194,2231.94
223293,2232.93
223391,2233.91
223493,2234.93
223602,2236.02
223703,2237.03
223799,2237.99
223900,2239.0
224006,2240.06
224108,2241.08
224208,2242.08
224313,2243.13
224423,2244.23
224530,2245.3
224631,2246.31
224732,2247.32
224839,2248.39
224944,2249.44
225042,2250.42
225138,2251.38
225239,2252.39
225346,2253.46
225453,2254.53
225557,2255.57
225666,2256.66
225784,2257.84
225895,2258.95
226000,2260.0
226102,2261.02
226208,2262.08
226315,2263.15
226413,2264.13
226509,2265.09
226605,2266.05
226707,2267.07
226806,2268.06
226903,2269.03
227004,2270.04
227113,2271.13
227222,2272.22
227320,2273.2
227420,2274.2
227525,2275.25
227628,2276.28
227727,2277.27
227821,2278.21
227927,2279.27
228033,2280.33
228134,2281.34
228229,2282.29
228336,2283.36
228444,2284.44
228544,2285.44
228638,2286.38
228737,2287.37
228852,2288.52
228959,2289.59
229058,2290.58
229153,2291.53
229256,2292.56
229373,2293.73
229488,2294.88
229596,2295.96
229709,2297.09
229821,2298.21
229923,2299.23
230020,2300.2
230113,2301.13
230208,2302.08
230302,2303.02
230396,2303.96
230495,2304.95
230609,2306.09
230721,2307.21
230824,2308.24
230926,2309.26
231028,2310.28
231134,2311.34
231229,2312.29
231320,2313.2
231415,2314.15
231516,2315.16
231619,2316.19
231714,2317.14
231811,2318.11
231916,2319.16
232025,2320.25
232127,2321.27
232223,2322.23
232323,2323.23
232425,2324.25
232526,2325.26
232621,2326.21
232715,2327.15
232814,2328.14
232915,2329.15
233013,2330.13
233107,2331.07
233203,2332.03
233318,2333.18
233431,2334.31
233537,2335.37
233639,2336.39
233743,2337.43
233852,2338.52
233954,2339.54
234053,2340.53
234151,2341.51
234253,2342.53
234359,2343.59
234457,2344.57
234552,2345.52
234656,2346.56
234764,2347.64
234866,2348.66
234960,2349.6
235053,2350.53
235153,2351.53
235257,2352.57
235360,2353.6
235457,2354.57
235569,2355.69
235679,2356.79
235785,2357.85
235883,2358.83
235986,2359.86
236085,2360.85
236186,2361.86
236283,2362.83
236378,2363.78
236474,2364.74
236579,2365.79
236680,2366.8
236779,2367.79
236875,2368.75
236978,2369.78
237083,2370.83
237188,2371.88
237284,2372.84
237381,2373.81
237483,2374.83
237593,2375.93
237693,2376.93
237786,2377.86
237886,2378.86
237987,2379.87
238087,2380.87
238184,2381.84
238276,2382.76
238365,2383.65
238473,2384.73
238596,2385.96
238702,2387.02
238824,2388.24
238941,2389.41
239052,2390.52
239158,2391.58
239262,2392.62
239373,2393.73
239486,2394.86
239593,2395.93
239697,2396.97
239803,2398.03
239913,2399.13
240019,2400.19
240119,2401.19
240221,2402.21
240324,2403.24
240432,2404.32
240535,2405.35
240635,2406.35
240741,2407.41
240849,2408.49
240953,2409.53
241052,2410.52
241154,2411.54
241260,2412.6
241364,2413.64
241466,2414.66
241568,2415.68
241670,2416.7
241774,2417.74
241872,2418.72
241969,2419.69
242067,2420.67
242168,2421.68
242267,2422.67
242361,2423.61
242459,2424.59
242560,2425.6
242658,2426.58
242755,2427.55
242849,2428.49
242951,2429.51
243052,2430.52
243152,2431.52
243250,2432.5
243345,2433.45
243446,2434.46
243546,2435.46
243646,2436.46
243743,2437.43
243838,2438.38
243936,2439.36
244038,2440.38
244142,2441.42
244241,2442.41
244338,2443.38
244437,2444.37
244540,2445.4
244638,2446.38
244735,2447.35
244831,2448.31
244933,2449.33
245034,2450.34
245131,2451.31
245227,2452.27
245322,2453.22
245418,2454.18
245519,2455.19
245616,2456.16
245711,2457.11
245810,2458.1
245913,2459.13
246015,2460.15
246114,2461.14
246212,2462.12
246310,2463.1
246410,2464.1
246508,2465.08
246604,2466.04
246698,2466.98
246795,2467.95
246894,2468.94
246990,2469.9
247085,2470.85
247182,2471.82
247281,2472.81
247383,2473.83
247483,2474.83
247580,2475.8
247681,2476.81
247785,2477.85
247886,2478.86
247981,2479.81
248076,2480.76
248172,2481.72
248274,2482.74
248370,2483.7
248467,2484.67
248562,2485.62
248661,2486.61
248759,2487.59
248855,2488.55
248950,2489.5
249048,2490.48
249150,2491.5
249252,2492.52
249348,2493.48
249442,2494.42
249535,2495.35
249629,2496.29
249723,2497.23
249815,2498.15
249906,2499.06
250004,2500.04
250107,2501.07
250206,2502.06
250304,2503.04
250407,2504.07
250510,2505.1
250610,2506.1
250707,2507.07
250804,2508.04
250905,2509.05
251006,2510.06
251103,2511.03
251200,2512.0
251298,2512.98
251396,2513.96
251499,2514.99
251596,2515.96
251693,2516.93
251792,2517.92
251891,2518.91
251993,2519.93
252089,2520.89
252184,2521.84
252283,2522.83
252385,2523.85
252482,2524.82
252579,2525.79
252674,2526.74
252773,2527.73
252875,2528.75
252971,2529.71
253066,2530.66
253166,2531.66
253268,2532.68
253368,2533.68
253465,2534.65
253558,2535.58
253653,2536.53
253750,2537.5
253846,2538.46
253942,2539.42
254038,2540.38
254139,2541.39
254246,2542.46
254348,2543.48
254447,2544.47
254549,2545.49
254654,2546.54
254759,2547.59
254859,2548.59
254970,2549.7
255082,2550.82
255185,2551.85
255286,2552.86
255381,2553.81
255478,2554.78
255580,2555.8
255679,2556.79
255776,2557.76
255876,2558.76
255981,2559.81
256089,2560.89
256190,2561.9
256289,2562.89
256388,2563.88
256488,2564.88
256584,2565.84
256679,2566.79
256774,2567.74
256871,2568.71
256971,2569.71
257066,2570.66
257161,2571.61
257265,2572.65
257369,2573.69
257469,2574.69
257566,2575.66
257663,2576.63
257763,2577.63
257862,2578.62
257958,2579.58
258051,2580.51
258147,2581.47
258246,2582.46
258342,2583.42
258435,2584.35
258527,2585.27
258622,2586.22
258719,2587.19
258818,2588.18
258914,2589.14
259011,2590.11
259113,2591.13
259219,2592.19
259317,2593.17
259413,2594.13
259511,2595.11
259613,2596.13
259712,2597.12
259809,2598.09
259902,2599.02
259999,2599.99
260105,2601.05
260206,2602.06
260305,2603.05
260400,2604.0
260501,2605.01
260601,2606.01
260697,2606.97
260792,2607.92
260890,2608.9
260994,2609.94
261095,2610.95
261192,2611.92
261288,2612.88
261389,2613.89
261489,2614.89
261590,2615.9
261686,2616.86
261784,2617.84
261883,2618.83
261987,2619.87
262083,2620.83
262177,2621.77
262271,2622.71
262371,2623.71
262469,2624.69
262567,2625.67
262667,2626.67
262769,2627.69
262870,2628.7
262967,2629.67
263063,2630.63
263164,2631.64
263264,2632.64
263361,2633.61
263456,2634.56
263554,2635.54
263652,2636.52
263755,2637.55
263851,2638.51
263948,2639.48
264044,2640.44
264141,2641.41
264243,2642.43
264339,2643.39
264436,2644.36
264537,2645.37
264638,2646.38
264739,2647.39
264835,2648.35
264930,2649.3
265029,2650.29
265132,2651.32
265229,2652.29
265323,2653.23
265418,2654.18
265514,2655.14
265608,2656.08
265702,2657.02
265793,2657.93
265886,2658.86
265987,2659.87
266087,2660.87
266183,2661.83
266280,2662.8
266379,2663.79
266481,2664.81
266579,2665.79
266675,2666.75
266772,2667.72
266877,2668.77
266977,2669.77
267078,2670.78
267178,2671.78
267282,2672.82
267383,2673.83
267483,2674.83
267579,2675.79
267675,2676.75
267776,2677.76
267879,2678.79
267976,2679.76
268072,2680.72
268167,2681.67
268266,2682.66
268365,2683.65
268462,2684.62
268556,2685.56
268654,2686.54
268756,2687.56
268856,2688.56
268953,2689.53
269051,2690.51
269156,2691.56
269254,2692.54
269349,2693.49
269442,2694.42
269537,2695.37
269635,2696.35
269729,2697.29
269825,2698.25
269920,2699.2
270019,2700.19
270122,2701.22
270226,2702.26
270323,2703.23
270422,2704.22
270524,2705.24
270624,2706.24
270722,2707.22
270817,2708.17
270912,2709.12
271009,2710.09
271108,2711.08
271207,2712.07
271302,2713.02
271401,2714.01
271502,2715.02
271598,2715.98
271694,2716.94
271789,2717.89
271887,2718.87
271985,2719.85
272081,2720.81
272175,2721.75
272269,2722.69
272366,2723.66
272468,2724.68
272564,2725.64
272657,2726.57
272754,2727.54
272851,2728.51
272949,2729.49
273043,2730.43
273137,2731.37
273244,2732.44
273352,2733.52
273449,2734.49
273545,2735.45
273643,2736.43
273743,2737.43
273842,2738.42
273939,2739.39
274034,2740.34
274132,2741.32
274234,2742.34
274331,2743.31
274427,2744.27
274521,2745.21
274621,2746.21
274724,2747.24
274822,2748.22
274916,2749.16
275011,2750.11
275108,2751.08
275206,2752.06
275302,2753.02
275396,2753.96
275495,2754.95
275598,2755.98
275697,2756.97
275794,2757.94
275889,2758.89
275992,2759.92
276091,2760.91
276189,2761.89
276284,2762.84
276383,2763.83
276479,2764.79
276573,2765.73
276665,2766.65
276758,2767.58
276857,2768.57
276957,2769.57
277052,2770.52
277147,2771.47
277242,2772.42
277341,2773.41
277444,2774.44
277542,2775.42
277639,2776.39
277739,2777.39
277839,2778.39
277940,2779.4
278036,2780.36
278129,2781.29
278225,2782.25
278327,2783.27
278424,2784.24
278520,2785.2
278620,2786.2
278724,2787.24
278830,2788.3
278928,2789.28
279023,2790.23
279120,2791.2
279219,2792.19
279316,2793.16
279410,2794.1
279502,2795.02
279597,2795.97
279697,2796.97
279795,2797.95
279888,2798.88
279982,2799.82
280077,2800.77
280171,2801.71
280263,2802.63
280356,2803.56
280450,2804.5
280555,2805.55
280660,2806.6
280751,2807.51
280843,2808.43
280959,2809.59
281056,2810.56
281167,2811.67
281265,2812.65
281362,2813.62
281462,2814.62
281563,2815.63
281659,2816.59
281754,2817.54
281851,2818.51
281949,2819.49
282049,2820.49
282145,2821.45
282240,2822.4
282337,2823.37
282436,2824.36
282534,2825.34
282631,2826.31
282726,2827.26
282824,2828.24
282924,2829.24
283022,2830.22
283118,2831.18
283216,2832.16
283317,2833.17
283415,2834.15
283514,2835.14
283609,2836.09
283703,2837.03
283803,2838.03
283900,2839.0
283996,2839.96
284091,2840.91
284192,2841.92
284294,2842.94
284395,2843.95
284492,2844.92
284589,2845.89
284689,2846.89
284787,2847.87
284879,2848.79
284970,2849.7
285061,2850.61
285157,2851.57
285253,2852.53
285348,2853.48
285436,2854.36
285524,2855.24
285633,2856.33
285743,2857.43
285838,2858.38
285934,2859.34
286036,2860.36
286140,2861.4
286240,2862.4
286338,2863.38
286437,2864.37
286541,2865.41
286642,2866.42
286740,2867.4
286835,2868.35
286931,2869.31
287028,2870.28
287129,2871.29
287223,2872.23
287318,2873.18
287414,2874.14
287516,2875.16
287616,2876.16
287712,2877.12
287808,2878.08
287908,2879.08
288009,2880.09
288107,2881.07
288202,2882.02
288301,2883.01
288405,2884.05
288507,2885.07
288604,2886.04
288699,2886.99
288799,2887.99
288900,2889.0
289000,2890.0
289097,2890.97
289192,2891.92
289290,2892.9
289390,2893.9
289488,2894.88
289584,2895.84
289679,2896.79
289773,2897.73
289868,2898.68
289963,2899.63
290056,2900.56
290148,2901.48
290241,2902.41
290335,2903.35
290428,2904.28
290521,2905.21
290613,2906.13
290713,2907.13
290820,2908.2
290921,2909.21
291024,2910.24
291129,2911.29
291233,2912.33
291333,2913.33
291433,2914.33
291536,2915.36
291644,2916.44
291749,2917.49
291850,2918.5
291950,2919.5
292052,2920.52
292155,2921.55
292255,2922.55
292351,2923.51
292453,2924.53
292561,2925.61
292668,2926.68
292766,2927.66
292864,2928.64
292964,2929.64
293061,2930.61
293161,2931.61
293257,2932.57
293352,2933.52
293448,2934.48
293546,2935.46
293643,2936.43
293737,2937.37
293832,2938.32
293934,2939.34
294036,2940.36
294134,2941.34
294230,2942.3
294332,2943.32
294437,2944.37
294537,2945.37
294633,2946.33
294729,2947.29
294828,2948.28
294930,2949.3
295033,2950.33
295134,2951.34
295236,2952.36
295342,2953.42
295446,2954.46
295545,2955.45
295642,2956.42
295749,2957.49
295851,2958.51
295951,2959.51
296051,2960.51
296150,2961.5
296250,2962.5
296353,2963.53
296455,2964.55
296554,2965.54
296657,2966.57
296760,2967.6
296863,2968.63
296959,2969.59
297052,2970.52
297149,2971.49
297248,2972.48
297342,2973.42
297438,2974.38
297535,2975.35
297636,2976.36
297739,2977.39
297840,2978.4
297935,2979.35
298035,2980.35
298139,2981.39
298245,2982.45
298343,2983.43
298439,2984.39
298543,2985.43
298647,2986.47
298744,2987.44
298840,2988.4
298942,2989.42
299047,2990.47
299147,2991.47
299243,2992.43
299338,2993.38
299435,2994.35
299534,2995.34
299633,2996.33
299729,2997.29
299824,2998.24
299924,2999.24
300031,3000.31
300129,3001.29
300224,3002.24
300320,3003.2
300419,3004.19
300517,3005.17
300615,3006.15
300711,3007.11
300812,3008.12
300911,3009.11
301007,3010.07
301103,3011.03
301199,3011.99
301299,3012.99
301398,3013.98
301494,3014.94
301591,3015.91
301686,3016.86
301784,3017.84
301880,3018.8
301978,3019.78
302074,3020.74
302179,3021.79
302285,3022.85
302384,3023.84
302480,3024.8
302581,3025.81
302684,3026.84
302783,3027.83
302882,3028.82
302981,3029.81
303085,3030.85
303192,3031.92
303294,3032.94
303392,3033.92
303492,3034.92
303594,3035.94
303694,3036.94
303790,3037.9
303887,3038.87
303987,3039.87
304084,3040.84
304181,3041.81
304279,3042.79
304385,3043.85
304486,3044.86
304582,3045.82
304677,3046.77
304776,3047.76
304876,3048.76
304972,3049.72
305068,3050.68
305165,3051.65
305267,3052.67
305367,3053.67
305464,3054.64
305557,3055.57
305651,3056.51
305747,3057.47
305843,3058.43
305935,3059.35
306027,3060.27
306127,3061.27
306232,3062.32
306330,3063.3
306426,3064.26
306524,3065.24
306627,3066.27
306732,3067.32
306832,3068.32
306926,3069.26
307025,3070.25
307126,3071.26
307224,3072.24
307319,3073.19
307413,3074.13
307512,3075.12
307609,3076.09
307706,3077.06
307802,3078.02
307899,3078.99
308001,3080.01
308105,3081.05
308204,3082.04
308300,3083.0
308401,3084.01
308498,3084.98
308593,3085.93
308687,3086.87
308778,3087.78
308872,3088.72
308973,3089.73
309078,3090.78
309177,3091.77
309274,3092.74
309379,3093.79
309482,3094.82
309582,3095.82
309679,3096.79
309777,3097.77
309879,3098.79
309979,3099.79
310078,3100.78
310174,3101.74
310277,3102.77
310378,3103.78
310476,3104.76
310573,3105.73
310670,3106.7
310769,3107.69
310872,3108.72
310969,3109.69
311064,3110.64
311161,3111.61
311262,3112.62
311362,3113.62
311459,3114.59
311555,3115.55
311651,3116.51
311755,3117.55
311855,3118.55
311953,3119.53
312049,3120.49
312147,3121.47
312246,3122.46
312346,3123.46
312441,3124.41
312538,3125.38
312640,3126.4
312740,3127.4
312837,3128.37
312933,3129.33
313035,3130.35
313138,3131.38
313238,3132.38
313336,3133.36
313435,3134.35
313534,3135.34
313637,3136.37
313735,3137.35
313828,3138.28
313921,3139.21
314014,3140.14
314109,3141.09
314203,3142.03
314295,3142.95
314392,3143.92
314495,3144.95
314598,3145.98
314694,3146.94
314792,3147.92
314897,3148.97
315000,3150.0
315099,3150.99
315195,3151.95
315293,3152.93
315392,3153.92
315493,3154.93
315590,3155.9
315687,3156.87
315787,3157.87
315889,3158.89
315992,3159.92
316092,3160.92
316191,3161.91
316295,3162.95
316400,3164.0
316499,3164.99
316595,3165.95
316691,3166.91
316787,3167.87
316884,3168.84
316979,3169.79
317070,3170.7
317164,3171.64
317258,3172.58
317355,3173.55
317447,3174.47
317537,3175.37
317630,3176.3
317726,3177.26
317822,3178.22
317914,3179.14
318008,3180.08
318106,3181.06
318210,3182.1
318307,3183.07
318404,3184.04
318502,3185.02
318603,3186.03
318704,3187.04
318800,3188.0
318895,3188.95
318994,3189.94
319099,3190.99
319199,3191.99
319297,3192.97
319391,3193.91
319491,3194.91
319593,3195.93
319693,3196.93
319790,3197.9
319892,3198.92
319999,3199.99
320102,3201.02
320199,3201.99
320295,3202.95
320395,3203.95
320494,3204.94
320590,3205.9
320685,3206.85
320784,3207.84
320885,3208.85
320982,3209.82
321078,3210.78
321171,3211.71
321270,3212.7
321369,3213.69
321466,3214.66
321562,3215.62
321657,3216.57
321751,3217.51
321849,3218.49
321944,3219.44
322041,3220.41
322138,3221.38
322236,3222.36
322338,3223.38
322433,3224.33
322526,3225.26
322623,3226.23
322722,3227.22
322817,3228.17
322913,3229.13
323011,3230.11
323112,3231.12
323210,3232.1
323304,3233.04
323398,3233.98
323496,3234.96
323596,3235.96
323695,3236.95
323791,3237.91
323891,3238.91
323995,3239.95
324097,3240.97
324197,3241.97
324293,3242.93
324392,3243.92
324492,3244.92
324589,3245.89
324682,3246.82
324777,3247.77
324874,3248.74
324973,3249.73
325071,3250.71
325168,3251.68
325277,3252.77
325386,3253.86
325489,3254.89
325589,3255.89
325696,3256.96
325798,3257.98
325897,3258.97
325994,3259.94
326094,3260.94
326192,3261.92
326293,3262.93
326390,3263.9
326486,3264.86
326584,3265.84
326685,3266.85
326786,3267.86
326882,3268.82
326977,3269.77
327075,3270.75
327175,3271.75
327276,3272.76
327372,3273.72
327466,3274.66
327564,3275.64
327665,3276.65
327763,3277.63
327860,3278.6
327958,3279.58
328056,3280.56
328154,3281.54
328250,3282.5
328346,3283.46
328447,3284.47
328549,3285.49
328650,3286.5
328747,3287.47
328845,3288.45
328944,3289.44
329043,3290.43
329137,3291.37
329230,3292.3
329324,3293.24
329425,3294.25
329529,3295.29
329630,3296.3
329727,3297.27
329828,3298.28
329933,3299.33
330032,3300.32
330127,3301.27
330221,3302.21
330317,3303.17
330414,3304.14
330509,3305.09
330605,3306.05
330703,3307.03
330805,3308.05
330909,3309.09
331009,3310.09
331107,3311.07
331209,3312.09
331315,3313.15
331414,3314.14
331511,3315.11
331609,3316.09
331709,3317.09
331809,3318.09
331906,3319.06
332000,3320.0
332096,3320.96
332192,3321.92
332288,3322.88
332380,3323.8
332470,3324.7
332562,3325.62
332660,3326.6
332758,3327.58
332853,3328.53
332954,3329.54
333058,3330.58
333164,3331.64
333261,3332.61
333354,3333.54
333449,3334.49
333547,3335.47
333644,3336.44
333740,3337.4
333834,3338.34
333938,3339.38
334042,3340.42
334141,3341.41
334238,3342.38
334333,3343.33
334429,3344.29
334529,3345.29
334624,3346.24
334718,3347.18
334814,3348.14
334916,3349.16
335016,3350.16
335116,3351.16
335212,3352.12
335311,3353.11
335415,3354.15
335519,3355.19
335615,3356.15
335717,3357.17
335824,3358.24
335927,3359.27
336027,3360.27
336124,3361.24
336222,3362.22
336323,3363.23
336423,3364.23
336521,3365.21
336618,3366.18
336722,3367.22
336828,3368.28
336928,3369.28
337026,3370.26
337123,3371.23
337219,3372.19
337312,3373.12
337403,3374.03
337494,3374.94
337590,3375.9
337693,3376.93
337791,3377.91
337885,3378.85
337985,3379.85
338086,3380.86
338185,3381.85
338282,3382.82
338377,3383.77
338478,3384.78
338580,3385.8
338678,3386.78
338775,3387.75
338871,3388.71
338970,3389.7
339068,3390.68
339164,3391.64
339258,3392.58
339354,3393.54
339454,3394.54
339555,3395.55
339653,3396.53
339748,3397.48
339845,3398.45
339946,3399.46
340044,3400.44
340141,3401.41
340235,3402.35
340336,3403.36
340437,3404.37
340538,3405.38
340638,3406.38
340735,3407.35
340834,3408.34
340934,3409.34
341031,3410.31
341126,3411.26
341225,3412.25
341325,3413.25
341424,3414.24
341522,3415.22
341618,3416.18
341716,3417.16
341816,3418.16
341912,3419.12
342005,3420.05
342100,3421.0
342203,3422.03
342306,3423.06
342404,3424.04
342497,3424.97
342594,3425.94
342692,3426.92
342787,3427.87
342879,3428.79
342970,3429.7
343064,3430.64
343160,3431.6
343254,3432.54
343349,3433.49
343453,3434.53
343558,3435.58
343658,3436.58
343753,3437.53
343852,3438.52
343952,3439.52
344049,3440.49
344143,3441.43
344235,3442.35
344336,3443.36
344438,3444.38
344535,3445.35
344632,3446.32
344728,3447.28
344824,3448.24
344924,3449.24
345021,3450.21
345117,3451.17
345223,3452.23
345329,3453.29
345428,3454.28
345526,3455.26
345621,3456.21
345719,3457.19
345817,3458.17
345914,3459.14
346009,3460.09
346102,3461.02
346199,3461.99
346297,3462.97
346393,3463.93
346488,3464.88
346584,3465.84
346681,3466.81
346779,3467.79
346874,3468.74
346970,3469.7
347069,3470.69
347170,3471.7
347271,3472.71
347370,3473.7
347471,3474.71
347577,3475.77
347684,3476.84
347783,3477.83
347878,3478.78
347976,3479.76
348076,3480.76
348175,3481.75
348274,3482.74
348370,3483.7
348469,3484.69
348568,3485.68
348666,3486.66
348762,3487.62
348860,3488.6
348962,3489.62
349061,3490.61
349158,3491.58
349252,3492.52
349348,3493.48
349448,3494.48
349546,3495.46
349644,3496.44
349738,3497.38
349837,3498.37
349937,3499.37
350035,3500.35
350131,3501.31
350226,3502.26
350324,3503.24
350419,3504.19
350508,3505.08
350594,3505.94
350678,3506.78
350762,3507.62
350849,3508.49
350941,3509.41
351033,3510.33
351134,3511.34
351239,3512.39
351343,3513.43
351445,3514.45
351546,3515.46
351643,3516.43
351739,3517.39
351841,3518.41
351940,3519.4
352043,3520.43
352153,3521.53
352265,3522.65
352376,3523.76
352478,3524.78
352582,3525.82
352685,3526.85
352784,3527.84
352884,3528.84
352983,3529.83
353076,3530.76
353167,3531.67
353259,3532.59
353351,3533.51
353446,3534.46
353539,3535.39
353629,3536.29
353720,3537.2
353812,3538.12
353904,3539.04
354005,3540.05
354109,3541.09
354217,3542.17
354320,3543.2
354426,3544.26
354532,3545.32
354634,3546.34
354733,3547.33
354833,3548.33
354930,3549.3
355024,3550.24
355117,3551.17
355210,3552.1
355307,3553.07
355411,3554.11
355514,3555.14
355615,3556.15
355717,3557.17
355819,3558.19
355919,3559.19
356022,3560.22
356122,3561.22
356224,3562.24
356322,3563.22
356420,3564.2
356514,3565.14
356607,3566.07
356703,3567.03
356803,3568.03
356902,3569.02
357007,3570.07
357114,3571.14
357214,3572.14
357314,3573.14
357416,3574.16
357513,3575.13
357611,3576.11
357713,3577.13
357818,3578.18
357919,3579.19
358016,3580.16
358128,3581.28
358241,3582.41
358347,3583.47
358446,3584.46
358547,3585.47
358648,3586.48
358746,3587.46
358842,3588.42
358940,3589.4
359039,3590.39
359137,3591.37
359233,3592.33
359326,3593.26
359420,3594.2
359518,3595.18
359622,3596.22
359723,3597.23
359824,3598.24
359930,3599.3
360041,3600.41
360150,3601.5
360253,3602.53
360356,3603.56
360465,3604.65
360568,3605.68
360664,3606.64
360757,3607.57
360853,3608.53
360947,3609.47
361042,3610.42
361138,3611.38
361236,3612.36
361337,3613.37
361440,3614.4
361536,3615.36
361629,3616.29
361720,3617.2
361810,3618.1
361899,3618.99
361988,3619.88
362077,3620.77
362174,3621.74
362306,3623.06
362438,3624.38
362547,3625.47
362661,3626.61
362772,3627.72
362874,3628.74
362979,3629.79
363078,3630.78
363177,3631.77
363272,3632.72
363363,3633.63
363452,3634.52
363547,3635.47
363645,3636.45
363747,3637.47
363848,3638.48
363964,3639.64
364076,3640.76
364180,3641.8
364278,3642.78
364379,3643.79
364479,3644.79
364576,3645.76
364671,3646.71
364767,3647.67
364867,3648.67
364968,3649.68
365063,3650.63
365155,3651.55
365249,3652.49
365344,3653.44
365436,3654.36
365529,3655.29
365622,3656.22
365723,3657.23
365830,3658.3
365930,3659.3
366030,3660.3
366129,3661.29
366228,3662.28
366325,3663.25
366418,3664.18
366521,3665.21
366623,3666.23
366727,3667.27
366823,3668.23
366920,3669.2
367016,3670.16
367110,3671.1
367206,3672.06
367303,3673.03
367403,3674.03
367510,3675.1
367636,3676.36
367762,3677.62
367869,3678.69
367967,3679.67
368060,3680.6
368151,3681.51
368242,3682.42
368335,3683.35
368470,3684.7
368606,3686.06
368716,3687.16
368823,3688.23
368924,3689.24
369021,3690.21
369113,3691.13
369206,3692.06
369296,3692.96
369389,3693.89
369489,3694.89
369601,3696.01
369711,3697.11
369816,3698.16
369915,3699.15
370021,3700.21
370122,3701.22
370222,3702.22
370316,3703.16
370410,3704.1
370510,3705.1
370612,3706.12
370708,3707.08
370808,3708.08
370905,3709.05
371006,3710.06
371099,3710.99
371196,3711.96
371289,3712.89
371388,3713.88
371482,3714.82
371580,3715.8
371674,3716.74
371773,3717.73
371873,3718.73
371971,3719.71
372066,3720.66
372168,3721.68
372270,3722.7
372370,3723.7
372465,3724.65
372562,3725.62
372662,3726.62
372760,3727.6
372854,3728.54
372946,3729.46
373039,3730.39
373131,3731.31
373224,3732.24
373313,3733.13
373409,3734.09
373510,3735.1
373612,3736.12
373708,3737.08
373810,3738.1
373920,3739.2
374021,3740.21
374115,3741.15
374217,3742.17
374315,3743.15
374408,3744.08
374499,3744.99
374592,3745.92
374687,3746.87
374775,3747.75
374862,3748.62
374951,3749.51
375055,3750.55
375160,3751.6
375262,3752.62
375359,3753.59
375456,3754.56
375560,3755.6
375657,3756.57
375760,3757.6
375860,3758.6
375956,3759.56
376047,3760.47
376138,3761.38
376228,3762.28
376315,3763.15
376402,3764.02
376490,3764.9
376619,3766.19
376748,3767.48
376854,3768.54
376959,3769.59
377070,3770.7
377176,3771.76
377278,3772.78
377383,3773.83
377497,3774.97
377608,3776.08
377715,3777.15
377815,3778.15
377914,3779.14
378014,3780.14
378112,3781.12
378210,3782.1
378320,3783.2
378418,3784.18
378505,3785.05
378589,3785.89
378670,3786.7
378751,3787.51
378841,3788.41
378944,3789.44
379075,3790.75
379206,3792.06
379315,3793.15
379421,3794.21
379527,3795.27
379633,3796.33
379736,3797.36
379838,3798.38
379948,3799.48
380061,3800.61
380171,3801.71
380273,3802.73
380373,3803.73
380468,3804.68
380557,3805.57
380644,3806.44
380731,3807.31
380844,3808.44
380958,3809.58
381065,3810.65
381183,3811.83
381304,3813.04
381414,3814.14
381517,3815.17
381620,3816.2
381723,3817.23
381826,3818.26
381925,3819.25
382023,3820.23
382127,3821.27
382234,3822.34
382334,3823.34
382427,3824.27
382518,3825.18
382611,3826.11
382712,3827.12
382814,3828.14
382912,3829.12
383011,3830.11
383115,3831.15
383215,3832.15
383313,3833.13
383417,3834.17
383523,3835.23
383627,3836.27
383727,3837.27
383825,3838.25
383929,3839.29
384032,3840.32
384129,3841.29
384224,3842.24
384322,3843.22
384424,3844.24
384523,3845.23
384615,3846.15
384708,3847.08
384818,3848.18
384918,3849.18
385011,3850.11
385102,3851.02
385195,3851.95
385284,3852.84
385372,3853.72
385473,3854.73
385583,3855.83
385682,3856.82
385777,3857.77
385874,3858.74
385975,3859.75
386066,3860.66
386155,3861.55
386241,3862.41
386331,3863.31
386428,3864.28
386521,3865.21
386615,3866.15
386726,3867.26
386833,3868.33
386933,3869.33
387028,3870.28
387124,3871.24
387224,3872.24
387319,3873.19
387415,3874.15
387508,3875.08
387602,3876.02
387695,3876.95
387787,3877.87
387882,3878.82
387983,3879.83
388081,3880.81
388178,3881.78
388272,3882.72
388376,3883.76
388474,3884.74
388570,3885.7
388662,3886.62
388754,3887.54
388850,3888.5
388950,3889.5
389042,3890.42
389132,3891.32
389226,3892.26
389340,3893.4
389455,3894.55
389563,3895.63
389689,3896.89
389816,3898.16
389923,3899.23
390030,3900.3
390140,3901.4
390248,3902.48
390351,3903.51
390455,3904.55
390564,3905.64
390670,3906.7
390771,3907.71
390874,3908.74
390982,3909.82
391086,3910.86
391191,3911.91
391298,3912.98
391411,3914.11
391519,3915.19
391622,3916.22
391730,3917.3
391840,3918.4
391943,3919.43
392042,3920.42
392142,3921.42
392256,3922.56
392367,3923.67
392471,3924.71
392573,3925.73
392681,3926.81
392780,3927.8
392874,3928.74
392964,3929.64
393056,3930.56
393148,3931.48
393263,3932.63
393379,3933.79
393490,3934.9
393596,3935.96
393707,3937.07
393812,3938.12
393918,3939.18
394020,3940.2
394117,3941.17
394210,3942.1
394299,3942.99
394386,3943.86
394472,3944.72
394559,3945.59
394650,3946.5
394751,3947.51
394853,3948.53
394952,3949.52
395049,3950.49
395146,3951.46
395239,3952.39
395331,3953.31
395426,3954.26
395525,3955.25
395619,3956.19
395716,3957.16
395814,3958.14
395912,3959.12
396007,3960.07
396102,3961.02
396202,3962.02
396306,3963.06
396405,3964.05
396498,3964.98
396588,3965.88
396680,3966.8
396786,3967.86
396883,3968.83
396978,3969.78
397078,3970.78
397181,3971.81
397279,3972.79
397372,3973.72
397467,3974.67
397581,3975.81
397691,3976.91
397794,3977.94
397889,3978.89
397986,3979.86
398084,3980.84
398182,3981.82
398274,3982.74
398366,3983.66
398462,3984.62
398568,3985.68
398667,3986.67
398762,3987.62
398854,3988.54
398951,3989.51
399044,3990.44
399140,3991.4
399233,3992.33
399333,3993.33
399445,3994.45
399556,3995.56
399660,3996.6
399757,3997.57
399856,3998.56
399952,3999.52
400046,4000.46
400138,4001.38
400231,4002.31
400330,4003.3
400431,4004.31
400528,4005.28
400623,4006.23
400723,4007.23
400825,4008.25
400921,4009.21
401018,4010.18
401114,4011.14
401222,4012.22
401322,4013.22
401416,4014.16
401506,4015.06
401603,4016.03
401707,4017.07
401807,4018.07
401900,4019.0
401994,4019.94
402087,4020.87
402182,4021.82
402272,4022.72
402362,4023.62
402456,4024.56
402557,4025.57
402659,4026.59
402752,4027.52
402844,4028.44
402939,4029.39
403031,4030.31
403123,4031.23
403214,4032.14
403311,4033.11
403405,4034.05
403497,4034.97
403586,4035.86
403677,4036.77
403774,4037.74
403865,4038.65
403958,4039.58
404061,4040.61
404160,4041.6
404261,4042.61
404359,4043.59
404454,4044.54
404553,4045.53
404652,4046.52
404746,4047.46
404846,4048.46
404940,4049.4
405037,4050.37
405130,4051.3
405225,4052.25
405317,4053.17
405415,4054.15
405515,4055.15
405611,4056.11
405704,4057.04
405797,4057.97
405894,4058.94
405992,4059.92
406089,4060.89
406182,4061.82
406287,4062.87
406398,4063.98
406510,4065.1
406615,4066.15
406719,4067.19
406829,4068.29
406934,4069.34
407035,4070.35
407133,4071.33
407238,4072.38
407339,4073.39
407434,4074.34
407528,4075.28
407629,4076.29
407735,4077.35
407834,4078.34
407930,4079.3
408032,4080.32
408132,4081.32
408237,4082.37
408343,4083.43
408435,4084.35
408532,4085.32
408632,4086.32
408742,4087.42
408843,4088.43
408944,4089.44
409050,4090.5
409151,4091.51
409246,4092.46
409347,4093.47
409457,4094.57
409558,4095.58
409652,4096.52
409743,4097.43
409838,4098.38
409936,4099.36
410030,4100.3
410122,4101.22
410212,4102.12
410309,4103.09
410413,4104.13
410515,4105.15
410629,4106.29
410743,4107.43
410847,4108.47
410943,4109.43
411040,4110.4
411139,4111.39
411232,4112.32
411325,4113.25
411414,4114.14
411509,4115.09
411602,4116.02
411696,4116.96
411787,4117.87
411884,4118.84
411988,4119.88
412087,4120.87
412184,4121.84
412280,4122.8
412374,4123.74
412467,4124.67
412565,4125.65
412664,4126.64
412760,4127.6
412860,4128.6
412964,4129.64
413060,4130.6
413153,4131.53
413250,4132.5
413349,4133.49
413457,4134.57
413558,4135.58
413669,4136.69
413780,4137.8
413891,4138.91
414003,4140.03
414104,4141.04
414209,4142.09
414310,4143.1
414404,4144.04
414496,4144.96
414588,4145.88
414679,4146.79
414768,4147.68
414860,4148.6
414982,4149.82
415105,4151.05
415205,4152.05
415304,4153.04
415403,4154.03
415501,4155.01
415598,4155.98
415692,4156.92
415786,4157.86
415882,4158.82
415979,4159.79
416075,4160.75
416169,4161.69
416265,4162.65
416359,4163.59
416451,4164.51
416549,4165.49
416646,4166.46
416741,4167.41
416838,4168.38
416937,4169.37
417036,4170.36
417133,4171.33
417232,4172.32
417336,4173.36
417435,4174.35
417533,4175.33
417635,4176.35
417737,4177.37
417835,4178.35
417933,4179.33
418032,4180.32
418128,4181.28
418223,4182.23
418317,4183.17
418410,4184.1
418498,4184.98
418588,4185.88
418682,4186.82
418764,4187.64
418848,4188.48
418932,4189.32
419016,4190.16
419104,4191.04
419195,4191.95
419282,4192.82
419375,4193.75
419464,4194.64
419555,4195.55
419642,4196.42
419729,4197.29
419815,4198.15
419902,4199.02
419988,4199.88
420072,4200.72
420154,4201.54
420236,4202.36
420317,4203.17
420402,4204.02
420489,4204.89
420578,4205.78
420668,4206.68
420763,4207.63
420874,4208.74
420982,4209.82
421084,4210.84
421181,4211.81
421278,4212.78
421374,4213.74
421473,4214.73
421567,4215.67
421661,4216.61
421763,4217.63
421859,4218.59
421954,4219.54
422046,4220.46
422144,4221.44
422244,4222.44
422339,4223.39
422430,4224.3
422520,4225.2
422610,4226.1
422712,4227.12
422813,4228.13
422915,4229.15
423012,4230.12
423118,4231.18
423225,4232.25
423317,4233.17
423407,4234.07
423503,4235.03
423601,4236.01
423696,4236.96
423790,4237.9
423890,4238.9
424003,4240.03
424109,4241.09
424212,4242.12
424317,4243.17
424425,4244.25
424520,4245.2
424610,4246.1
424702,4247.02
424797,4247.97
424934,4249.34
425071,4250.71
425189,4251.89
425297,4252.97
425403,4254.03
425509,4255.09
425611,4256.11
425709,4257.09
425806,4258.06
425904,4259.04
426002,4260.02
426095,4260.95
426194,4261.94
426292,4262.92
426396,4263.96
426499,4264.99
426597,4265.97
426693,4266.93
426795,4267.95
426893,4268.93
426985,4269.85
427076,4270.76
427173,4271.73
427274,4272.74
427373,4273.73
427471,4274.71
427573,4275.73
427675,4276.75
427770,4277.7
427861,4278.61
427952,4279.52
428046,4280.46
428148,4281.48
428254,4282.54
428352,4283.52
428460,4284.6
428569,4285.69
428669,4286.69
428785,4287.85
428901,4289.01
429012,4290.12
429120,4291.2
429224,4292.24
429330,4293.3
429431,4294.31
429527,4295.27
429623,4296.23
429717,4297.17
429814,4298.14
429912,4299.12
430019,4300.19
430118,4301.18
430219,4302.19
430329,4303.29
430432,4304.32
430529,4305.29
430637,4306.37
430744,4307.44
430844,4308.44
430939,4309.39
431042,4310.42
431143,4311.43
431246,4312.46
431343,4313.43
431449,4314.49
431557,4315.57
431659,4316.59
431754,4317.54
431863,4318.63
431973,4319.73
432073,4320.73
432170,4321.7
432269,4322.69
432362,4323.62
432454,4324.54
432551,4325.51
432640,4326.4
432725,4327.25
432812,4328.12
432909,4329.09
432999,4329.99
433095,4330.95
433192,4331.92
433285,4332.85
433376,4333.76
433469,4334.69
433568,4335.68
433658,4336.58
433753,4337.53
433845,4338.45
433939,4339.39
434030,4340.3
434119,4341.19
434207,4342.07
434299,4342.99
434388,4343.88
434475,4344.75
434560,4345.6
434644,4346.44
434732,4347.32
434822,4348.22
434913,4349.13
435009,4350.09
435102,4351.02
435194,4351.94
435283,4352.83
435371,4353.71
435459,4354.59
435547,4355.47
435635,4356.35
435722,4357.22
435812,4358.12
435905,4359.05
435999,4359.99
436089,4360.89
436180,4361.8
436272,4362.72
436364,4363.64
436457,4364.57
436545,4365.45
436634,4366.34
436723,4367.23
436812,4368.12
436901,4369.01
436995,4369.95
437087,4370.87
437178,4371.78
437267,4372.67
437354,4373.54
437441,4374.41
437529,4375.29
437615,4376.15
437700,4377.0
437784,4377.84
437867,4378.67
437955,4379.55
438054,4380.54
438152,4381.52
438258,4382.58
438372,4383.72
438487,4384.87
438591,4385.91
438693,4386.93
438790,4387.9
438883,4388.83
438970,4389.7
439055,4390.55
439139,4391.39
439223,4392.23
439310,4393.1
439398,4393.98
439488,4394.88
439616,4396.16
439744,4397.44
439854,4398.54
439959,4399.59
440060,4400.6
440161,4401.61
440254,4402.54
440346,4403.46
440437,4404.37
440525,4405.25
440622,4406.22
440722,4407.22
440821,4408.21
440939,4409.39
441054,4410.54
441169,4411.69
441280,4412.8
441380,4413.8
441478,4414.78
441577,4415.77
441677,4416.77
441769,4417.69
441860,4418.6
441950,4419.5
442047,4420.47
442174,4421.74
442301,4423.01
442413,4424.13
442524,4425.24
442632,4426.32
442739,4427.39
442841,4428.41
442942,4429.42
443040,4430.4
443138,4431.38
443239,4432.39
443341,4433.41
443444,4434.44
443551,4435.51
443658,4436.58
443756,4437.56
443850,4438.5
443944,4439.44
444032,4440.32
444118,4441.18
444204,4442.04
444288,4442.88
444371,4443.71
444456,4444.56
444543,4445.43
444644,4446.44
444737,4447.37
444841,4448.41
444937,4449.37
445039,4450.39
445140,4451.4
445239,4452.39
445330,4453.3
445426,4454.26
445524,4455.24
445627,4456.27
445731,4457.31
445831,4458.31
445931,4459.31
446032,4460.32
446130,4461.3
446228,4462.28
446327,4463.27
446425,4464.25
446523,4465.23
446627,4466.27
446733,4467.33
446836,4468.36
446937,4469.37
447036,4470.36
447136,4471.36
447232,4472.32
447327,4473.27
447423,4474.23
447528,4475.28
447630,4476.3
447730,4477.3
447830,4478.3
447936,4479.36
448042,4480.42
448141,4481.41
448238,4482.38
448344,4483.44
448439,4484.39
448541,4485.41
448637,4486.37
448741,4487.41
448834,4488.34
448927,4489.27
449018,4490.18
449114,4491.14
449210,4492.1
449301,4493.01
449390,4493.9
449477,4494.77
449559,4495.59
449647,4496.47
449726,4497.26
449809,4498.09
449892,4498.92
449973,4499.73
450053,4500.53
450132,4501.32
450209,4502.09
450285,4502.85
450361,4503.61
450437,4504.37
450513,4505.13
450590,4505.9
450667,4506.67
450744,4507.44
450820,4508.2
450898,4508.98
450977,4509.77
451058,4510.58
451146,4511.46
451253,4512.53
451375,4513.75
451490,4514.9
451595,4515.95
451699,4516.99
451811,4518.11
451929,4519.29
452049,4520.49
452166,4521.66
452292,4522.92
452410,4524.1
452520,4525.2
452623,4526.23
452724,4527.24
452825,4528.25
452934,4529.34
453046,4530.46
453164,4531.64
453296,4532.96
453423,4534.23
453541,4535.41
453646,4536.46
453751,4537.51
453863,4538.63
453973,4539.73
454081,4540.81
454190,4541.9
454307,4543.07
454425,4544.25
454535,4545.35
454638,4546.38
454738,4547.38
454847,4548.47
454965,4549.65
455078,4550.78
455184,4551.84
455285,4552.85
455396,4553.96
455520,4555.2
455634,4556.34
455742,4557.42
455851,4558.51
455964,4559.64
456075,4560.75
456180,4561.8
456280,4562.8
456383,4563.83
456494,4564.94
456603,4566.03
456708,4567.08
456823,4568.23
456940,4569.4
457052,4570.52
457159,4571.59
457266,4572.66
457368,4573.68
457467,4574.67
457561,4575.61
457655,4576.55
457749,4577.49
457847,4578.47
457947,4579.47
458053,4580.53
458165,4581.65
458270,4582.7
458367,4583.67
458460,4584.6
458558,4585.58
458661,4586.61
458765,4587.65
458890,4588.9
459016,4590.16
459128,4591.28
459232,4592.32
459330,4593.3
459432,4594.32
459530,4595.3
459628,4596.28
459729,4597.29
459832,4598.32
459936,4599.36
460034,4600.34
460130,4601.3
460228,4602.28
460326,4603.26
460421,4604.21
460516,4605.16
460613,4606.13
460710,4607.1
460808,4608.08
460904,4609.04
461000,4610.0
461096,4610.96
461194,4611.94
461294,4612.94
461391,4613.91
461493,4614.93
461597,4615.97
461701,4617.01
461800,4618.0
461895,4618.95
461997,4619.97
462101,4621.01
462202,4622.02
462301,4623.01
462398,4623.98
462498,4624.98
462598,4625.98
462700,4627.0
462797,4627.97
462893,4628.93
462993,4629.93
463094,4630.94
463193,4631.93
463290,4632.9
463386,4633.86
463484,4634.84
463581,4635.81
463675,4636.75
463769,4637.69
463868,4638.68
463972,4639.72
464072,4640.72
464171,4641.71
464271,4642.71
464371,4643.71
464468,4644.68
464565,4645.65
464659,4646.59
464759,4647.59
464863,4648.63
464962,4649.62
465058,4650.58
465156,4651.56
465257,4652.57
465362,4653.62
465464,4654.64
465564,4655.64
465668,4656.68
465772,4657.72
465872,4658.72
465970,4659.7
466069,4660.69
466171,4661.71
466270,4662.7
466366,4663.66
466464,4664.64
466565,4665.65
466662,4666.62
466756,4667.56
466850,4668.5
466945,4669.45
467042,4670.42
467140,4671.4
467237,4672.37
467344,4673.44
467452,4674.52
467551,4675.51
467655,4676.55
467756,4677.56
467850,4678.5
467948,4679.48
468047,4680.47
468144,4681.44
468238,4682.38
468339,4683.39
468440,4684.4
468545,4685.45
468651,4686.51
468751,4687.51
468848,4688.48
468944,4689.44
469043,4690.43
469144,4691.44
469245,4692.45
469343,4693.43
469441,4694.41
469545,4695.45
469646,4696.46
469746,4697.46
469842,4698.42
469942,4699.42
470040,4700.4
470138,4701.38
470234,4702.34
470332,4703.32
470430,4704.3
470527,4705.27
470623,4706.23
470721,4707.21
470819,4708.19
470915,4709.15
471011,4710.11
471112,4711.12
471219,4712.19
471322,4713.22
471423,4714.23
471531,4715.31
471641,4716.41
471748,4717.48
471846,4718.46
471949,4719.49
472051,4720.51
472150,4721.5
472248,4722.48
472348,4723.48
472449,4724.49
472555,4725.55
472651,4726.51
472744,4727.44
472840,4728.4
472945,4729.45
473052,4730.52
473157,4731.57
473273,4732.73
473383,4733.83
473489,4734.89
473599,4735.99
473701,4737.01
473806,4738.06
473908,4739.08
474007,4740.07
474104,4741.04
474202,4742.02
474305,4743.05
474405,4744.05
474500,4745.0
474594,4745.94
474690,4746.9
474785,4747.85
474882,4748.82
474977,4749.77
475072,4750.72
475173,4751.73
475280,4752.8
475373,4753.73
475469,4754.69
475572,4755.72
475674,4756.74
475776,4757.76
475887,4758.87
475991,4759.91
476088,4760.88
476194,4761.94
476300,4763.0
476407,4764.07
476505,4765.05
476604,4766.04
476703,4767.03
476805,4768.05
476904,4769.04
477002,4770.02
477107,4771.07
477215,4772.15
477316,4773.16
477417,4774.17
477520,4775.2
477620,4776.2
477720,4777.2
477821,4778.21
477927,4779.27
478035,4780.35
478135,4781.35
478233,4782.33
478330,4783.3
478430,4784.3
478534,4785.34
478640,4786.4
478747,4787.47
478885,4788.85
479023,4790.23
479130,4791.3
479232,4792.32
479335,4793.35
479437,4794.37
479536,4795.36
479630,4796.3
479732,4797.32
479840,4798.4
479951,4799.51
480055,4800.55
480155,4801.55
480259,4802.59
480360,4803.6
480463,4804.63
480565,4805.65
480664,4806.64
480767,4807.67
480871,4808.71
480977,4809.77
481081,4810.81
481186,4811.86
481291,4812.91
481395,4813.95
481498,4814.98
481597,4815.97
481700,4817.0
481802,4818.02
481905,4819.05
482005,4820.05
482101,4821.01
482199,4821.99
482299,4822.99
482401,4824.01
482501,4825.01
482601,4826.01
482706,4827.06
482812,4828.12
482914,4829.14
483013,4830.13
483109,4831.09
483213,4832.13
483315,4833.15
483417,4834.17
483521,4835.21
483626,4836.26
483727,4837.27
483826,4838.26
483926,4839.26
484030,4840.3
484128,4841.28
484226,4842.26
484325,4843.25
484427,4844.27
484527,4845.27
484624,4846.24
484718,4847.18
484816,4848.16
484919,4849.19
485017,4850.17
485112,4851.12
485210,4852.1
485311,4853.11
485408,4854.08
485503,4855.03
485605,4856.05
485708,4857.08
485803,4858.03
485900,4859.0
485995,4859.95
486093,4860.93
486190,4861.9
486286,4862.86
486382,4863.82
486487,4864.87
486594,4865.94
486698,4866.98
486798,4867.98
486899,4868.99
487000,4870.0
487103,4871.03
487204,4872.04
487303,4873.03
487403,4874.03
487505,4875.05
487608,4876.08
487708,4877.08
487805,4878.05
487906,4879.06
488006,4880.06
488103,4881.03
488198,4881.98
488291,4882.91
488388,4883.88
488487,4884.87
488587,4885.87
488688,4886.88
488800,4888.0
488913,4889.13
489016,4890.16
489115,4891.15
489217,4892.17
489318,4893.18
489419,4894.19
489519,4895.19
489620,4896.2
489725,4897.25
489830,4898.3
489934,4899.34
490031,4900.31
490129,4901.29
490233,4902.33
490336,4903.36
490435,4904.35
490540,4905.4
490650,4906.5
490757,4907.57
490859,4908.59
490965,4909.65
491070,4910.7
491171,4911.71
491268,4912.68
491370,4913.7
491471,4914.71
491567,4915.67
491661,4916.61
491756,4917.56
491855,4918.55
491956,4919.56
492055,4920.55
492159,4921.59
492264,4922.64
492366,4923.66
492471,4924.71
492576,4925.76
492679,4926.79
492777,4927.77
492874,4928.74
492972,4929.72
493072,4930.72
493168,4931.68
493263,4932.63
493359,4933.59
493461,4934.61
493559,4935.59
493655,4936.55
493750,4937.5
493850,4938.5
493957,4939.57
494059,4940.59
494158,4941.58
494265,4942.65
494374,4943.74
494475,4944.75
494571,4945.71
494677,4946.77
494775,4947.75
494874,4948.74
494970,4949.7
495074,4950.74
495186,4951.86
495295,4952.95
495400,4954.0
495508,4955.08
495616,4956.16
495725,4957.25
495826,4958.26
495925,4959.25
496022,4960.22
496118,4961.18
496215,4962.15
496312,4963.12
496415,4964.15
496520,4965.2
496623,4966.23
496723,4967.23
496823,4968.23
496922,4969.22
497021,4970.21
497120,4971.2
497215,4972.15
497312,4973.12
497410,4974.1
497508,4975.08
497603,4976.03
497699,4976.99
497801,4978.01
497900,4979.0
497998,4979.98
498101,4981.01
498198,4981.98
498297,4982.97
498395,4983.95
498491,4984.91
498590,4985.9
498685,4986.85
498784,4987.84
498887,4988.87
498982,4989.82
499077,4990.77
499172,4991.72
499274,4992.74
499369,4993.69
499465,4994.65
499558,4995.58
499655,4996.55
499749,4997.49
499842,4998.42
499936,4999.36
500033,5000.33
500136,5001.36
500235,5002.35
500334,5003.34
500433,5004.33
500529,5005.29
500620,5006.2
500709,5007.09
500795,5007.95
500879,5008.79
500959,5009.59
501043,5010.43
501133,5011.33
501229,5012.29
501324,5013.24
501424,5014.24
501525,5015.25
501624,5016.24
501728,5017.28
501827,5018.27
501924,5019.24
502024,5020.24
502124,5021.24
502226,5022.26
502329,5023.29
502428,5024.28
502525,5025.25
502623,5026.23
502726,5027.26
502827,5028.27
502926,5029.26
503026,5030.26
503128,5031.28
503233,5032.33
503336,5033.36
503435,5034.35
503529,5035.29
503625,5036.25
503721,5037.21
503827,5038.27
503931,5039.31
504037,5040.37
504141,5041.41
504243,5042.43
504343,5043.43
504442,5044.42
504544,5045.44
504647,5046.47
504746,5047.46
504844,5048.44
504941,5049.41
505037,5050.37
505136,5051.36
505236,5052.36
505339,5053.39
505447,5054.47
505561,5055.61
505675,5056.75
505779,5057.79
505879,5058.79
505981,5059.81
506076,5060.76
506170,5061.7
506266,5062.66
506369,5063.69
506470,5064.7
506570,5065.7
506677,5066.77
506783,5067.83
506884,5068.84
506981,5069.81
507080,5070.8
507185,5071.85
507286,5072.86
507386,5073.86
507493,5074.93
507591,5075.91
507694,5076.94
507794,5077.94
507889,5078.89
507986,5079.86
508082,5080.82
508178,5081.78
508271,5082.71
508366,5083.66
508464,5084.64
508562,5085.62
508669,5086.69
508770,5087.7
508869,5088.69
508973,5089.73
509074,5090.74
509173,5091.73
509272,5092.72
509366,5093.66
509458,5094.58
509551,5095.51
509644,5096.44
509739,5097.39
509825,5098.25
509921,5099.21
510018,5100.18
510120,5101.2
510222,5102.22
510325,5103.25
510429,5104.29
510524,5105.24
510628,5106.28
510732,5107.32
510839,5108.39
510942,5109.42
511045,5110.45
511149,5111.49
511252,5112.52
511351,5113.51
511457,5114.57
511554,5115.54
511656,5116.56
511755,5117.55
511857,5118.57
511962,5119.62
512062,5120.62
512160,5121.6
512266,5122.66
512370,5123.7
512474,5124.74
512574,5125.74
512678,5126.78
512787,5127.87
512898,5128.98
513003,5130.03
513104,5131.04
513206,5132.06
513311,5133.11
513404,5134.04
513499,5134.99
513593,5135.93
513687,5136.87
513779,5137.79
513874,5138.74
513975,5139.75
514073,5140.73
514176,5141.76
514284,5142.84
514387,5143.87
514492,5144.92
514587,5145.87
514690,5146.9
514784,5147.84
514870,5148.7
514957,5149.57
515048,5150.48
515132,5151.32
515217,5152.17
515304,5153.04
515388,5153.88
515473,5154.73
515560,5155.6
515647,5156.47
515738,5157.38
515841,5158.41
515940,5159.4
516041,5160.41
516139,5161.39
516243,5162.43
516346,5163.46
516450,5164.5
516550,5165.5
516648,5166.48
516746,5167.46
516845,5168.45
516950,5169.5
517055,5170.55
517158,5171.58
517259,5172.59
517356,5173.56
517456,5174.56
517560,5175.6
517667,5176.67
517774,5177.74
517877,5178.77
517984,5179.84
518090,5180.9
518197,5181.97
518304,5183.04
518405,5184.05
518518,5185.18
518632,5186.32
518735,5187.35
518835,5188.35
518931,5189.31
519038,5190.38
519140,5191.4
519242,5192.42
519355,5193.55
519469,5194.69
519571,5195.71
519682,5196.82
519784,5197.84
519879,5198.79
519976,5199.76
520074,5200.74
520168,5201.68
520272,5202.72
520382,5203.82
520485,5204.85
520593,5205.93
520702,5207.02
520803,5208.03
520914,5209.14
521014,5210.14
521115,5211.15
521219,5212.19
521313,5213.13
521414,5214.14
521511,5215.11
521607,5216.07
521702,5217.02
521798,5217.98
521899,5218.99
521997,5219.97
522097,5220.97
522205,5222.05
522322,5223.22
522417,5224.17
522516,5225.16
522613,5226.13
522711,5227.11
522808,5228.08
522903,5229.03
522996,5229.96
523091,5230.91
523190,5231.9
523288,5232.88
523384,5233.84
523486,5234.86
523599,5235.99
523698,5236.98
523800,5238.0
523900,5239.0
524004,5240.04
524111,5241.11
524213,5242.13
524312,5243.12
524412,5244.12
524512,5245.12
524610,5246.1
524707,5247.07
524801,5248.01
524899,5248.99
524997,5249.97
525093,5250.93
525191,5251.91
525297,5252.97
525404,5254.04
525505,5255.05
525613,5256.13
525711,5257.11
525813,5258.13
525911,5259.11
526014,5260.14
526106,5261.06
526203,5262.03
526298,5262.98
526396,5263.96
526495,5264.95
526590,5265.9
526688,5266.88
526781,5267.81
526871,5268.71
526974,5269.74
527074,5270.74
527181,5271.81
527280,5272.8
527377,5273.77
527477,5274.77
527578,5275.78
527677,5276.77
527782,5277.82
527891,5278.91
527993,5279.93
528090,5280.9
528186,5281.86
528276,5282.76
528368,5283.68
528468,5284.68
528563,5285.63
528664,5286.64
528761,5287.61
528867,5288.67
528960,5289.6
529055,5290.55
529153,5291.53
529243,5292.43
529345,5293.45
529448,5294.48
529554,5295.54
529659,5296.59
529752,5297.52
529852,5298.52
529944,5299.44
530039,5300.39
530145,5301.45
530239,5302.39
530348,5303.48
530455,5304.55
530568,5305.68
530672,5306.72
530772,5307.72
530873,5308.73
530975,5309.75
531068,5310.68
531163,5311.63
531262,5312.62
531349,5313.49
531443,5314.43
531535,5315.35
531630,5316.3
531736,5317.36
531837,5318.37
531930,5319.3
532028,5320.28
532127,5321.27
532224,5322.24
532321,5323.21
532414,5324.14
532504,5325.04
532594,5325.94
532683,5326.83
532770,5327.7
532859,5328.59
532963,5329.63
533067,5330.67
533189,5331.89
533311,5333.11
533420,5334.2
533529,5335.29
533637,5336.37
533736,5337.36
533828,5338.28
533927,5339.27
534025,5340.25
534121,5341.21
534216,5342.16
534311,5343.11
534408,5344.08
534514,5345.14
534637,5346.37
534760,5347.6
534866,5348.66
534977,5349.77
535088,5350.88
535195,5351.95
535298,5352.98
535402,5354.02
535503,5355.03
535598,5355.98
535697,5356.97
535795,5357.95
535902,5359.02
536005,5360.05
536099,5360.99
536198,5361.98
536301,5363.01
536400,5364.0
536495,5364.95
536596,5365.96
536703,5367.03
536815,5368.15
536918,5369.18
537025,5370.25
537127,5371.27
537233,5372.33
537336,5373.36
537436,5374.36
537533,5375.33
537628,5376.28
537725,5377.25
537822,5378.22
537918,5379.18
538012,5380.12
538105,5381.05
538201,5382.01
538302,5383.02
538401,5384.01
538501,5385.01
538607,5386.07
538713,5387.13
538813,5388.13
538911,5389.11
539012,5390.12
539116,5391.16
539217,5392.17
539316,5393.16
539422,5394.22
539519,5395.19
539624,5396.24
539721,5397.21
539813,5398.13
539903,5399.03
539997,5399.97
540099,5400.99
540202,5402.02
540307,5403.07
540438,5404.38
540570,5405.7
540676,5406.76
540782,5407.82
540889,5408.89
540994,5409.94
541091,5410.91
541189,5411.89
541290,5412.9
541392,5413.92
541494,5414.94
541592,5415.92
541688,5416.88
541782,5417.82
541875,5418.75
541967,5419.67
542058,5420.58
542151,5421.51
542250,5422.5
542358,5423.58
542461,5424.61
542563,5425.63
542672,5426.72
542782,5427.82
542885,5428.85
542984,5429.84
543086,5430.86
543188,5431.88
543289,5432.89
543387,5433.87
543482,5434.82
543578,5435.78
543676,5436.76
543777,5437.77
543877,5438.77
543980,5439.8
544091,5440.91
544203,5442.03
544308,5443.08
544407,5444.07
544506,5445.06
544608,5446.08
544707,5447.07
544802,5448.02
544899,5448.99
545004,5450.04
545110,5451.1
545212,5452.12
545311,5453.11
545414,5454.14
545516,5455.16
545620,5456.2
545717,5457.17
545813,5458.13
545914,5459.14
546014,5460.14
546112,5461.12
546210,5462.1
546308,5463.08
546406,5464.06
546505,5465.05
546602,5466.02
546697,5466.97
546793,5467.93
546890,5468.9
546986,5469.86
547082,5470.82
547191,5471.91
547301,5473.01
547401,5474.01
547506,5475.06
547606,5476.06
547707,5477.07
547806,5478.06
547904,5479.04
548000,5480.0
548098,5480.98
548201,5482.01
548303,5483.03
548404,5484.04
548502,5485.02
548600,5486.0
548696,5486.96
548790,5487.9
548885,5488.85
548985,5489.85
549088,5490.88
549196,5491.96
549297,5492.97
549395,5493.95
549499,5494.99
549604,5496.04
549707,5497.07
549805,5498.05
549901,5499.01
550000,5500.0
550102,5501.02
550201,5502.01
550298,5502.98
550396,5503.96
550495,5504.95
550593,5505.93
550690,5506.9
550784,5507.84
550881,5508.81
550980,5509.8
551081,5510.81
551180,5511.8
551275,5512.75
551368,5513.68
551460,5514.6
551551,5515.51
551642,5516.42
551752,5517.52
551863,5518.63
551968,5519.68
552075,5520.75
552185,5521.85
552292,5522.92
552393,5523.93
552495,5524.95
552599,5525.99
552702,5527.02
552805,5528.05
552906,5529.06
553005,5530.05
553102,5531.02
553201,5532.01
553310,5533.1
553420,5534.2
553525,5535.25
553627,5536.27
553734,5537.34
553844,5538.44
553952,5539.52
554054,5540.54
554152,5541.52
554252,5542.52
554355,5543.55
554457,5544.57
554554,5545.54
554646,5546.46
554739,5547.39
554836,5548.36
554932,5549.32
555029,5550.29
555126,5551.26
555226,5552.26
555325,5553.25
555422,5554.22
555517,5555.17
555615,5556.15
555712,5557.12
555810,5558.1
555906,5559.06
556000,5560.0
556096,5560.96
556194,5561.94
556290,5562.9
556387,5563.87
556490,5564.9
556597,5565.97
556705,5567.05
556808,5568.08
556908,5569.08
557010,5570.1
557113,5571.13
557213,5572.13
557311,5573.11
557409,5574.09
557507,5575.07
557610,5576.1
557709,5577.09
557806,5578.06
557904,5579.04
558001,5580.01
558094,5580.94
558185,5581.85
558278,5582.78
558376,5583.76
558478,5584.78
558576,5585.76
558674,5586.74
558774,5587.74
558873,5588.73
558974,5589.74
559074,5590.74
559168,5591.68
559269,5592.69
559369,5593.69
559472,5594.72
559577,5595.77
559675,5596.75
559776,5597.76
559880,5598.8
559980,5599.8
560077,5600.77
560181,5601.81
560285,5602.85
560386,5603.86
560485,5604.85
560583,5605.83
560680,5606.8
560773,5607.73
560867,5608.67
560959,5609.59
561054,5610.54
561156,5611.56
561261,5612.61
561363,5613.63
561477,5614.77
561592,5615.92
561702,5617.02
561804,5618.04
561905,5619.05
562005,5620.05
562105,5621.05
562201,5622.01
562297,5622.97
562396,5623.96
562499,5624.99
562604,5626.04
562701,5627.01
562799,5627.99
562897,5628.97
562994,5629.94
563089,5630.89
563180,5631.8
563272,5632.72
563366,5633.66
563462,5634.62
563558,5635.58
563651,5636.51
563748,5637.48
563851,5638.51
563953,5639.53
564055,5640.55
564150,5641.5
564244,5642.44
564346,5643.46
564444,5644.44
564545,5645.45
564649,5646.49
564761,5647.61
564869,5648.69
564971,5649.71
565074,5650.74
565181,5651.81
565285,5652.85
565385,5653.85
565483,5654.83
565581,5655.81
565681,5656.81
565782,5657.82
565882,5658.82
565978,5659.78
566074,5660.74
566173,5661.73
566280,5662.8
566384,5663.84
566481,5664.81
566582,5665.82
566688,5666.88
566795,5667.95
566897,5668.97
566997,5669.97
567100,5671.0
567203,5672.03
567299,5672.99
567395,5673.95
567493,5674.93
567593,5675.93
567693,5676.93
567789,5677.89
567883,5678.83
567979,5679.79
568077,5680.77
568178,5681.78
568273,5682.73
568367,5683.67
568465,5684.65
568564,5685.64
568665,5686.65
568763,5687.63
568858,5688.58
568956,5689.56
569052,5690.52
569150,5691.5
569246,5692.46
569341,5693.41
569438,5694.38
569537,5695.37
569641,5696.41
569742,5697.42
569846,5698.46
569962,5699.62
570079,5700.79
570184,5701.84
570284,5702.84
570388,5703.88
570491,5704.91
570592,5705.92
570688,5706.88
570782,5707.82
570880,5708.8
570982,5709.82
571081,5710.81
571180,5711.8
571283,5712.83
571392,5713.92
571498,5714.98
571601,5716.01
571697,5716.97
571794,5717.94
571893,5718.93
571993,5719.93
572092,5720.92
572190,5721.9
572295,5722.95
572403,5724.03
572506,5725.06
572607,5726.07
572712,5727.12
572818,5728.18
572916,5729.16
573013,5730.13
573111,5731.11
573210,5732.1
573309,5733.09
573404,5734.04
573498,5734.98
573599,5735.99
573703,5737.03
573804,5738.04
573900,5739.0
573994,5739.94
574091,5740.91
574185,5741.85
574278,5742.78
574369,5743.69
574461,5744.61
574554,5745.54
574651,5746.51
574747,5747.47
574840,5748.4
574934,5749.34
575026,5750.26
575116,5751.16
575206,5752.06
575294,5752.94
575383,5753.83
575473,5754.73
575561,5755.61
575650,5756.5
575738,5757.38
575827,5758.27
575915,5759.15
576004,5760.04
576094,5760.94
576186,5761.86
576284,5762.84
576384,5763.84
576488,5764.88
576589,5765.89
576693,5766.93
576793,5767.93
576894,5768.94
576993,5769.93
577091,5770.91
577191,5771.91
577291,5772.91
577389,5773.89
577493,5774.93
577595,5775.95
577695,5776.95
577797,5777.97
577897,5778.97
577995,5779.95
578093,5780.93
578201,5782.01
578302,5783.02
578401,5784.01
578492,5784.92
578588,5785.88
578691,5786.91
578794,5787.94
578894,5788.94
579000,5790.0
579104,5791.04
579201,5792.01
579298,5792.98
579398,5793.98
579499,5794.99
579597,5795.97
579693,5796.93
579789,5797.89
579883,5798.83
579978,5799.78
580072,5800.72
580171,5801.71
580277,5802.77
580372,5803.72
580467,5804.67
580566,5805.66
580666,5806.66
580762,5807.62
580860,5808.6
580963,5809.63
581067,5810.67
581158,5811.58
581253,5812.53
581347,5813.47
581444,5814.44
581546,5815.46
581645,5816.45
581743,5817.43
581845,5818.45
581952,5819.52
582051,5820.51
582147,5821.47
582243,5822.43
582339,5823.39
582434,5824.34
582527,5825.27
582621,5826.21
582717,5827.17
582815,5828.15
582910,5829.1
583005,5830.05
583098,5830.98
583195,5831.95
583289,5832.89
583381,5833.81
583473,5834.73
583566,5835.66
583659,5836.59
583749,5837.49
583841,5838.41
583937,5839.37
584031,5840.31
584124,5841.24
584220,5842.2
584318,5843.18
584418,5844.18
584515,5845.15
584609,5846.09
584705,5847.05
584805,5848.05
584905,5849.05
585001,5850.01
585103,5851.03
585206,5852.06
585303,5853.03
585398,5853.98
585495,5854.95
585597,5855.97
585696,5856.96
585793,5857.93
585889,5858.89
585988,5859.88
586089,5860.89
586184,5861.84
586278,5862.78
586376,5863.76
586480,5864.8
586579,5865.79
586675,5866.75
586772,5867.72
586873,5868.73
586972,5869.72
587068,5870.68
587164,5871.64
587265,5872.65
587368,5873.68
587466,5874.66
587561,5875.61
587658,5876.58
587756,5877.56
587852,5878.52
587946,5879.46
588042,5880.42
588141,5881.41
588240,5882.4
588335,5883.35
588437,5884.37
588543,5885.43
588645,5886.45
588743,5887.43
588837,5888.37
588932,5889.32
589027,5890.27
589122,5891.22
589213,5892.13
589306,5893.06
589401,5894.01
589494,5894.94
589588,5895.88
589686,5896.86
589786,5897.86
589885,5898.85
589981,5899.81
590079,5900.79
590180,5901.8
590277,5902.77
590372,5903.72
590465,5904.65
590558,5905.58
590650,5906.5
590740,5907.4
590828,5908.28
590917,5909.17
591006,5910.06
591095,5910.95
591186,5911.86
591281,5912.81
591387,5913.87
591493,5914.93
591592,5915.92
591689,5916.89
591787,5917.87
591885,5918.85
591978,5919.78
592070,5920.7
592160,5921.6
592257,5922.57
592358,5923.58
592457,5924.57
592554,5925.54
592650,5926.5
592751,5927.51
592852,5928.52
592949,5929.49
593044,5930.44
593137,5931.37
593229,5932.29
593322,5933.22
593412,5934.12
593504,5935.04
593596,5935.96
593692,5936.92
593792,5937.92
593890,5938.9
593993,5939.93
594097,5940.97
594198,5941.98
594293,5942.93
594387,5943.87
594479,5944.79
594572,5945.72
594668,5946.68
594762,5947.62
594857,5948.57
594953,5949.53
595048,5950.48
595146,5951.46
595251,5952.51
595351,5953.51
595448,5954.48
595546,5955.46
595647,5956.47
595743,5957.43
595837,5958.37
595930,5959.3
596024,5960.24
596121,5961.21
596217,5962.17
596311,5963.11
596407,5964.07
596506,5965.06
596602,5966.02
596697,5966.97
596792,5967.92
596888,5968.88
596987,5969.87
597082,5970.82
597175,5971.75
597269,5972.69
597363,5973.63
597460,5974.6
597553,5975.53
597645,5976.45
597744,5977.44
597844,5978.44
597943,5979.43
598041,5980.41
598143,5981.43
598243,5982.43
598338,5983.38
598430,5984.3
598524,5985.24
598620,5986.2
598719,5987.19
598817,5988.17
598915,5989.15
599014,5990.14
599114,5991.14
599212,5992.12
599308,5993.08
599407,5994.07
599506,5995.06
599607,5996.07
599704,5997.04
599800,5998.0
599900,5999.0
600004,6000.04
600103,6001.03
600200,6002.0
600297,6002.97
600397,6003.97
600498,6004.98
600594,6005.94
600691,6006.91
600788,6007.88
600885,6008.85
600979,6009.79
601072,6010.72
601166,6011.66
601264,6012.64
601365,6013.65
601467,6014.67
601563,6015.63
601659,6016.59
601756,6017.56
601851,6018.51
601944,6019.44
602037,6020.37
602133,6021.33
602230,6022.3
602326,6023.26
602421,6024.21
602519,6025.19
602617,6026.17
602714,6027.14
602808,6028.08
602902,6029.02
602998,6029.98
603094,6030.94
603188,6031.88
603282,6032.82
603380,6033.8
603480,6034.8
603577,6035.77
603671,6036.71
603769,6037.69
603868,6038.68
603966,6039.66
604059,6040.59
604151,6041.51
604244,6042.44
604337,6043.37
604429,6044.29
604520,6045.2
604612,6046.12
604706,6047.06
604799,6047.99
604894,6048.94
604993,6049.93
605100,6051.0
605201,6052.01
605303,6053.03
605398,6053.98
605496,6054.96
605590,6055.9
605684,6056.84
605778,6057.78
605875,6058.75
605971,6059.71
606065,6060.65
606160,6061.6
606259,6062.59
606362,6063.62
606460,6064.6
606555,6065.55
606651,6066.51
606748,6067.48
606847,6068.47
606940,6069.4
607035,6070.35
607132,6071.32
607233,6072.33
607333,6073.33
607428,6074.28
607523,6075.23
607623,6076.23
607723,6077.23
607820,6078.2
607916,6079.16
608017,6080.17
608119,6081.19
608217,6082.17
608315,6083.15
608413,6084.13
608513,6085.13
608614,6086.14
608710,6087.1
608805,6088.05
608905,6089.05
609007,6090.07
609102,6091.02
609195,6091.95
609287,6092.87
609382,6093.82
609478,6094.78
609569,6095.69
609659,6096.59
609747,6097.47
609838,6098.38
609929,6099.29
610023,6100.23
610120,6101.2
610225,6102.25
610331,6103.31
610430,6104.3
610528,6105.28
610629,6106.29
610730,6107.3
610826,6108.26
610919,6109.19
611014,6110.14
611110,6111.1
611212,6112.12
611309,6113.09
611403,6114.03
611500,6115.0
611600,6116.0
611698,6116.98
611794,6117.94
611891,6118.91
611991,6119.91
612089,6120.89
612183,6121.83
612276,6122.76
612370,6123.7
612466,6124.66
612561,6125.61
612658,6126.58
612753,6127.53
612851,6128.51
612950,6129.5
613045,6130.45
613139,6131.39
613234,6132.34
613328,6133.28
613420,6134.2
613510,6135.1
613599,6135.99
613690,6136.9
613783,6137.83
613876,6138.76
613970,6139.7
614065,6140.65
614161,6141.61
614260,6142.6
614353,6143.53
614447,6144.47
614548,6145.48
614652,6146.52
614752,6147.52
614849,6148.49
614951,6149.51
615052,6150.52
615151,6151.51
615248,6152.48
615345,6153.45
615445,6154.45
615547,6155.47
615642,6156.42
615738,6157.38
615833,6158.33
615933,6159.33
616030,6160.3
616128,6161.28
616222,6162.22
616318,6163.18
616410,6164.1
616504,6165.04
616598,6165.98
616698,6166.98
616805,6168.05
616912,6169.12
617009,6170.09
617108,6171.08
617207,6172.07
617305,6173.05
617400,6174.0
617492,6174.92
617590,6175.9
617688,6176.88
617784,6177.84
617878,6178.78
617974,6179.74
618075,6180.75
618180,6181.8
618277,6182.77
618375,6183.75
618475,6184.75
618578,6185.78
618678,6186.78
618772,6187.72
618867,6188.67
618969,6189.69
619071,6190.71
619169,6191.69
619265,6192.65
619363,6193.63
619465,6194.65
619566,6195.66
619660,6196.6
619755,6197.55
619850,6198.5
619949,6199.49
620045,6200.45
620141,6201.41
620238,6202.38
620339,6203.39
620442,6204.42
620541,6205.41
620637,6206.37
620736,6207.36
620837,6208.37
620936,6209.36
621032,6210.32
621128,6211.28
621227,6212.27
621324,6213.24
621418,6214.18
621510,6215.1
621602,6216.02
621697,6216.97
621791,6217.91
621884,6218.84
621976,6219.76
622071,6220.71
622167,6221.67
622262,6222.62
622353,6223.53
622445,6224.45
622541,6225.41
622639,6226.39
622735,6227.35
622830,6228.3
622932,6229.32
623034,6230.34
623136,6231.36
623234,6232.34
623328,6233.28
623423,6234.23
623521,6235.21
623619,6236.19
623714,6237.14
623807,6238.07
623906,6239.06
624008,6240.08
624107,6241.07
624203,6242.03
624299,6242.99
624402,6244.02
624505,6245.05
624602,6246.02
624696,6246.96
624793,6247.93
624889,6248.89
624982,6249.82
625075,6250.75
625167,6251.67
625261,6252.61
625357,6253.57
625452,6254.52
625544,6255.44
625635,6256.35
625734,6257.34
625831,6258.31
625926,6259.26
626020,6260.2
626114,6261.14
626212,6262.12
626307,6263.07
626403,6264.03
626500,6265.0
626594,6265.94
626690,6266.9
626781,6267.81
626873,6268.73
626964,6269.64
627054,6270.54
627144,6271.44
627234,6272.34
627324,6273.24
627417,6274.17
627511,6275.11
627607,6276.07
627702,6277.02
627799,6277.99
627898,6278.98
627995,6279.95
628091,6280.91
628193,6281.93
628292,6282.92
628390,6283.9
628485,6284.85
628579,6285.79
628678,6286.78
628780,6287.8
628876,6288.76
628970,6289.7
629066,6290.66
629164,6291.64
629262,6292.62
629359,6293.59
629452,6294.52
629549,6295.49
629644,6296.44
629737,6297.37
629830,6298.3
629922,6299.22
630021,6300.21
630123,6301.23
630220,6302.2
630315,6303.15
630412,6304.12
630510,6305.1
630607,6306.07
630702,6307.02
630796,6307.96
630889,6308.89
630987,6309.87
631081,6310.81
631174,6311.74
631267,6312.67
631365,6313.65
631461,6314.61
631552,6315.52
631643,6316.43
631735,6317.35
631830,6318.3
631926,6319.26
632017,6320.17
632109,6321.09
632202,6322.02
632305,6323.05
632401,6324.01
632494,6324.94
632582,6325.82
632666,6326.66
632750,6327.5
632835,6328.35
632920,6329.2
633003,6330.03
633084,6330.84
633157,6331.57
633230,6332.3
633314,6333.14
633399,6333.99
633473,6334.73
633548,6335.48
633622,6336.22
633696,6336.96
633770,6337.7
633843,6338.43
633916,6339.16
633988,6339.88
634060,6340.6
634132,6341.32
634203,6342.03
634274,6342.74
634344,6343.44
634416,6344.16
634487,6344.87
634559,6345.59
634633,6346.33
634709,6347.09
634787,6347.87
634866,6348.66
634947,6349.47
635030,6350.3
635114,6351.14
635199,6351.99
635286,6352.86
635381,6353.81
635490,6354.9
635593,6355.93
635701,6357.01
635806,6358.06
635912,6359.12
636021,6360.21
636125,6361.25
636218,6362.18
636306,6363.06
636390,6363.9
636469,6364.69
636547,6365.47
636624,6366.24
636700,6367.0
636779,6367.79
636860,6368.6
636940,6369.4
637018,6370.18
637099,6370.99
637179,6371.79
637258,6372.58
637336,6373.36
637412,6374.12
637489,6374.89
637564,6375.64
637639,6376.39
637707,6377.07
637775,6377.75
637854,6378.54
637934,6379.34
638007,6380.07
638082,6380.82
638160,6381.6
638241,6382.41
638325,6383.25
638409,6384.09
638488,6384.88
638570,6385.7
638651,6386.51
638733,6387.33
638814,6388.14
638897,6388.97
638982,6389.82
639068,6390.68
639152,6391.52
639236,6392.36
639318,6393.18
639401,6394.01
639486,6394.86
639572,6395.72
639655,6396.55
639739,6397.39
639822,6398.22
639905,6399.05
639988,6399.88
640071,6400.71
640157,6401.57
640239,6402.39
640322,6403.22
640407,6404.07
640497,6404.97
640594,6405.94
640702,6407.02
640823,6408.23
640944,6409.44
641052,6410.52
641163,6411.63
641272,6412.72
641381,6413.81
641488,6414.88
641596,6415.96
641706,6417.06
641818,6418.18
641921,6419.21
642025,6420.25
642132,6421.32
642232,6422.32
642335,6423.35
642452,6424.52
642563,6425.63
642661,6426.61
642758,6427.58
642862,6428.62
642963,6429.63
643059,6430.59
643155,6431.55
643257,6432.57
643353,6433.53
643445,6434.45
643538,6435.38
643626,6436.26
643722,6437.22
643813,6438.13
643904,6439.04
644002,6440.02
644101,6441.01
644200,6442.0
644296,6442.96
644402,6444.02
644497,6444.97
644603,6446.03
644699,6446.99
644793,6447.93
644895,6448.95
644989,6449.89
645093,6450.93
645189,6451.89
645285,6452.85
645380,6453.8
645486,6454.86
645588,6455.88
645686,6456.86
645795,6457.95
645897,6458.97
645994,6459.94
646091,6460.91
646194,6461.94
646297,6462.97
646393,6463.93
646490,6464.9
646593,6465.93
646695,6466.95
646791,6467.91
646889,6468.89
646981,6469.81
647085,6470.85
647183,6471.83
647285,6472.85
647388,6473.88
647492,6474.92
647592,6475.92
647682,6476.82
647776,6477.76
647874,6478.74
647972,6479.72
648067,6480.67
648162,6481.62
648270,6482.7
648376,6483.76
648483,6484.83
648581,6485.81
648679,6486.79
648783,6487.83
648892,6488.92
648990,6489.9
649085,6490.85
649188,6491.88
649290,6492.9
649388,6493.88
649481,6494.81
649574,6495.74
649666,6496.66
649769,6497.69
649872,6498.72
649969,6499.69
650080,6500.8
650188,6501.88
650289,6502.89
650385,6503.85
650485,6504.85
650585,6505.85
650684,6506.84
650773,6507.73
650869,6508.69
650968,6509.68
651068,6510.68
651163,6511.63
651257,6512.57
651361,6513.61
651470,6514.7
651571,6515.71
651667,6516.67
651762,6517.62
651861,6518.61
651968,6519.68
652069,6520.69
652166,6521.66
652262,6522.62
652366,6523.66
652471,6524.71
652569,6525.69
652664,6526.64
652764,6527.64
652863,6528.63
652961,6529.61
653056,6530.56
653150,6531.5
653245,6532.45
653341,6533.41
653436,6534.36
653532,6535.32
653634,6536.34
653740,6537.4
653844,6538.44
653941,6539.41
654039,6540.39
654143,6541.43
654245,6542.45
654341,6543.41
654436,6544.36
654536,6545.36
654634,6546.34
654729,6547.29
654823,6548.23
654920,6549.2
655021,6550.21
655134,6551.34
655230,6552.3
655326,6553.26
655421,6554.21
655522,6555.22
655616,6556.16
655710,6557.1
655803,6558.03
655898,6558.98
656000,6560.0
656094,6560.94
656189,6561.89
656293,6562.93
656400,6564.0
656501,6565.01
656596,6565.96
656695,6566.95
656797,6567.97
656898,6568.98
656994,6569.94
657086,6570.86
657183,6571.83
657284,6572.84
657384,6573.84
657482,6574.82
657583,6575.83
657687,6576.87
657785,6577.85
657880,6578.8
657982,6579.82
658088,6580.88
658191,6581.91
658289,6582.89
658382,6583.82
658480,6584.8
658580,6585.8
658676,6586.76
658767,6587.67
658858,6588.58
658951,6589.51
659046,6590.46
659145,6591.45
659238,6592.38
659330,6593.3
659426,6594.26
659527,6595.27
659626,6596.26
659720,6597.2
659813,6598.13
659911,6599.11
660012,6600.12
660106,6601.06
660198,6601.98
660294,6602.94
660392,6603.92
660490,6604.9
660584,6605.84
660675,6606.75
660770,6607.7
660865,6608.65
660962,6609.62
661058,6610.58
661152,6611.52
661252,6612.52
661356,6613.56
661454,6614.54
661547,6615.47
661639,6616.39
661733,6617.33
661834,6618.34
661937,6619.37
662034,6620.34
662130,6621.3
662226,6622.26
662324,6623.24
662419,6624.19
662514,6625.14
662610,6626.1
662713,6627.13
662817,6628.17
662914,6629.14
663008,6630.08
663105,6631.05
663202,6632.02
663301,6633.01
663395,6633.95
663488,6634.88
663585,6635.85
663682,6636.82
663777,6637.77
663871,6638.71
663966,6639.66
664061,6640.61
664161,6641.61
664261,6642.61
664356,6643.56
664453,6644.53
664553,6645.53
664653,6646.53
664747,6647.47
664840,6648.4
664937,6649.37
665035,6650.35
665129,6651.29
665222,6652.22
665312,6653.12
665409,6654.09
665509,6655.09
665607,6656.07
665702,6657.02
665798,6657.98
665897,6658.97
665998,6659.98
666092,6660.92
666185,6661.85
666280,6662.8
666381,6663.81
666480,6664.8
666575,6665.75
666667,6666.67
666763,6667.63
666860,6668.6
666954,6669.54
667048,6670.48
667139,6671.39
667235,6672.35
667334,6673.34
667429,6674.29
667524,6675.24
667620,6676.2
667718,6677.18
667818,6678.18
667914,6679.14
668007,6680.07
668108,6681.08
668209,6682.09
668310,6683.1
668405,6684.05
668498,6684.98
668595,6685.95
668696,6686.96
668792,6687.92
668885,6688.85
668978,6689.78
669075,6690.75
669174,6691.74
669269,6692.69
669362,6693.62
669454,6694.54
669548,6695.48
669642,6696.42
669735,6697.35
669824,6698.24
669912,6699.12
670003,6700.03
670097,6700.97
670190,6701.9
670282,6702.82
670373,6703.73
670468,6704.68
670567,6705.67
670660,6706.6
670751,6707.51
670844,6708.44
670938,6709.38
671033,6710.33
671124,6711.24
671215,6712.15
671307,6713.07
671406,6714.06
671504,6715.04
671597,6715.97
671688,6716.88
671781,6717.81
671877,6718.77
671971,6719.71
672062,6720.62
672152,6721.52
672248,6722.48
672349,6723.49
672450,6724.5
672542,6725.42
672638,6726.38
672736,6727.36
672831,6728.31
672925,6729.25
673018,6730.18
673112,6731.12
673210,6732.1
673303,6733.03
673395,6733.95
673489,6734.89
673584,6735.84
673685,6736.85
673781,6737.81
673876,6738.76
673973,6739.73
674074,6740.74
674171,6741.71
674265,6742.65
674357,6743.57
674450,6744.5
674542,6745.42
674632,6746.32
674722,6747.22
674811,6748.11
674908,6749.08
675005,6750.05
675104,6751.04
675200,6752.0
675294,6752.94
675394,6753.94
675497,6754.97
675598,6755.98
675696,6756.96
675791,6757.91
675892,6758.92
675994,6759.94
676092,6760.92
676184,6761.84
676275,6762.75
676369,6763.69
676468,6764.68
676563,6765.63
676657,6766.57
676750,6767.5
676847,6768.47
676945,6769.45
677040,6770.4
677132,6771.32
677228,6772.28
677324,6773.24
677420,6774.2
677514,6775.14
677606,6776.06
677702,6777.02
677800,6778.0
677896,6778.96
677989,6779.89
678081,6780.81
678176,6781.76
678271,6782.71
678361,6783.61
678452,6784.52
678547,6785.47
678644,6786.44
678737,6787.37
678828,6788.28
678919,6789.19
679014,6790.14
679108,6791.08
679201,6792.01
679291,6792.91
679387,6793.87
679488,6794.88
679586,6795.86
679683,6796.83
679778,6797.78
679876,6798.76
679973,6799.73
680067,6800.67
680161,6801.61
680255,6802.55
680354,6803.54
680456,6804.56
680553,6805.53
680648,6806.48
680752,6807.52
680857,6808.57
680960,6809.6
681056,6810.56
681149,6811.49
681245,6812.45
681342,6813.42
681438,6814.38
681532,6815.32
681622,6816.22
681716,6817.16
681813,6818.13
681912,6819.12
682007,6820.07
682098,6820.98
682195,6821.95
682291,6822.91
682391,6823.91
682486,6824.86
682578,6825.78
682674,6826.74
682773,6827.73
682870,6828.7
682963,6829.63
683053,6830.53
683148,6831.48
683244,6832.44
683339,6833.39
683432,6834.32
683525,6835.25
683623,6836.23
683720,6837.2
683813,6838.13
683903,6839.03
683995,6839.95
684088,6840.88
684182,6841.82
684272,6842.72
684361,6843.61
684453,6844.53
684549,6845.49
684647,6846.47
684742,6847.42
684835,6848.35
684930,6849.3
685027,6850.27
685126,6851.26
685220,6852.2
685311,6853.11
685405,6854.05
685500,6855.0
685596,6855.96
685689,6856.89
685780,6857.8
685873,6858.73
685968,6859.68
686061,6860.61
686153,6861.53
686242,6862.42
686336,6863.36
686432,6864.32
686525,6865.25
686616,6866.16
686710,6867.1
686808,6868.08
686910,6869.1
687004,6870.04
687097,6870.97
687189,6871.89
687285,6872.85
687382,6873.82
687475,6874.75
687566,6875.66
687658,6876.58
687754,6877.54
687851,6878.51
687944,6879.44
688036,6880.36
688132,6881.32
688230,6882.3
688329,6883.29
688423,6884.23
688515,6885.15
688615,6886.15
688714,6887.14
688807,6888.07
688899,6888.99
688989,6889.89
689084,6890.84
689184,6891.84
689281,6892.81
689375,6893.75
689468,6894.68
689565,6895.65
689660,6896.6
689751,6897.51
689843,6898.43
689936,6899.36
690034,6900.34
690134,6901.34
690227,6902.27
690318,6903.18
690410,6904.1
690505,6905.05
690601,6906.01
690692,6906.92
690783,6907.83
690874,6908.74
690968,6909.68
691065,6910.65
691159,6911.59
691252,6912.52
691348,6913.48
691444,6914.44
691543,6915.43
691636,6916.36
691727,6917.27
691821,6918.21
691916,6919.16
692012,6920.12
692103,6921.03
692193,6921.93
692283,6922.83
692375,6923.75
692467,6924.67
692557,6925.57
692646,6926.46
692737,6927.37
692831,6928.31
692928,6929.28
693022,6930.22
693116,6931.16
693212,6932.12
693312,6933.12
693413,6934.13
693505,6935.05
693598,6935.98
693696,6936.96
693795,6937.95
693887,6938.87
693977,6939.77
694069,6940.69
694167,6941.67
694262,6942.62
694352,6943.52
694448,6944.48
694547,6945.47
694644,6946.44
694736,6947.36
694829,6948.29
694927,6949.27
695028,6950.28
695124,6951.24
695215,6952.15
695309,6953.09
695405,6954.05
695501,6955.01
695594,6955.94
695685,6956.85
695779,6957.79
695879,6958.79
695980,6959.8
696072,6960.72
696163,6961.63
696255,6962.55
696351,6963.51
696442,6964.42
696533,6965.33
696623,6966.23
696719,6967.19
696817,6968.17
696913,6969.13
697012,6970.12
697108,6971.08
697207,6972.07
697307,6973.07
697402,6974.02
697493,6974.93
697587,6975.87
697688,6976.88
697789,6977.89
697883,6978.83
697974,6979.74
698069,6980.69
698166,6981.66
698265,6982.65
698358,6983.58
698450,6984.5
698545,6985.45
698642,6986.42
698737,6987.37
698829,6988.29
698923,6989.23
699019,6990.19
699118,6991.18
699212,6992.12
699304,6993.04
699401,6994.01
699498,6994.98
699595,6995.95
699688,6996.88
699778,6997.78
699870,6998.7
699968,6999.68
700066,7000.66
700163,7001.63
700257,7002.57
700357,7003.57
700459,7004.59
700558,7005.58
700651,7006.51
700743,7007.43
700840,7008.4
700938,7009.38
701032,7010.32
701124,7011.24
701216,7012.16
701312,7013.12
701413,7014.13
701509,7015.09
701602,7016.02
701695,7016.95
701792,7017.92
701885,7018.85
701977,7019.77
702068,7020.68
702162,7021.62
702258,7022.58
702349,7023.49
702440,7024.4
702534,7025.34
702631,7026.31
702731,7027.31
702824,7028.24
702917,7029.17
703012,7030.12
703107,7031.07
703205,7032.05
703299,7032.99
703392,7033.92
703490,7034.9
703588,7035.88
703684,7036.84
703777,7037.77
703873,7038.73
703972,7039.72
704072,7040.72
704167,7041.67
704259,7042.59
704348,7043.48
704440,7044.4
704540,7045.4
704639,7046.39
704733,7047.33
704826,7048.26
704924,7049.24
705021,7050.21
705115,7051.15
705207,7052.07
705298,7052.98
705393,7053.93
705492,7054.92
705589,7055.89
705684,7056.84
705780,7057.8
705878,7058.78
705976,7059.76
706071,7060.71
706162,7061.62
706253,7062.53
706350,7063.5
706447,7064.47
706541,7065.41
706633,7066.33
706732,7067.32
706834,7068.34
706931,7069.31
707025,7070.25
707117,7071.17
707213,7072.13
707313,7073.13
707407,7074.07
707499,7074.99
707589,7075.89
707685,7076.85
707781,7077.81
707875,7078.75
707967,7079.67
708057,7080.57
708152,7081.52
708248,7082.48
708343,7083.43
708433,7084.33
708522,7085.22
708616,7086.16
708712,7087.12
708805,7088.05
708896,7088.96
708989,7089.89
709084,7090.84
709177,7091.77
709267,7092.67
709356,7093.56
709446,7094.46
709542,7095.42
709639,7096.39
709732,7097.32
709823,7098.23
709919,7099.19
710018,7100.18
710115,7101.15
710210,7102.1
710302,7103.02
710397,7103.97
710495,7104.95
710590,7105.9
710684,7106.84
710777,7107.77
710877,7108.77
710976,7109.76
711075,7110.75
711169,7111.69
711264,7112.64
711361,7113.61
711462,7114.62
711567,7115.67
711665,7116.65
711760,7117.6
711858,7118.58
711960,7119.6
712061,7120.61
712156,7121.56
712248,7122.48
712343,7123.43
712442,7124.42
712542,7125.42
712636,7126.36
712727,7127.27
712823,7128.23
712922,7129.22
713016,7130.16
713107,7131.07
713200,7132.0
713295,7132.95
713389,7133.89
713482,7134.82
713573,7135.73
713669,7136.69
713768,7137.68
713865,7138.65
713957,7139.57
714049,7140.49
714144,7141.44
714241,7142.41
714340,7143.4
714436,7144.36
714529,7145.29
714627,7146.27
714726,7147.26
714822,7148.22
714915,7149.15
715007,7150.07
715104,7151.04
715210,7152.1
715311,7153.11
715407,7154.07
715502,7155.02
715601,7156.01
715701,7157.01
715796,7157.96
715889,7158.89
715982,7159.82
716077,7160.77
716173,7161.73
716266,7162.66
716356,7163.56
716450,7164.5
716546,7165.46
716640,7166.4
716731,7167.31
716821,7168.21
716916,7169.16
717018,7170.18
717115,7171.15
717210,7172.1
717311,7173.11
717411,7174.11
717508,7175.08
717602,7176.02
717692,7176.92
717785,7177.85
717880,7178.8
717974,7179.74
718064,7180.64
718156,7181.56
718250,7182.5
718346,7183.46
718438,7184.38
718530,7185.3
718623,7186.23
718724,7187.24
718819,7188.19
718912,7189.12
719004,7190.04
719100,7191.0
719200,7192.0
719295,7192.95
719387,7193.87
719477,7194.77
719569,7195.69
719665,7196.65
719756,7197.56
719846,7198.46
719937,7199.37
720031,7200.31
720124,7201.24
720215,7202.15
720305,7203.05
720396,7203.96
720492,7204.92
720587,7205.87
720680,7206.8
720772,7207.72
720865,7208.65
720959,7209.59
721057,7210.57
721149,7211.49
721240,7212.4
721335,7213.35
721431,7214.31
721529,7215.29
721622,7216.22
721714,7217.14
721809,7218.09
721909,7219.09
722005,7220.05
722100,7221.0
722197,7221.97
722296,7222.96
722398,7223.98
722495,7224.95
722588,7225.88
722684,7226.84
722783,7227.83
722880,7228.8
722974,7229.74
723070,7230.7
723169,7231.69
723269,7232.69
723365,7233.65
723458,7234.58
723553,7235.53
723651,7236.51
723751,7237.51
723845,7238.45
723937,7239.37
724033,7240.33
724129,7241.29
724224,7242.24
724315,7243.15
724406,7244.06
724501,7245.01
724599,7245.99
724697,7246.97
724791,7247.91
724882,7248.82
724977,7249.77
725079,7250.79
725175,7251.75
725269,7252.69
725362,7253.62
725461,7254.61
725561,7255.61
725655,7256.55
725749,7257.49
725843,7258.43
725941,7259.41
726043,7260.43
726138,7261.38
726230,7262.3
726327,7263.27
726424,7264.24
726518,7265.18
726609,7266.09
726699,7266.99
726793,7267.93
726889,7268.89
726981,7269.81
727071,7270.71
727164,7271.64
727258,7272.58
727357,7273.57
727453,7274.53
727544,7275.44
727640,7276.4
727739,7277.39
727836,7278.36
727930,7279.3
728024,7280.24
728121,7281.21
728220,7282.2
728316,7283.16
728407,7284.07
728497,7284.97
728591,7285.91
728686,7286.86
728782,7287.82
728877,7288.77
728972,7289.72
729068,7290.68
729167,7291.67
729261,7292.61
729352,7293.52
729444,7294.44
729539,7295.39
729635,7296.35
729730,7297.3
729822,7298.22
729920,7299.2
730022,7300.22
730120,7301.2
730214,7302.14
730309,7303.09
730407,7304.07
730505,7305.05
730598,7305.98
730689,7306.89
730783,7307.83
730880,7308.8
730980,7309.8
731074,7310.74
731165,7311.65
731259,7312.59
731355,7313.55
731449,7314.49
731540,7315.4
731630,7316.3
731723,7317.23
731821,7318.21
731914,7319.14
732004,7320.04
732094,7320.94
732187,7321.87
732281,7322.81
732372,7323.72
732466,7324.66
732564,7325.64
732665,7326.65
732766,7327.66
732859,7328.59
732952,7329.52
733043,7330.43
733139,7331.39
733230,7332.3
733320,7333.2
733411,7334.11
733507,7335.07
733603,7336.03
733696,7336.96
733787,7337.87
733883,7338.83
733981,7339.81
734075,7340.75
734167,7341.67
734257,7342.57
734351,7343.51
734449,7344.49
734548,7345.48
734641,7346.41
734732,7347.32
734827,7348.27
734924,7349.24
735020,7350.2
735113,7351.13
735206,7352.06
735298,7352.98
735395,7353.95
735490,7354.9
735582,7355.82
735673,7356.73
735766,7357.66
735861,7358.61
735952,7359.52
736040,7360.4
736128,7361.28
736219,7362.19
736315,7363.15
736411,7364.11
736504,7365.04
736595,7365.95
736687,7366.87
736782,7367.82
736878,7368.78
736970,7369.7
737060,7370.6
737154,7371.54
737252,7372.52
737348,7373.48
737441,7374.41
737531,7375.31
737627,7376.27
737725,7377.25
737823,7378.23
737915,7379.15
738006,7380.06
738101,7381.01
738198,7381.98
738292,7382.92
738385,7383.85
738477,7384.77
738572,7385.72
738670,7386.7
738763,7387.63
738853,7388.53
738947,7389.47
739042,7390.42
739139,7391.39
739230,7392.3
739321,7393.21
739414,7394.14
739510,7395.1
739607,7396.07
739700,7397.0
739791,7397.91
739885,7398.85
739982,7399.82
740080,7400.8
740171,7401.71
740262,7402.62
740355,7403.55
740452,7404.52
740544,7405.44
740635,7406.35
740724,7407.24
740818,7408.18
740916,7409.16
741009,7410.09
741100,7411.0
741193,7411.93
741289,7412.89
741385,7413.85
741477,7414.77
741566,7415.66
741660,7416.6
741755,7417.55
741848,7418.48
741938,7419.38
742032,7420.32
742135,7421.35
742234,7422.34
742328,7423.28
742420,7424.2
742514,7425.14
742607,7426.07
742700,7427.0
742791,7427.91
742882,7428.82
742973,7429.73
743065,7430.65
743161,7431.61
743255,7432.55
743347,7433.47
743440,7434.4
743536,7435.36
743635,7436.35
743729,7437.29
743822,7438.22
743916,7439.16
744017,7440.17
744121,7441.21
744215,7442.15
744307,7443.07
744402,7444.02
744501,7445.01
744600,7446.0
744696,7446.96
744788,7447.88
744884,7448.84
744985,7449.85
745085,7450.85
745179,7451.79
745273,7452.73
745370,7453.7
745470,7454.7
745572,7455.72
745667,7456.67
745759,7457.59
745852,7458.52
745947,7459.47
746049,7460.49
746145,7461.45
746235,7462.35
746326,7463.26
746420,7464.2
746515,7465.15
746611,7466.11
746707,7467.07
746808,7468.08
746916,7469.16
747018,7470.18
747115,7471.15
747213,7472.13
747316,7473.16
747416,7474.16
747510,7475.1
747601,7476.01
747696,7476.96
747792,7477.92
747888,7478.88
747979,7479.79
748071,7480.71
748166,7481.66
748263,7482.63
748358,7483.58
748451,7484.51
748543,7485.43
748639,7486.39
748739,7487.39
748833,7488.33
748924,7489.24
749012,7490.12
749101,7491.01
749194,7491.94
749287,7492.87
749380,7493.8
749476,7494.76
749577,7495.77
749674,7496.74
749769,7497.69
749863,7498.63
749964,7499.64
750065,7500.65
750161,7501.61
750256,7502.56
750350,7503.5
750454,7504.54
750555,7505.55
750653,7506.53
750749,7507.49
750848,7508.48
750951,7509.51
751050,7510.5
751144,7511.44
751238,7512.38
751335,7513.35
751435,7514.35
751537,7515.37
751630,7516.3
751721,7517.21
751816,7518.16
751911,7519.11
752009,7520.09
752102,7521.02
752196,7521.96
752291,7522.91
752390,7523.9
752485,7524.85
752579,7525.79
752672,7526.72
752766,7527.66
752860,7528.6
752951,7529.51
753040,7530.4
753129,7531.29
753221,7532.21
753318,7533.18
753418,7534.18
753514,7535.14
753609,7536.09
753707,7537.07
753808,7538.08
753906,7539.06
754000,7540.0
754093,7540.93
754190,7541.9
754288,7542.88
754383,7543.83
754477,7544.77
754573,7545.73
754671,7546.71
754774,7547.74
754869,7548.69
754960,7549.6
755052,7550.52
755150,7551.5
755248,7552.48
755341,7553.41
755432,7554.32
755526,7555.26
755628,7556.28
755725,7557.25
755821,7558.21
755914,7559.14
756011,7560.11
756111,7561.11
756209,7562.09
756301,7563.01
756388,7563.88
756485,7564.85
756584,7565.84
756682,7566.82
756775,7567.75
756867,7568.67
756969,7569.69
757069,7570.69
757163,7571.63
757254,7572.54
757346,7573.46
757442,7574.42
757540,7575.4
757635,7576.35
757728,7577.28
757827,7578.27
757925,7579.25
758024,7580.24
758118,7581.18
758209,7582.09
758304,7583.04
758400,7584.0
758501,7585.01
758596,7585.96
758691,7586.91
758789,7587.89
758891,7588.91
758992,7589.92
759087,7590.87
759178,7591.78
759273,7592.73
759369,7593.69
759466,7594.66
759558,7595.58
759648,7596.48
759745,7597.45
759846,7598.46
759944,7599.44
760037,7600.37
760131,7601.31
760227,7602.27
760321,7603.21
760411,7604.11
760501,7605.01
760591,7605.91
760685,7606.85
760777,7607.77
760870,7608.7
760964,7609.64
761064,7610.64
761161,7611.61
761258,7612.58
761351,7613.51
761441,7614.41
761535,7615.35
761630,7616.3
761725,7617.25
761816,7618.16
761907,7619.07
761999,7619.99
762094,7620.94
762190,7621.9
762283,7622.83
762374,7623.74
762467,7624.67
762568,7625.68
762663,7626.63
762758,7627.58
762851,7628.51
762944,7629.44
763042,7630.42
763134,7631.34
763225,7632.25
763317,7633.17
763413,7634.13
763519,7635.19
763618,7636.18
763714,7637.14
763812,7638.12
763912,7639.12
764011,7640.11
764105,7641.05
764196,7641.96
764290,7642.9
764385,7643.85
764482,7644.82
764574,7645.74
764665,7646.65
764758,7647.58
764854,7648.54
764948,7649.48
765040,7650.4
765131,7651.31
765227,7652.27
765323,7653.23
765417,7654.17
765509,7655.09
765600,7656.0
765694,7656.94
765790,7657.9
765881,7658.81
765971,7659.71
766062,7660.62
766156,7661.56
766251,7662.51
766342,7663.42
766433,7664.33
766524,7665.24
766618,7666.18
766718,7667.18
766813,7668.13
766904,7669.04
766995,7669.95
767090,7670.9
767188,7671.88
767283,7672.83
767376,7673.76
767471,7674.71
767572,7675.72
767670,7676.7
767763,7677.63
767853,7678.53
767949,7679.49
768046,7680.46
768143,7681.43
768236,7682.36
768327,7683.27
768422,7684.22
768518,7685.18
768611,7686.11
768702,7687.02
768791,7687.91
768883,7688.83
768978,7689.78
769074,7690.74
769165,7691.65
769255,7692.55
769346,7693.46
769441,7694.41
769531,7695.31
769618,7696.18
769705,7697.05
769795,7697.95
769891,7698.91
769983,7699.83
770072,7700.72
770162,7701.62
770261,7702.61
770358,7703.58
770449,7704.49
770538,7705.38
770629,7706.29
770724,7707.24
770820,7708.2
770909,7709.09
770999,7709.99
771091,7710.91
771186,7711.86
771282,7712.82
771371,7713.71
771459,7714.59
771548,7715.48
771640,7716.4
771731,7717.31
771821,7718.21
771910,7719.1
772002,7720.02
772098,7720.98
772193,7721.93
772286,7722.86
772377,7723.77
772470,7724.7
772569,7725.69
772668,7726.68
772760,7727.6
772852,7728.52
772945,7729.45
773043,7730.43
773141,7731.41
773234,7732.34
773325,7733.25
773420,7734.2
773521,7735.21
773619,7736.19
773716,7737.16
773809,7738.09
773906,7739.06
774007,7740.07
774108,7741.08
774202,7742.02
774293,7742.93
774382,7743.82
774468,7744.68
774553,7745.53
774636,7746.36
774718,7747.18
774798,7747.98
774878,7748.78
774959,7749.59
775041,7750.41
775121,7751.21
775200,7752.0
775279,7752.79
775359,7753.59
775445,7754.45
775533,7755.33
775620,7756.2
775712,7757.12
775811,7758.11
775909,7759.09
776012,7760.12
776121,7761.21
776228,7762.28
776330,7763.3
776440,7764.4
776550,7765.5
776656,7766.56
776755,7767.55
776848,7768.48
776941,7769.41
777042,7770.42
777145,7771.45
777244,7772.44
777342,7773.42
777458,7774.58
777572,7775.72
777677,7776.77
777786,7777.86
777897,7778.97
778005,7780.05
778103,7781.03
778199,7781.99
778298,7782.98
778404,7784.04
778504,7785.04
778600,7786.0
778705,7787.05
778815,7788.15
778918,7789.18
779013,7790.13
779107,7791.07
779210,7792.1
779318,7793.18
779418,7794.18
779515,7795.15
779620,7796.2
779728,7797.28
779832,7798.32
779931,7799.31
780032,7800.32
780141,7801.41
780244,7802.44
780343,7803.43
780440,7804.4
780547,7805.47
780654,7806.54
780753,7807.53
780851,7808.51
780949,7809.49
781049,7810.49
781152,7811.52
781247,7812.47
781339,7813.39
781433,7814.33
781532,7815.32
781627,7816.27
781721,7817.21
781817,7818.17
781917,7819.17
782014,7820.14
782107,7821.07
782197,7821.97
782288,7822.88
782384,7823.84
782483,7824.83
782578,7825.78
782673,7826.73
782777,7827.77
782886,7828.86
782989,7829.89
783089,7830.89
783186,7831.86
783286,7832.86
783389,7833.89
783486,7834.86
783580,7835.8
783677,7836.77
783776,7837.76
783880,7838.8
783978,7839.78
784073,7840.73
784176,7841.76
784279,7842.79
784378,7843.78
784476,7844.76
784578,7845.78
784684,7846.84
784790,7847.9
784885,7848.85
784981,7849.81
785084,7850.84
785188,7851.88
785288,7852.88
785385,7853.85
785479,7854.79
785576,7855.76
785678,7856.78
785779,7857.79
785874,7858.74
785965,7859.65
786059,7860.59
786155,7861.55
786253,7862.53
786346,7863.46
786439,7864.39
786535,7865.35
786635,7866.35
786735,7867.35
786828,7868.28
786919,7869.19
787015,7870.15
787111,7871.11
787203,7872.03
787295,7872.95
787390,7873.9
787491,7874.91
787590,7875.9
787685,7876.85
787780,7877.8
787881,7878.81
787985,7879.85
788083,7880.83
788177,7881.77
788272,7882.72
788368,7883.68
788468,7884.68
788560,7885.6
788650,7886.5
788741,7887.41
788835,7888.35
788932,7889.32
789025,7890.25
789116,7891.16
789213,7892.13
789313,7893.13
789410,7894.1
789503,7895.03
789598,7895.98
789695,7896.95
789793,7897.93
789884,7898.84
789974,7899.74
790063,7900.63
790153,7901.53
790249,7902.49
790342,7903.42
790433,7904.33
790524,7905.24
790619,7906.19
790718,7907.18
790818,7908.18
790913,7909.13
791005,7910.05
791099,7910.99
791195,7911.95
791292,7912.92
791384,7913.84
791474,7914.74
791569,7915.69
791663,7916.63
791759,7917.59
791851,7918.51
791942,7919.42
792038,7920.38
792140,7921.4
792235,7922.35
792329,7923.29
792422,7924.22
792520,7925.2
792622,7926.22
792719,7927.19
792814,7928.14
792909,7929.09
793005,7930.05
793102,7931.02
793197,7931.97
793289,7932.89
793387,7933.87
793487,7934.87
793583,7935.83
793677,7936.77
793768,7937.68
793865,7938.65
793961,7939.61
794058,7940.58
794151,7941.51
794244,7942.44
794338,7943.38
794434,7944.34
794529,7945.29
794620,7946.2
794717,7947.17
794814,7948.14
794909,7949.09
795000,7950.0
795097,7950.97
795196,7951.96
795294,7952.94
795386,7953.86
795477,7954.77
795572,7955.72
795673,7956.73
795772,7957.72
795865,7958.65
795956,7959.56
796047,7960.47
796140,7961.4
796237,7962.37
796328,7963.28
796418,7964.18
796515,7965.15
796615,7966.15
796714,7967.14
796810,7968.1
796910,7969.1
797016,7970.16
797115,7971.15
797210,7972.1
797301,7973.01
797396,7973.96
797493,7974.93
797586,7975.86
797678,7976.78
797767,7977.67
797859,7978.59
797955,7979.55
798047,7980.47
798138,7981.38
798227,7982.27
798322,7983.22
798423,7984.23
798517,7985.17
798609,7986.09
798701,7987.01
798797,7987.97
798895,7988.95
798989,7989.89
799080,7990.8
799173,7991.73
799269,7992.69
799363,7993.63
799453,7994.53
799543,7995.43
799636,7996.36
799732,7997.32
799827,7998.27
799919,7999.19
800011,8000.11
800107,8001.07
800206,8002.06
800304,8003.04
800398,8003.98
800490,8004.9
800586,8005.86
800684,8006.84
800780,8007.8
800872,8008.72
800962,8009.62
801055,8010.55
801147,8011.47
801239,8012.39
801329,8013.29
801418,8014.18
801508,8015.08
801604,8016.04
801698,8016.98
801788,8017.88
801878,8018.78
801975,8019.75
802071,8020.71
802163,8021.63
802255,8022.55
802347,8023.47
802444,8024.44
802547,8025.47
802644,8026.44
802739,8027.39
802836,8028.36
802933,8029.33
803032,8030.32
803125,8031.25
803216,8032.16
803311,8033.11
803407,8034.07
803503,8035.03
803596,8035.96
803686,8036.86
803778,8037.78
803873,8038.73
803966,8039.66
804058,8040.58
804150,8041.5
804247,8042.47
804341,8043.41
804434,8044.34
804524,8045.24
804616,8046.16
804712,8047.12
804805,8048.05
804896,8048.96
804985,8049.85
805077,8050.77
805171,8051.71
805269,8052.69
805363,8053.63
805455,8054.55
805547,8055.47
805644,8056.44
805741,8057.41
805834,8058.34
805925,8059.25
806018,8060.18
806115,8061.15
806213,8062.13
806306,8063.06
806398,8063.98
806492,8064.92
806585,8065.85
806680,8066.8
806771,8067.71
806860,8068.6
806948,8069.48
807044,8070.44
807146,8071.46
807246,8072.46
807342,8073.42
807436,8074.36
807532,8075.32
807633,8076.33
807727,8077.27
807818,8078.18
807910,8079.1
808003,8080.03
808093,8080.93
808183,8081.83
808273,8082.73
808369,8083.69
808471,8084.71
808565,8085.65
808658,8086.58
808749,8087.49
808845,8088.45
808945,8089.45
809040,8090.4
809132,8091.32
809224,8092.24
809318,8093.18
809413,8094.13
809505,8095.05
809594,8095.94
809687,8096.87
809781,8097.81
809873,8098.73
809962,8099.62
810050,8100.5
810138,8101.38
810228,8102.28
810316,8103.16
810402,8104.02
810490,8104.9
810579,8105.79
810670,8106.7
810760,8107.6
810848,8108.48
810940,8109.4
811034,8110.34
811131,8111.31
811222,8112.22
811311,8113.11
811401,8114.01
811497,8114.97
811591,8115.91
811683,8116.83
811773,8117.73
811865,8118.65
811964,8119.64
812061,8120.61
812155,8121.55
812247,8122.47
812345,8123.45
812444,8124.44
812538,8125.38
812631,8126.31
812724,8127.24
812816,8128.16
812911,8129.11
813003,8130.03
813093,8130.93
813189,8131.89
813295,8132.95
813402,8134.02
813502,8135.02
813597,8135.97
813695,8136.95
813795,8137.95
813891,8138.91
813982,8139.82
814074,8140.74
