rr_interval_sec
1.01
1.03
1.02
1.03
1.01
1.02
1.0
1.06
1.05
1.03
0.97
0.97
0.93
0.89
0.88
0.85
0.86
0.94
0.99
0.97
1.0
1.01
0.98
0.99
0.98
0.95
0.97
0.97
0.93
0.93
0.94
0.94
0.96
0.97
1.0
1.01
0.99
1.01
0.99
0.97
0.99
1.01
1.0
1.01
1.04
0.98
0.99
1.01
1.03
1.05
1.08
1.07
1.05
1.03
1.05
0.99
0.98
1.03
1.07
1.02
0.98
0.97
1.0
0.94
0.91
0.9
0.92
0.94
0.93
0.95
0.97
0.97
0.95
0.95
0.98
0.96
0.94
0.98
0.99
1.01
1.02
1.04
1.03
1.06
1.02
0.97
0.95
1.02
1.03
1.02
0.88
0.92
0.87
0.87
0.87
0.94
0.96
0.99
1.01
1.03
1.01
1.02
1.03
1.01
0.99
1.0
1.02
1.03
1.01
0.99
1.03
1.02
1.02
0.98
0.96
0.98
1.03
1.05
1.01
1.04
1.08
1.05
1.02
1.06
1.05
1.01
1.0
0.99
0.94
0.95
1.03
1.04
1.05
1.05
1.0
0.97
0.93
0.95
0.89
0.9
0.91
0.97
0.95
0.95
0.99
1.04
1.07
1.0
0.94
0.91
1.05
1.06
0.97
0.95
0.96
1.04
1.05
1.06
1.03
1.01
1.0
1.0
0.98
1.0
1.0
1.03
1.02
0.94
0.92
0.96
1.03
1.05
1.05
1.01
0.99
0.97
0.95
0.92
0.93
0.9
0.89
0.9
0.86
0.83
0.83
0.85
0.85
1.06
1.45
1.36
1.37
1.28
1.16
1.04
0.98
0.94
0.87
0.88
0.87
0.84
0.81
0.81
0.8
0.77
0.76
0.77
0.76
0.8
0.89
0.95
1.0
0.97
1.11
1.11
1.05
1.1
1.1
1.03
0.97
0.96
0.95
0.91
0.96
0.93
0.93
0.94
0.94
0.93
0.94
0.95
0.97
0.97
0.97
0.97
0.95
0.94
0.97
0.97
0.97
0.95
0.91
0.9
0.89
0.92
0.91
0.91
0.96
0.97
1.02
1.02
1.03
1.02
1.01
0.97
0.91
0.91
0.92
0.97
0.96
0.99
1.02
1.07
1.04
1.02
0.94
0.94
0.93
0.96
0.93
0.89
0.86
0.84
0.83
0.83
0.85
0.88
0.89
0.89
0.86
0.83
0.83
0.81
0.81
0.8
0.87
1.0
1.06
1.07
1.01
1.0
1.01
1.05
1.05
1.08
1.09
1.04
1.0
1.05
1.11
1.05
1.05
1.01
1.01
0.99
1.0
0.96
1.0
1.02
1.0
1.01
1.01
0.96
0.95
0.92
0.9
0.94
0.93
0.98
1.13
1.14
1.03
1.03
1.02
1.05
1.02
1.03
1.02
1.01
1.02
1.01
1.01
1.03
1.05
1.04
1.02
1.0
0.99
0.93
0.9
0.88
0.87
0.88
0.85
0.85
0.83
0.82
0.86
0.88
0.87
0.91
0.9
0.91
0.91
0.89
0.87
0.89
0.91
0.91
0.92
0.89
0.91
0.84
0.85
0.82
0.8
0.78
0.77
0.77
0.75
0.74
0.76
0.75
0.77
0.83
0.88
0.96
1.0
0.99
1.04
1.04
1.01
1.04
1.06
1.02
0.99
0.98
0.97
1.0
0.86
0.87
0.86
0.84
0.81
0.81
0.79
0.79
0.8
0.79
0.83
0.86
0.83
0.84
0.83
0.83
0.86
0.85
0.87
0.81
0.85
0.82
0.83
0.81
0.82
0.9
0.96
1.0
0.99
0.94
0.91
0.88
0.89
0.88
0.92
0.95
0.98
1.0
1.01
1.02
0.98
0.94
0.95
0.96
0.92
0.93
0.97
0.98
1.03
1.03
1.05
1.02
1.04
1.11
1.06
1.05
1.05
1.0
1.0
1.01
0.97
1.09
1.17
1.13
1.12
1.05
1.06
1.05
1.05
1.04
1.04
1.03
1.05
1.07
1.03
1.01
1.01
1.0
1.0
0.99
1.01
1.0
1.03
1.0
0.96
1.01
1.02
1.05
1.04
1.04
1.06
1.08
1.07
1.07
1.07
1.06
1.02
1.07
1.07
1.03
1.08
1.09
1.03
1.01
1.05
0.99
1.05
1.05
1.04
1.04
1.02
1.03
1.02
0.97
0.95
0.94
0.91
0.88
0.84
0.86
0.87
0.9
0.89
0.97
0.99
0.97
0.95
1.03
1.02
0.98
0.99
1.02
0.97
0.97
1.0
1.0
1.05
1.07
1.03
1.01
1.01
0.99
1.01
1.01
1.06
1.11
1.15
1.14
1.08
1.09
1.11
1.05
1.07
1.14
1.2
1.15
1.08
1.13
1.1
1.04
1.08
1.15
1.09
1.04
1.04
1.05
1.0
0.96
1.0
1.01
0.98
1.0
1.07
1.05
1.0
1.02
1.08
1.11
1.06
1.08
1.13
1.12
1.08
1.05
1.13
1.17
1.15
1.11
1.15
1.15
1.12
1.09
1.13
1.24
1.14
1.05
1.09
1.15
1.1
1.08
1.13
1.11
1.04
1.03
1.08
1.16
1.07
1.05
1.08
1.15
1.09
1.03
1.07
1.13
1.1
1.02
1.05
1.07
1.08
1.05
1.05
1.03
1.08
1.08
1.05
1.09
1.11
1.04
1.04
1.09
1.06
1.02
1.1
1.09
1.11
1.06
1.06
1.1
1.1
1.06
1.03
1.07
1.1
1.1
1.09
1.08
1.14
1.17
1.11
1.08
1.11
1.02
1.06
1.08
1.06
1.16
1.07
1.07
1.11
1.12
1.05
1.01
1.04
1.07
1.07
1.05
1.1
1.12
1.04
1.03
1.01
1.06
1.12
1.04
1.04
1.02
1.1
1.15
1.11
1.06
1.1
1.21
1.15
1.08
1.14
1.19
1.19
1.06
1.14
1.09
1.0
1.01
1.2
1.1
1.06
1.05
1.13
1.29
1.3
1.08
1.1
1.1
1.05
1.01
1.08
1.15
1.07
1.04
1.12
1.11
1.04
1.0
1.03
1.02
1.0
1.02
0.99
1.05
1.14
1.09
1.02
1.06
1.2
1.15
1.09
1.16
1.11
1.08
1.01
1.01
1.12
1.23
1.16
1.09
1.11
1.16
1.22
1.12
1.09
1.2
1.18
1.09
1.07
1.21
1.13
1.07
1.11
1.11
1.14
1.07
1.03
0.98
1.1
1.08
1.08
1.2
1.1
1.1
1.08
1.11
1.14
1.04
0.98
1.02
1.16
1.11
1.08
1.08
1.16
1.09
1.02
1.03
1.15
1.11
1.05
1.08
1.26
1.24
1.14
1.08
1.11
1.1
1.04
1.13
1.13
1.08
1.03
1.01
1.09
1.06
1.04
1.03
1.11
1.2
1.23
1.11
1.12
1.13
1.14
1.04
1.0
1.01
1.11
1.1
1.08
1.03
1.1
1.16
1.1
1.04
1.08
1.13
1.05
1.04
1.16
1.25
1.25
1.06
1.18
1.17
1.08
1.02
1.06
1.15
1.14
1.09
1.04
1.1
1.09
1.04
1.03
1.1
1.1
1.05
1.01
1.07
1.16
1.11
1.06
1.14
1.17
1.15
1.07
1.07
1.13
1.09
1.06
1.03
1.08
1.12
1.07
1.0
1.1
1.18
1.14
1.1
1.12
1.22
1.14
1.06
1.06
1.08
1.08
1.05
1.0
1.08
1.1
1.09
1.03
1.1
1.11
1.07
1.04
1.07
1.06
1.01
1.04
1.03
1.09
1.06
1.02
0.99
1.03
1.03
1.01
0.98
1.01
1.02
1.02
1.05
1.02
1.06
1.08
1.02
0.98
0.98
1.03
1.08
1.08
1.06
1.12
1.14
1.06
1.03
1.07
1.11
1.05
1.0
1.05
1.12
1.0
0.96
0.97
1.0
1.09
1.01
1.27
1.27
1.07
1.0
0.98
1.0
0.99
0.97
0.93
0.9
0.86
0.8
0.8
0.77
0.77
0.76
0.75
0.76
0.78
0.79
0.81
0.81
0.85
0.86
0.91
0.96
1.01
1.02
1.0
1.06
1.2
1.31
1.26
1.21
1.3
1.31
1.24
1.2
1.19
1.18
1.23
1.12
1.34
1.44
1.34
1.23
1.13
1.12
1.04
1.04
1.39
1.4
1.12
1.06
1.15
1.15
1.07
1.07
1.15
1.15
1.08
1.03
1.04
1.07
1.14
1.07
1.05
1.07
1.28
1.29
1.11
1.23
1.2
1.18
1.1
1.09
1.14
1.11
1.08
1.12
1.28
1.24
1.11
1.03
1.12
1.22
1.13
1.09
1.23
1.29
1.1
1.05
1.1
1.32
1.33
1.13
1.14
1.28
1.28
1.19
1.15
1.23
1.22
1.14
1.1
1.19
1.22
1.2
1.08
1.12
1.15
1.08
1.03
1.02
1.08
1.15
1.04
0.98
1.05
1.09
1.07
1.05
1.05
1.09
1.11
1.05
0.97
0.95
0.98
1.0
0.97
1.02
1.29
1.3
1.05
1.0
1.04
1.08
1.04
1.03
1.05
1.15
1.14
1.09
1.03
1.09
1.19
1.19
1.12
1.07
1.13
1.16
1.1
1.02
0.98
1.02
1.11
1.06
1.06
1.07
1.18
1.12
1.02
1.0
1.08
1.18
1.07
1.04
1.1
1.19
1.19
1.08
1.12
1.21
1.12
1.06
1.09
1.16
1.18
1.09
1.06
1.11
1.09
1.03
1.05
1.21
1.18
1.1
1.0
1.02
1.14
1.12
1.1
1.28
1.29
1.09
1.13
1.19
1.09
1.06
1.03
1.16
1.18
1.06
1.04
1.11
1.17
1.13
1.07
1.09
1.11
1.11
1.1
1.1
1.15
1.25
1.2
1.09
1.03
1.04
1.2
1.21
1.15
1.11
1.19
1.22
1.11
1.03
1.02
1.08
1.09
1.0
0.99
1.0
1.08
1.16
1.1
1.04
1.16
1.27
1.15
1.09
1.1
1.19
1.15
1.09
1.08
1.12
1.09
1.08
1.04
1.01
1.11
1.16
1.12
1.04
1.04
1.15
1.11
1.02
1.02
1.15
1.16
1.09
1.03
1.1
1.17
1.11
1.07
1.07
1.17
1.08
1.03
1.0
1.09
1.18
1.09
1.06
1.11
1.14
1.05
1.03
1.09
1.19
1.17
1.08
1.05
1.11
1.17
1.09
1.06
1.17
1.21
1.13
1.08
1.14
1.14
1.08
1.03
1.03
1.1
1.1
1.07
1.1
1.21
1.14
1.05
1.0
1.04
1.15
1.07
1.02
1.15
1.16
1.07
1.04
1.09
1.15
1.08
1.01
1.02
1.1
1.11
1.05
0.99
1.04
1.19
1.12
1.06
1.08
1.08
1.11
1.02
0.97
0.98
1.02
1.24
1.14
1.11
1.18
1.18
1.1
1.08
1.09
1.13
1.08
1.02
1.08
1.13
1.1
1.03
1.08
1.13
1.1
1.05
1.01
1.16
1.2
1.09
1.03
1.02
1.06
1.09
1.04
1.01
1.09
1.14
1.1
1.03
1.03
1.07
1.03
0.97
0.96
1.01
1.0
1.0
0.96
1.11
1.14
1.07
1.0
0.94
1.01
1.02
1.0
1.01
1.03
1.07
1.09
1.0
0.98
1.03
1.08
1.03
1.02
0.97
1.04
1.05
0.99
1.0
1.02
1.19
1.18
1.07
1.03
1.11
1.12
1.03
0.99
1.0
1.04
0.97
0.99
0.94
1.04
1.04
1.06
0.95
0.98
1.01
1.11
1.0
0.97
1.02
1.23
1.16
1.07
1.05
1.08
1.09
1.02
1.0
1.05
1.14
1.06
1.03
1.08
1.11
1.08
1.03
1.06
1.15
1.16
1.08
1.05
1.12
1.08
1.04
0.98
0.97
0.98
0.99
0.99
0.96
1.03
1.06
0.98
0.96
1.04
1.16
1.08
1.02
0.94
1.02
1.01
0.99
0.94
0.94
1.03
1.08
1.06
0.98
1.01
1.15
1.07
1.05
0.96
0.97
1.03
1.09
1.04
1.03
1.17
1.17
1.1
1.07
1.09
1.13
1.08
1.04
1.09
1.12
1.11
1.03
0.99
1.06
1.11
1.09
1.05
1.07
1.08
1.05
1.01
0.98
1.02
1.08
1.05
1.03
1.09
1.14
1.06
1.01
1.02
1.04
1.03
1.01
1.0
1.08
1.14
1.08
1.04
1.08
1.1
1.08
1.03
0.98
1.03
1.08
1.07
1.04
1.02
1.1
1.12
1.08
1.07
1.13
1.17
1.1
1.04
1.08
1.09
1.08
1.06
1.09
1.18
1.14
1.09
1.05
1.04
1.1
1.04
1.03
1.12
1.21
1.1
1.08
1.06
1.08
1.12
1.08
1.08
1.08
1.06
1.03
1.06
1.12
1.08
1.04
1.08
1.16
1.1
1.05
1.06
1.1
1.04
1.0
1.02
1.1
1.11
1.05
1.01
1.07
1.1
1.09
1.04
1.03
1.09
1.09
1.04
1.0
1.01
1.05
1.04
1.04
1.03
1.08
1.11
1.05
1.03
1.11
1.06
1.01
0.97
1.0
1.03
1.0
0.99
0.99
1.04
1.05
1.01
0.97
0.99
1.01
1.05
1.01
0.98
1.05
1.11
1.07
1.05
1.03
1.09
1.1
1.03
1.0
1.05
1.06
1.02
1.01
1.01
1.08
1.11
1.06
1.01
1.12
1.12
1.05
1.02
1.06
1.12
1.05
1.01
0.98
1.03
1.06
1.06
1.03
1.08
1.12
1.05
1.03
1.08
1.13
1.08
1.04
1.04
1.08
1.11
1.03
1.02
1.03
1.09
1.06
1.03
1.04
1.08
1.09
1.05
1.04
1.11
1.09
1.05
1.02
1.08
1.14
1.07
1.04
1.19
1.12
1.16
1.03
1.04
1.08
1.03
1.0
1.05
1.14
1.14
1.03
1.04
1.1
1.1
1.03
1.0
1.08
1.13
1.06
1.03
1.03
1.12
1.11
1.05
0.98
1.02
1.06
1.03
1.03
1.08
1.17
1.18
1.07
1.03
1.06
1.1
1.04
1.01
1.05
1.1
1.02
1.0
1.02
1.06
1.02
1.01
1.11
1.12
1.05
1.01
1.05
1.06
1.04
1.01
1.0
1.1
1.17
1.11
1.07
1.13
1.15
1.06
1.01
1.03
1.08
1.05
1.02
1.0
1.06
1.12
1.07
1.04
1.07
1.11
1.07
1.05
1.0
1.08
1.07
1.02
1.02
1.07
1.09
1.1
1.02
0.99
1.01
1.03
0.99
0.98
1.02
1.14
1.15
1.03
1.02
1.07
1.09
1.03
1.03
1.06
1.13
1.04
1.03
1.07
1.11
1.09
1.04
0.99
1.09
1.09
1.06
1.03
1.08
1.1
1.02
1.0
0.98
1.1
1.06
1.02
0.99
1.05
1.07
1.08
0.99
1.04
1.09
1.05
1.01
1.01
1.06
1.1
1.04
1.02
1.07
1.12
1.06
1.0
1.0
1.01
1.03
0.99
0.97
1.0
1.05
1.01
0.97
0.95
1.02
1.05
0.97
0.96
1.06
1.11
1.04
0.99
0.99
1.03
0.97
0.97
0.96
1.08
1.14
1.1
1.03
1.04
1.1
1.05
1.0
0.95
1.1
1.1
1.0
0.96
0.97
1.08
1.04
0.95
0.95
1.0
1.04
0.97
0.94
0.93
1.05
1.07
1.01
0.97
0.94
1.02
1.02
0.93
0.92
0.93
1.03
0.96
0.98
0.94
1.15
1.15
1.11
1.05
1.03
1.12
1.1
1.04
1.01
1.05
1.09
1.05
1.0
1.0
1.0
1.08
0.97
0.92
1.0
0.99
0.98
0.94
0.96
1.01
1.07
1.0
0.95
0.95
1.05
1.0
0.96
0.95
0.97
1.03
0.99
0.95
0.94
1.06
1.01
0.95
0.94
1.0
1.01
1.02
1.0
0.98
1.1
1.14
1.08
1.01
0.93
0.97
0.98
0.98
0.95
0.94
1.06
1.02
1.02
0.98
0.97
1.1
1.01
0.97
0.96
1.02
1.13
1.06
1.02
0.95
0.95
1.15
1.12
1.05
1.1
1.19
1.16
1.1
1.05
1.08
1.09
1.03
1.02
1.16
1.2
1.1
1.03
1.08
1.1
1.06
1.01
1.02
1.1
1.14
1.04
1.03
1.07
1.09
1.01
0.98
0.98
1.0
1.0
1.0
0.98
1.09
1.04
0.95
0.94
0.99
1.0
0.97
0.96
1.0
1.04
1.02
0.96
0.99
1.05
1.08
0.94
0.93
0.94
1.05
1.01
0.98
0.96
1.06
1.13
1.05
1.0
0.98
1.08
1.01
0.94
0.93
0.97
1.0
0.96
0.93
1.03
1.03
1.06
0.95
0.96
1.06
1.05
1.07
0.96
0.96
1.01
1.2
1.11
1.04
1.04
1.09
1.06
0.99
0.96
1.05
1.11
1.03
0.97
1.01
1.06
0.93
0.96
0.96
1.1
1.07
1.02
1.0
1.04
1.08
1.02
0.98
0.97
1.12
1.06
0.96
0.95
1.03
1.02
0.97
0.93
0.96
1.23
1.15
1.05
1.01
1.01
1.05
1.03
1.01
0.99
1.07
1.15
1.1
1.02
1.02
1.05
1.06
0.99
0.96
1.05
1.05
1.0
0.96
0.96
1.06
1.09
1.02
0.97
1.05
1.02
1.0
0.94
0.93
1.07
1.03
1.02
0.99
0.96
0.98
1.02
0.93
0.94
0.96
1.08
0.96
0.93
0.97
1.11
1.06
1.01
1.0
1.09
1.04
0.97
0.96
1.03
1.04
1.07
1.0
0.99
1.06
1.05
0.98
0.94
1.07
1.05
1.03
0.96
0.98
1.09
1.07
0.96
0.92
0.93
0.99
0.98
0.97
0.96
1.15
1.19
1.06
1.03
0.99
0.99
0.98
0.94
0.94
1.06
1.02
0.97
0.96
0.99
1.13
1.14
1.05
0.98
1.01
1.01
1.0
0.96
0.99
1.07
1.12
1.01
0.98
0.98
1.04
1.02
0.98
0.93
1.02
1.03
0.96
0.94
0.97
1.12
1.03
0.95
0.91
0.92
1.04
0.98
0.96
0.92
1.03
1.06
1.03
0.97
0.99
1.05
1.01
0.94
0.93
1.04
1.02
1.0
0.94
0.98
1.05
1.06
0.95
0.92
0.9
0.87
0.87
0.88
0.88
0.87
0.94
1.25
1.25
1.08
1.14
1.14
1.09
1.06
1.05
1.07
1.05
1.02
1.01
1.07
1.05
1.0
1.0
1.04
1.03
1.04
1.01
1.01
1.05
1.06
1.01
0.99
1.01
1.06
1.02
0.99
1.01
1.05
1.02
0.99
0.98
1.02
1.09
1.01
0.96
1.01
1.06
1.02
1.0
1.05
1.1
1.07
1.01
1.01
1.07
1.05
0.98
0.96
1.01
1.07
1.07
1.04
1.09
1.18
1.11
1.05
1.02
1.06
1.07
0.98
0.96
0.96
1.02
0.99
0.97
1.01
1.09
1.09
0.98
1.0
1.05
1.03
0.99
0.94
1.06
1.06
1.01
0.95
1.07
1.08
1.0
0.94
0.99
1.15
1.07
0.99
0.95
1.03
1.17
1.15
1.08
1.13
1.12
1.02
0.97
0.93
0.95
0.94
0.94
0.99
1.14
1.12
1.03
1.02
1.02
1.06
0.95
0.91
0.95
1.01
1.03
0.95
0.97
1.05
1.09
1.02
0.96
1.0
1.02
1.01
0.95
0.94
0.99
1.01
0.98
0.94
0.96
1.15
1.13
1.06
1.02
1.04
1.09
1.02
0.99
0.98
1.02
1.06
0.98
0.95
1.04
1.08
1.02
0.94
0.93
1.0
1.04
1.03
0.97
1.12
1.1
1.06
0.98
1.03
0.99
1.01
0.97
0.95
0.96
1.05
1.01
0.99
0.96
1.03
1.05
1.05
0.96
0.97
1.02
1.1
1.0
0.93
1.0
1.01
1.0
0.97
0.92
0.89
1.08
1.23
1.06
1.22
1.17
1.11
1.06
1.04
1.11
1.13
1.07
1.04
1.06
1.1
1.06
1.0
1.02
1.03
1.08
1.03
1.0
1.06
1.08
1.04
0.99
1.02
1.06
1.04
1.02
1.02
1.02
1.04
0.98
0.97
0.98
1.01
0.99
0.94
0.98
1.01
0.98
0.97
0.94
1.02
1.01
1.0
0.98
0.95
1.01
1.0
1.0
0.97
0.95
0.98
1.02
1.04
0.99
0.97
0.99
1.03
0.98
0.97
0.96
1.02
1.01
0.97
0.96
0.95
0.96
1.01
0.97
0.95
0.99
1.03
1.02
0.99
0.98
0.98
1.0
0.98
0.96
0.94
0.97
0.99
0.96
0.95
0.97
0.99
1.02
1.0
0.97
1.01
1.04
1.01
0.95
0.95
0.96
1.02
0.96
0.97
0.95
0.99
0.98
0.96
0.95
0.98
1.02
1.02
0.96
0.94
0.93
0.94
0.94
0.92
0.91
0.98
1.03
0.99
0.98
1.03
1.03
1.0
0.97
0.97
1.01
1.01
0.97
0.97
0.98
0.98
1.03
0.97
0.97
0.99
0.99
1.02
0.96
0.95
0.99
1.02
0.97
0.97
0.95
0.99
1.02
0.96
0.95
1.0
1.02
1.0
0.97
0.93
0.95
0.97
0.96
0.96
0.96
1.01
1.07
1.02
0.99
1.02
1.05
1.05
1.0
1.11
1.12
1.03
1.01
0.95
0.97
1.02
0.99
0.97
1.0
1.05
1.08
1.01
0.99
0.99
1.0
0.96
0.95
0.95
0.97
1.0
0.95
0.95
1.04
1.04
1.0
0.97
0.97
1.0
0.99
0.96
0.93
0.96
0.99
0.96
0.93
0.92
0.95
0.97
0.99
0.96
0.97
1.02
1.06
0.98
0.96
0.98
1.02
0.99
0.97
0.93
0.97
1.06
1.01
0.99
0.95
1.01
1.0
0.96
0.95
0.98
1.04
1.01
0.97
0.96
1.01
1.0
1.01
0.96
0.98
0.99
1.04
0.96
0.94
0.94
1.0
0.98
0.98
1.0
1.02
1.01
0.97
0.96
1.01
1.0
0.97
0.95
0.98
0.98
1.03
0.96
0.97
0.96
0.97
1.02
0.96
0.97
1.01
1.01
1.01
0.96
0.95
0.99
1.03
0.97
0.94
0.95
0.96
0.94
0.94
0.91
0.93
1.01
1.0
0.96
0.97
0.99
1.02
0.98
0.96
0.97
1.05
1.0
1.01
1.0
1.04
1.01
1.0
0.96
0.96
1.01
1.03
0.97
0.96
0.95
0.99
0.99
0.97
0.94
0.98
1.02
1.0
0.97
0.98
1.05
0.98
0.95
0.93
0.95
0.98
0.94
0.96
0.95
0.99
1.03
1.04
0.97
0.99
1.02
1.0
0.98
0.95
0.95
0.97
0.99
0.99
0.95
0.99
1.01
0.96
0.96
0.95
0.98
0.98
0.96
0.94
0.94
0.97
1.02
0.96
0.93
0.97
0.97
0.98
0.94
0.94
1.07
1.08
0.97
0.96
0.98
1.0
0.99
0.97
0.95
0.98
1.02
0.97
0.96
0.94
1.0
1.03
0.98
0.94
0.95
0.97
0.98
0.96
0.94
0.99
1.03
0.99
0.97
0.95
1.03
0.99
0.98
0.95
0.99
0.96
0.94
0.92
0.93
0.99
1.0
0.95
0.95
0.95
0.99
1.03
0.98
0.97
1.0
1.0
1.01
0.96
0.93
0.96
1.02
0.97
0.96
1.0
1.04
1.06
0.98
0.95
0.97
0.99
0.97
0.94
0.92
0.95
1.0
0.98
0.93
0.94
0.95
0.94
0.92
0.93
0.94
1.05
1.05
0.91
0.92
1.16
0.97
1.11
0.98
0.97
1.0
1.01
0.96
0.95
0.97
0.98
1.0
0.96
0.95
0.97
0.99
0.98
0.97
0.95
0.98
1.0
0.98
0.96
0.98
1.01
0.98
0.99
0.95
0.94
1.0
0.97
0.96
0.95
1.01
1.02
1.01
0.97
0.97
1.0
0.98
0.92
0.91
0.91
0.96
0.96
0.95
0.88
0.88
1.09
1.1
0.95
0.96
1.02
1.04
1.0
0.98
0.99
1.04
1.01
0.98
0.95
0.96
0.97
1.01
0.94
0.95
0.96
1.02
1.0
0.96
0.96
1.0
1.01
0.98
0.95
0.99
1.04
1.02
0.97
0.95
1.0
1.01
1.0
0.97
0.95
0.98
1.0
0.98
0.96
0.95
0.94
0.95
0.95
0.93
0.92
0.93
0.94
0.93
0.93
0.92
1.0
1.07
1.01
1.03
1.05
1.04
1.0
1.0
1.03
1.08
1.05
1.01
1.0
1.02
1.03
1.0
0.96
1.02
1.08
1.07
0.98
0.98
1.0
0.97
1.0
0.96
0.95
0.96
0.98
0.97
0.94
0.95
1.02
1.02
0.98
0.96
1.02
1.05
1.0
0.96
0.96
0.99
1.02
1.03
1.01
1.02
1.06
1.04
0.99
0.97
1.07
1.02
1.0
1.0
0.99
1.0
1.03
1.02
0.99
1.03
1.03
1.03
0.96
0.93
0.97
0.99
0.94
0.96
0.97
1.01
1.03
1.01
0.95
1.0
1.04
1.06
0.98
0.96
1.04
1.04
0.97
0.96
1.02
1.05
1.0
0.96
0.95
0.97
0.99
0.99
0.96
0.95
1.0
1.07
0.98
0.95
0.96
0.99
0.98
0.98
0.96
1.01
0.99
0.96
0.96
0.96
1.0
0.99
0.96
0.97
0.95
0.98
0.96
0.98
0.96
1.05
1.06
0.99
0.96
1.01
1.03
0.99
0.99
0.99
1.04
1.07
1.02
0.98
1.0
1.02
1.0
0.96
0.97
1.0
0.97
0.97
0.98
1.06
1.01
0.96
0.95
0.99
1.0
0.96
0.96
0.97
1.02
1.0
0.97
0.93
0.94
0.96
0.96
0.92
0.92
1.0
1.05
0.98
0.96
0.98
1.03
1.05
1.0
0.94
0.99
1.01
0.98
0.95
0.94
0.99
0.97
0.97
0.96
0.97
1.02
1.04
0.99
0.96
1.01
0.97
0.95
0.94
0.91
0.94
1.01
1.05
0.99
0.97
1.05
1.03
1.0
0.97
0.98
1.02
1.0
0.99
0.96
1.03
1.01
0.98
0.97
0.97
0.99
1.03
0.97
0.95
0.97
1.01
1.0
0.97
0.96
0.96
1.04
1.0
0.98
0.96
0.98
0.99
1.0
0.95
0.97
1.02
1.0
0.97
0.96
1.02
1.03
1.0
0.98
0.99
0.99
1.03
0.98
0.93
0.93
0.93
0.95
0.94
0.92
0.97
1.03
1.03
0.96
0.98
1.05
1.03
0.99
0.96
0.98
0.99
1.01
0.97
0.97
1.0
1.02
1.03
1.0
0.99
1.04
1.05
0.99
0.96
0.96
0.96
0.97
0.95
0.91
0.94
0.94
0.97
0.92
0.9
0.93
0.96
0.96
0.92
0.94
0.98
1.04
0.97
0.97
0.98
1.01
1.01
0.96
0.95
0.99
1.05
1.0
0.98
0.94
1.0
1.02
1.0
0.97
1.02
1.07
1.03
0.97
0.96
1.0
0.99
0.96
0.95
0.99
1.01
0.97
0.96
0.93
0.99
0.99
0.97
0.96
0.95
0.94
0.98
0.95
0.97
0.97
0.98
1.02
0.95
0.93
0.97
0.99
0.95
0.96
0.98
1.01
0.98
0.94
0.94
0.98
1.0
0.99
0.96
1.0
1.04
1.02
1.0
0.96
0.99
1.0
0.97
0.93
0.95
0.97
0.99
0.98
0.97
1.09
1.09
1.03
1.0
1.07
1.02
0.99
0.97
1.0
0.98
1.01
0.97
0.96
0.98
1.01
1.01
0.96
0.95
0.98
1.0
1.01
0.96
0.94
0.98
1.01
0.98
0.97
0.98
0.98
0.98
0.96
0.96
1.01
1.02
1.01
0.97
0.98
0.99
0.99
0.94
0.93
0.94
1.01
1.04
1.01
0.97
1.01
1.05
0.99
0.95
0.94
0.96
0.97
0.95
0.96
0.98
1.02
1.04
1.0
0.98
1.02
1.06
0.99
0.97
0.98
1.0
1.0
0.97
0.94
0.96
0.96
0.96
0.92
0.9
0.92
0.98
0.98
0.95
1.01
1.04
1.06
0.97
0.93
0.95
0.98
0.97
0.96
0.94
1.04
1.04
0.99
0.97
0.95
0.96
1.0
0.95
0.94
0.96
1.02
1.0
1.0
0.96
0.99
1.04
1.04
0.96
1.02
1.07
1.03
1.0
0.97
0.98
1.01
1.0
0.98
0.97
1.04
1.06
1.0
0.98
0.97
0.96
0.93
0.91
0.91
0.96
1.03
0.98
0.94
1.0
1.01
0.99
0.97
0.95
1.01
1.02
0.98
0.97
0.96
0.99
0.98
0.96
0.94
0.96
1.0
1.01
0.98
0.95
0.97
1.01
0.98
0.97
0.94
1.01
1.01
1.01
1.0
0.97
0.99
1.0
0.97
0.95
0.99
1.0
0.99
0.98
0.96
0.98
1.0
0.96
0.93
0.95
1.03
1.03
0.98
0.93
0.97
0.98
0.95
0.92
0.91
0.94
0.96
0.94
0.95
1.04
1.05
1.0
0.95
0.99
1.0
0.97
0.94
0.92
1.01
1.02
0.97
0.97
0.96
0.96
1.0
0.97
0.96
1.06
1.06
0.99
0.98
0.95
0.98
0.98
0.97
0.95
0.93
0.97
0.98
0.96
0.95
0.96
0.97
0.98
0.95
0.96
0.99
1.01
1.01
0.99
1.01
1.06
1.07
0.99
0.95
0.98
1.0
0.99
0.99
0.96
0.99
0.99
0.98
0.96
0.98
1.02
0.99
0.97
0.94
0.96
1.0
0.98
0.98
0.94
0.99
1.0
0.98
0.96
0.95
0.98
0.95
0.89
0.86
0.84
0.84
0.87
0.92
0.92
1.01
1.05
1.04
1.02
1.01
0.97
0.96
1.02
0.99
1.03
1.1
1.12
1.11
1.02
1.04
1.03
0.99
1.0
0.99
0.93
0.91
0.92
0.92
0.95
0.93
0.9
0.91
0.92
0.92
1.01
1.04
1.08
1.03
1.06
1.06
1.02
0.99
1.0
0.97
0.94
0.93
0.93
0.97
1.04
1.03
1.01
1.02
1.02
1.0
1.03
1.0
1.02
0.98
0.98
0.94
0.93
0.96
1.0
0.99
1.05
1.07
1.0
1.0
1.02
0.97
0.98
1.02
1.05
1.01
0.97
1.12
1.13
1.06
0.99
1.01
1.01
0.98
0.96
0.98
0.99
0.98
0.96
0.93
0.94
0.98
1.04
1.01
1.01
1.06
1.11
1.09
1.03
1.03
1.09
1.03
0.96
0.93
0.96
0.94
0.95
0.96
0.98
1.01
1.03
0.96
0.93
0.91
0.9
0.89
0.89
0.89
0.97
1.32
1.32
1.09
1.14
1.11
1.02
1.05
0.99
0.99
0.95
0.91
0.89
0.95
0.98
1.02
1.01
1.16
1.12
1.04
0.98
1.01
1.0
0.97
0.95
0.96
1.0
1.01
0.95
0.92
0.94
0.95
0.92
0.93
0.93
1.01
1.07
1.0
1.0
0.99
0.99
0.97
0.93
1.03
1.02
1.04
0.96
0.97
0.96
0.94
0.96
0.97
1.0
1.07
1.26
1.26
1.07
0.98
0.93
0.91
0.91
0.93
1.35
1.36
1.1
1.07
1.01
0.97
0.92
0.93
0.9
0.93
1.0
1.12
1.1
1.05
0.99
1.06
1.01
1.0
0.94
0.94
1.0
1.02
0.96
1.0
0.97
1.01
0.93
0.97
0.93
0.99
0.94
0.98
0.94
0.99
1.0
0.98
0.95
1.02
1.02
1.0
0.95
0.97
1.0
0.98
0.94
0.92
0.93
0.92
0.93
0.89
0.96
1.01
1.02
0.96
1.02
1.1
1.01
0.94
1.02
0.98
0.93
0.91
0.93
0.95
0.88
0.87
0.89
1.04
1.05
1.02
0.97
0.97
1.04
0.97
1.03
1.0
0.96
0.91
0.91
0.9
0.87
0.87
0.88
1.29
1.29
1.06
1.05
1.11
1.06
1.02
1.05
1.14
1.11
1.07
1.0
0.99
1.0
0.98
0.98
1.1
0.98
0.87
0.84
0.81
0.81
0.9
1.03
1.31
1.31
1.09
1.06
1.06
1.06
1.03
1.02
1.1
1.13
1.1
1.02
1.0
0.95
0.89
0.87
0.87
1.13
1.14
1.07
1.18
1.21
1.1
1.03
1.03
1.03
1.03
0.99
0.98
1.04
1.07
1.0
0.93
0.91
0.93
1.01
1.02
0.98
0.99
1.04
1.0
0.98
1.04
1.06
1.04
1.0
0.98
1.04
1.03
0.97
0.95
0.98
1.02
0.99
0.92
0.93
1.1
1.0
0.93
0.91
0.93
0.89
0.88
1.01
1.1
0.99
0.95
0.97
1.01
0.91
0.89
0.86
0.9
0.97
0.93
0.94
1.11
1.07
1.0
0.95
0.96
1.0
0.95
0.96
0.93
0.94
0.93
0.92
0.95
1.01
0.98
0.97
0.94
1.04
0.98
0.96
0.92
0.92
0.96
1.0
0.92
0.9
0.94
1.14
1.15
1.08
1.26
1.27
1.07
1.07
1.1
1.08
1.03
1.04
1.09
1.06
1.01
1.03
1.08
1.04
1.05
1.07
1.13
1.08
1.03
1.08
1.1
1.03
0.99
1.0
1.14
1.11
1.04
1.02
1.08
0.99
0.94
0.9
0.92
0.92
1.15
1.16
1.11
1.06
1.11
1.05
1.06
1.02
0.97
0.93
0.89
0.87
0.86
0.87
0.91
1.01
1.02
0.99
0.97
0.97
0.93
0.92
0.95
0.99
0.94
0.97
0.98
0.98
0.95
0.95
1.0
1.04
0.99
0.93
0.9
0.92
1.06
0.97
0.95
1.0
1.03
0.98
0.93
0.95
1.14
1.1
1.03
0.95
0.97
0.98
0.98
0.92
0.92
0.96
1.06
0.99
0.95
0.92
0.97
0.93
0.96
0.93
1.0
1.12
1.11
1.04
0.97
0.99
0.96
0.94
0.92
0.93
0.99
1.01
0.97
0.95
1.0
1.02
0.96
0.97
0.96
1.08
1.0
0.94
0.9
0.97
1.04
1.0
0.93
0.94
0.93
0.95
0.9
0.9
0.94
1.01
1.02
0.93
0.92
0.95
0.92
0.92
0.91
0.97
0.94
0.92
0.89
0.91
0.97
0.91
0.93
1.03
0.99
1.01
0.98
0.95
0.99
0.99
0.94
1.0
0.94
0.97
0.93
0.95
0.92
0.98
1.0
0.96
0.93
0.93
0.97
0.98
0.97
0.93
1.05
1.11
1.12
1.05
1.04
1.1
1.05
1.01
0.98
1.05
1.01
0.95
0.94
1.01
1.06
0.99
0.96
1.02
1.0
1.05
1.06
0.92
0.97
1.0
1.1
1.01
1.01
1.06
1.01
0.95
1.01
1.1
1.01
0.94
0.91
0.95
0.98
0.94
0.92
0.9
0.97
1.04
1.02
1.14
1.14
1.04
0.96
0.97
0.99
0.93
0.93
0.89
0.95
0.93
0.94
0.91
0.97
1.04
0.99
0.97
0.96
0.94
0.93
0.98
0.99
0.96
1.0
1.04
0.96
0.93
0.97
0.99
1.08
1.01
1.11
1.11
1.11
1.12
1.01
1.05
1.01
0.94
0.92
0.92
0.91
0.89
0.92
1.22
1.23
1.0
0.99
0.99
0.98
0.97
0.94
0.94
0.96
0.97
0.96
0.94
0.96
0.94
0.92
0.98
0.97
0.95
0.97
0.99
0.99
0.97
0.99
1.04
0.99
0.98
1.02
1.02
0.98
0.98
0.99
0.96
0.95
0.94
0.93
0.88
0.9
0.94
0.82
0.84
0.84
0.84
0.88
0.91
0.87
0.93
0.89
0.91
0.87
0.87
0.86
0.87
0.86
0.84
0.82
0.82
0.81
0.85
0.87
0.89
0.9
0.95
1.11
1.08
1.02
0.97
0.97
0.96
0.99
0.94
0.94
1.02
0.96
0.95
0.92
0.98
1.0
0.95
0.91
0.9
0.9
1.02
1.01
1.02
0.97
1.06
1.07
0.92
0.9
0.96
0.98
0.95
0.94
1.0
1.13
1.06
1.03
1.05
1.08
0.95
0.9
0.92
0.95
1.37
1.37
1.18
1.08
1.06
1.06
1.02
0.98
0.97
0.98
0.98
0.93
0.99
0.98
1.04
1.03
0.98
0.96
1.02
0.98
0.92
0.91
0.97
1.01
0.99
0.98
1.02
1.02
0.95
0.91
0.91
0.94
1.02
1.06
0.98
1.08
1.09
1.0
1.16
1.16
1.11
1.08
1.04
1.06
1.01
0.96
0.96
0.94
0.97
0.98
1.07
0.99
1.01
1.1
1.03
0.97
1.08
1.07
1.0
0.95
1.03
1.01
1.03
0.97
1.06
1.08
1.02
0.95
1.09
1.1
1.0
0.97
0.99
0.93
0.92
0.97
0.89
0.85
0.87
0.97
0.9
0.96
0.97
0.93
0.91
0.93
0.99
0.9
0.95
0.92
0.94
0.91
0.89
0.88
0.92
0.89
0.87
0.85
0.84
0.88
0.9
0.91
0.96
0.93
0.92
0.89
0.88
0.88
0.88
0.88
0.87
0.9
0.93
0.94
0.9
0.91
0.92
0.92
0.93
0.88
0.89
0.89
0.89
0.89
0.94
0.92
0.91
0.89
0.87
0.87
0.88
0.86
0.85
0.84
0.83
0.88
0.99
0.98
1.06
1.14
1.15
1.04
1.02
0.97
0.93
0.87
0.85
0.84
0.84
0.87
0.88
0.9
1.28
1.28
1.1
1.05
1.01
1.01
0.93
0.92
0.91
0.88
0.97
1.0
0.99
1.18
1.15
1.15
1.11
1.0
0.98
0.99
1.0
0.92
0.91
0.9
0.97
1.27
1.27
1.12
1.11
1.08
1.07
1.02
1.01
0.98
0.98
1.01
1.02
1.03
1.07
1.07
0.98
0.94
0.94
0.88
0.86
0.86
0.84
0.83
0.85
0.87
1.01
0.93
1.04
0.96
1.02
1.01
0.99
0.91
0.96
0.98
1.03
1.04
1.0
1.0
1.01
0.98
0.98
0.99
0.98
0.98
1.04
1.06
1.03
1.01
0.99
1.0
0.96
0.95
0.96
1.05
1.02
1.0
1.0
1.06
1.06
0.99
0.97
1.06
0.95
1.02
0.96
1.04
0.93
0.93
0.91
0.96
0.96
0.91
0.89
0.87
0.82
0.88
0.79
0.83
0.83
0.81
0.8
0.79
0.77
0.76
0.76
0.76
0.76
0.77
0.77
0.77
0.76
0.78
0.79
0.81
0.88
1.07
1.22
1.15
1.05
1.04
1.12
1.18
1.2
1.17
1.26
1.18
1.1
1.03
1.01
1.01
1.09
1.12
1.18
1.32
1.27
1.18
1.05
1.05
1.12
1.1
1.08
1.09
1.17
1.18
1.1
1.03
1.0
1.09
1.18
1.13
1.06
1.01
1.11
1.24
1.14
1.08
1.09
1.13
1.11
1.05
1.0
1.03
1.11
1.09
1.05
1.15
1.17
1.12
1.07
1.07
1.02
0.99
0.94
0.94
0.94
0.98
1.0
1.06
1.12
1.05
0.97
0.93
0.98
1.03
1.04
1.25
1.26
1.12
1.04
0.98
1.02
0.98
0.98
1.01
1.03
1.04
0.98
0.96
0.98
0.98
0.95
0.95
0.97
0.97
0.98
0.96
0.96
0.96
0.98
1.0
0.97
1.02
1.04
1.04
0.99
0.95
1.02
1.04
1.01
0.99
0.97
1.0
1.0
1.02
0.97
0.96
1.0
1.01
0.99
0.97
0.96
0.98
0.97
0.94
0.94
0.99
1.04
1.0
0.99
1.0
1.0
0.97
0.97
0.94
1.0
1.04
0.99
0.96
0.98
1.01
1.05
1.02
1.0
1.04
1.04
1.0
0.98
0.99
1.02
0.99
0.96
0.98
1.01
0.97
0.94
0.94
0.95
0.97
0.98
0.97
1.07
1.08
0.99
1.04
1.01
0.94
0.98
0.99
0.97
0.94
1.01
1.01
1.05
1.06
1.0
0.97
0.96
0.99
1.01
1.01
0.98
0.98
1.04
1.01
1.0
0.96
1.0
0.98
0.98
0.96
0.98
0.98
0.97
0.96
0.98
0.98
0.96
0.96
1.01
1.07
1.03
1.01
1.08
1.1
1.07
0.98
1.03
1.02
0.99
0.98
1.0
1.01
1.06
0.96
0.93
0.96
1.05
1.07
1.05
1.16
1.1
1.06
1.1
1.02
1.05
1.02
0.99
0.97
0.98
1.03
1.0
0.95
0.94
0.96
0.95
0.97
0.95
0.95
1.01
1.07
0.93
0.96
1.03
1.02
1.02
1.11
1.04
0.97
1.06
1.06
1.07
0.98
0.99
0.99
1.02
0.99
0.98
1.05
1.08
1.01
1.01
1.03
1.0
1.0
1.01
1.06
1.08
1.0
0.98
0.97
1.0
1.04
1.06
1.07
1.38
1.38
1.07
1.02
1.03
1.02
0.99
0.94
1.02
1.08
1.11
1.04
1.0
1.04
1.01
1.03
1.02
0.99
1.03
1.04
1.06
1.04
1.05
1.05
1.04
1.03
0.99
1.03
1.02
1.03
1.0
0.96
0.98
1.0
1.02
1.0
1.0
1.05
1.06
1.02
0.99
0.96
1.04
1.02
1.02
1.04
1.05
1.01
0.99
1.0
1.04
0.98
0.98
0.99
1.02
1.0
0.97
0.94
0.98
1.03
0.98
0.95
0.98
1.01
0.97
0.95
1.02
1.03
0.95
0.97
0.95
0.98
0.97
0.96
0.96
1.05
1.07
1.04
1.0
1.01
1.01
1.03
1.01
0.99
1.0
1.02
1.03
1.0
0.97
1.01
1.0
0.97
0.95
0.93
0.97
0.99
1.0
1.01
1.12
1.13
1.03
0.99
1.02
1.01
1.01
1.0
1.01
1.05
1.05
1.04
0.97
0.98
1.04
1.03
0.99
1.05
1.1
1.07
1.02
1.06
1.05
1.01
0.97
1.02
1.01
0.96
0.94
0.95
0.99
1.01
0.99
1.04
1.05
1.02
1.05
1.05
1.03
0.98
0.97
0.98
1.0
0.96
0.95
0.96
1.02
0.98
0.96
0.95
1.0
1.07
1.02
0.99
1.07
1.09
1.01
0.96
1.06
0.98
0.99
0.96
1.04
1.12
1.09
1.05
1.08
1.08
1.09
1.01
0.99
0.97
0.96
0.97
0.97
1.03
1.05
1.03
1.0
1.0
0.99
0.99
0.99
0.95
0.97
0.98
0.98
0.95
0.96
1.02
0.99
0.98
1.03
0.97
0.99
0.98
0.96
0.99
0.95
0.99
1.03
0.95
0.95
0.95
1.02
0.95
0.96
0.93
0.97
0.94
0.93
0.94
0.97
1.03
0.99
0.99
0.99
0.96
0.91
0.89
0.86
0.84
0.8
0.84
0.9
0.96
0.95
1.0
1.01
0.99
1.04
0.99
0.97
1.0
1.0
1.02
1.03
0.99
0.97
0.98
1.03
1.01
0.99
1.0
1.02
1.05
1.03
0.99
0.94
0.96
0.96
1.06
1.04
1.06
1.04
1.02
1.0
0.99
1.02
1.03
0.99
0.98
0.97
0.96
0.99
1.0
1.03
1.08
1.14
1.14
1.04
1.0
1.02
0.95
0.94
0.96
1.03
1.01
1.0
1.07
1.06
1.01
0.97
0.99
1.05
1.01
1.0
1.07
0.98
1.03
1.0
0.95
0.97
0.96
0.96
0.93
0.95
0.98
0.98
1.07
1.01
0.99
1.04
1.01
0.99
0.99
0.94
0.92
0.93
0.93
0.95
0.86
0.96
0.97
1.02
1.02
1.03
1.04
0.95
1.04
1.04
1.07
1.03
1.03
1.04
1.03
0.99
1.06
0.97
1.02
0.99
1.02
1.05
1.0
0.98
1.06
1.04
1.04
1.0
1.04
1.09
1.11
1.05
1.01
1.02
1.05
0.93
0.95
0.94
0.94
0.92
0.95
1.01
0.98
1.03
1.08
1.03
1.05
0.95
1.03
0.94
0.86
0.87
0.91
0.84
0.85
0.87
0.84
0.85
0.87
0.87
0.91
1.03
0.99
1.01
0.98
1.04
1.03
1.04
1.0
0.98
0.98
0.99
1.05
1.05
1.03
1.01
0.97
1.0
1.04
1.07
1.07
1.03
1.07
1.06
1.07
1.07
1.01
1.13
1.14
1.03
1.0
0.96
1.07
1.02
1.02
1.13
1.14
1.02
1.11
1.02
0.95
0.97
0.98
0.94
1.04
1.1
1.03
1.08
1.09
1.01
1.11
1.0
1.01
1.04
0.94
1.01
0.97
0.96
0.95
0.96
1.01
0.98
1.0
1.08
1.17
0.95
0.99
0.97
0.98
0.97
0.95
0.93
0.95
0.99
0.98
0.96
1.02
1.13
0.99
1.02
1.0
1.04
1.07
1.02
0.99
1.0
1.0
0.98
0.97
0.94
0.98
0.98
0.96
0.98
1.06
1.07
1.01
1.08
0.98
1.02
0.98
1.03
0.92
0.97
0.95
0.98
0.99
0.95
0.98
0.93
0.9
1.03
1.0
1.07
0.99
0.97
1.0
1.01
0.99
1.05
1.09
1.02
0.97
0.96
0.9
0.92
1.0
0.95
1.01
0.97
1.06
0.93
0.95
0.98
0.9
1.02
1.03
1.06
1.05
0.93
1.0
0.92
0.95
1.06
0.94
1.09
1.07
1.13
1.04
1.0
1.01
1.02
0.93
0.95
0.99
0.87
0.94
0.92
0.95
1.06
1.01
0.93
0.98
0.99
0.97
0.97
0.93
0.9
0.9
0.89
0.87
0.89
1.04
1.04
1.22
1.22
1.09
1.09
1.08
0.99
0.92
0.99
0.98
0.96
0.95
0.95
0.97
1.06
1.23
1.23
1.06
1.11
1.11
1.07
1.03
1.04
1.01
0.95
0.99
0.98
1.07
1.03
0.94
0.99
1.03
0.99
0.95
1.01
1.07
1.12
1.03
1.07
1.02
1.06
1.03
1.0
0.97
0.95
0.97
0.97
0.96
0.94
0.93
0.96
1.01
0.99
1.0
1.06
1.06
1.0
0.98
1.01
1.04
1.01
0.99
1.06
0.97
1.05
0.97
0.92
0.9
0.94
1.02
1.03
1.05
1.31
1.32
1.06
1.06
1.07
1.05
0.97
0.98
1.01
1.02
1.02
0.98
0.96
0.94
0.93
0.92
0.91
0.93
0.99
1.08
1.03
1.02
1.09
1.1
1.03
0.99
1.02
1.02
1.01
0.98
0.95
0.96
0.98
1.01
1.0
1.03
1.11
1.12
1.05
0.99
0.99
1.02
0.99
0.95
0.97
1.05
1.06
1.02
0.99
1.03
1.02
1.04
0.97
0.96
1.01
1.0
0.98
0.98
0.98
0.98
0.99
0.97
0.95
0.96
0.97
0.96
0.96
1.09
1.1
1.0
1.05
1.0
1.01
0.99
0.98
0.96
0.98
1.03
1.02
1.01
0.98
0.98
0.96
0.94
0.95
1.0
1.03
1.08
1.01
0.98
1.04
1.05
1.03
0.98
0.96
0.99
1.02
0.99
0.97
0.98
0.99
0.98
0.97
0.94
0.97
0.99
1.01
0.99
0.95
0.93
0.92
0.91
0.91
1.1
1.11
1.05
1.07
1.1
1.07
1.01
1.02
1.04
1.03
1.03
1.01
0.99
0.97
0.99
1.09
1.1
1.05
1.02
1.07
1.1
1.08
1.02
0.98
1.0
1.03
1.02
0.97
0.92
0.93
0.97
0.96
0.97
0.97
1.0
0.99
0.97
0.95
0.98
0.97
0.98
0.96
0.94
0.96
0.98
0.96
0.97
1.03
1.07
1.08
1.03
1.0
1.02
1.03
1.0
0.98
0.98
0.98
1.03
0.99
0.97
0.98
0.97
0.93
0.91
0.93
0.98
1.02
0.98
0.98
1.0
0.99
1.01
1.0
0.94
1.01
1.0
1.03
1.05
0.98
1.01
1.04
1.0
0.97
1.04
1.04
1.01
0.99
0.98
0.97
0.93
0.94
0.92
0.95
1.02
1.05
1.02
1.14
1.15
1.1
1.02
1.01
1.0
1.0
0.96
0.96
0.99
1.03
1.05
0.97
0.98
0.98
0.97
0.95
0.91
0.92
0.94
0.96
0.96
0.93
0.97
1.03
1.02
1.02
0.95
0.94
1.02
0.98
1.01
1.04
1.12
1.08
1.02
1.03
1.07
1.04
1.0
0.98
0.98
1.0
1.01
1.0
0.96
0.96
0.99
1.07
1.04
0.97
1.01
1.06
1.07
1.02
1.0
1.03
1.03
0.96
0.96
0.98
1.0
1.0
0.96
0.94
0.96
0.98
1.01
0.95
0.94
0.98
0.99
1.01
0.98
0.95
0.98
0.96
0.98
0.96
0.95
0.97
0.99
1.04
1.01
1.04
1.16
1.17
1.05
1.0
1.04
1.03
1.01
0.96
0.94
0.98
1.02
0.99
0.99
1.03
1.09
1.06
1.03
0.96
0.97
0.99
1.0
0.99
0.98
1.05
1.08
1.03
1.01
1.05
1.06
0.98
0.97
0.98
0.99
0.99
0.95
0.94
1.01
1.04
1.01
0.96
0.94
0.97
0.94
0.93
0.91
0.92
0.93
0.97
0.96
0.93
0.94
0.92
0.9
0.9
0.88
0.89
0.9
0.88
0.89
0.88
0.89
0.88
0.89
0.9
0.92
0.98
1.0
1.04
1.01
1.04
1.0
1.01
0.99
0.98
1.0
1.0
0.98
1.04
1.02
1.0
1.02
1.0
0.98
0.98
1.08
1.01
0.99
0.91
0.96
1.03
1.03
1.0
1.06
1.04
0.97
0.97
1.0
1.01
0.98
0.96
0.96
0.94
0.95
0.94
0.99
1.06
0.95
0.95
0.99
1.0
0.96
0.98
1.03
1.04
0.91
0.95
0.94
0.97
1.02
0.99
0.98
1.02
1.07
0.99
0.96
0.96
0.96
0.95
0.93
0.94
0.96
0.98
0.95
0.95
0.93
0.97
0.94
0.92
0.92
0.93
0.93
0.9
0.92
0.96
0.94
0.93
0.96
0.98
1.0
0.97
0.94
0.96
1.0
1.0
0.96
1.02
1.03
0.97
0.95
0.97
1.02
0.99
0.97
0.96
0.99
1.01
0.95
0.94
0.98
1.04
0.99
0.96
0.97
1.01
0.99
0.96
0.96
1.01
1.03
0.98
0.95
0.97
0.98
0.96
0.94
0.96
0.99
0.99
0.95
1.02
1.06
1.02
0.98
0.94
0.95
0.95
0.95
0.91
0.93
0.95
0.93
0.94
0.98
1.0
0.99
0.96
0.98
1.01
0.97
0.95
0.93
0.93
0.92
0.9
0.88
0.89
0.89
0.89
0.91
0.95
1.06
1.06
0.99
0.97
0.98
0.98
0.93
0.92
0.9
0.97
1.01
0.99
0.97
0.96
1.01
1.01
0.97
0.95
0.93
0.92
0.93
0.9
0.92
0.92
0.96
1.0
0.98
1.03
1.04
1.01
0.95
0.94
0.92
0.93
0.96
0.94
0.95
0.96
0.95
0.98
1.05
1.0
0.97
0.98
1.01
0.96
0.94
0.93
0.94
0.97
0.96
0.94
0.96
0.99
0.96
0.95
0.95
0.96
0.99
0.95
0.93
0.94
0.94
0.97
0.93
0.92
0.99
1.0
0.99
0.98
1.02
1.0
0.95
0.92
0.94
0.96
0.99
0.98
0.98
0.99
1.0
0.98
0.96
0.99
0.99
1.01
0.97
0.96
1.0
1.04
0.99
0.97
0.97
1.0
1.01
0.96
0.97
0.97
0.97
0.94
0.93
0.94
0.98
1.01
1.02
0.96
0.96
0.97
0.95
0.93
0.93
0.96
0.97
0.96
0.95
0.98
0.98
0.97
0.94
0.94
0.96
0.96
0.94
0.94
0.98
1.0
0.97
0.94
0.98
0.99
0.98
0.93
0.92
0.93
0.93
0.92
0.91
0.92
0.94
0.93
0.95
0.99
1.07
1.01
1.02
0.95
0.98
0.94
0.94
0.94
0.97
0.96
0.94
0.95
0.99
1.03
0.98
0.95
0.96
0.97
0.99
0.93
0.95
0.97
1.01
1.0
0.95
0.95
1.0
1.0
0.97
0.96
1.01
1.02
0.98
0.98
0.98
1.0
1.01
0.96
0.95
1.0
1.02
0.95
0.93
0.92
0.95
0.96
0.91
0.9
0.88
0.91
0.91
0.94
0.97
1.05
1.06
0.99
0.98
1.01
1.01
0.96
0.93
0.95
0.96
1.02
0.97
0.94
0.97
1.0
0.98
0.96
0.97
1.0
0.98
0.94
0.93
0.94
0.96
0.95
0.97
0.95
0.98
0.99
0.95
0.94
0.95
0.94
0.92
0.9
0.89
0.91
0.93
0.93
0.94
0.95
0.96
0.99
0.93
0.94
1.01
1.04
1.0
0.97
1.02
1.01
0.99
0.97
0.97
1.0
1.02
0.95
0.96
0.95
1.0
0.97
0.98
0.94
0.96
0.92
0.94
0.94
1.0
1.07
1.07
0.97
0.99
0.99
0.98
0.95
0.92
0.98
0.98
0.96
0.94
0.96
1.01
1.05
0.97
0.98
1.0
1.03
1.0
0.94
0.95
1.02
1.02
0.98
0.96
0.98
1.02
1.01
0.94
0.95
0.95
0.99
0.96
0.96
0.97
1.01
1.03
0.99
0.96
0.99
1.01
0.99
0.96
0.96
0.99
0.97
0.94
0.92
0.92
0.95
0.94
0.93
0.92
0.95
0.96
0.95
0.91
0.92
0.96
0.98
0.96
0.95
1.02
1.02
1.02
0.98
0.94
0.95
0.98
0.98
0.95
0.93
0.99
1.02
0.99
0.96
0.96
1.03
1.03
0.97
0.94
0.97
0.96
0.93
0.93
0.92
0.94
0.96
0.95
0.92
0.91
0.99
0.97
0.95
0.94
0.94
0.98
0.95
0.96
0.97
0.94
0.96
0.91
0.92
0.91
0.9
0.9
0.9
0.9
0.93
0.94
0.96
0.95
0.97
0.99
0.97
0.96
1.02
0.99
0.98
0.95
0.94
0.99
1.02
0.96
0.94
0.96
0.98
0.98
0.97
0.93
0.97
0.95
0.93
0.93
0.92
0.99
1.02
0.97
0.95
0.97
0.98
0.97
0.95
0.94
0.93
0.98
0.94
0.93
0.93
0.98
0.96
0.91
0.91
0.92
0.95
0.96
0.91
0.92
0.93
1.03
0.96
0.93
0.88
0.84
0.84
0.85
0.85
0.83
0.81
0.73
0.73
0.84
0.85
0.74
0.75
0.74
0.74
0.74
0.73
0.73
0.72
0.72
0.72
0.71
0.71
0.7
0.72
0.71
0.72
0.74
0.76
0.78
0.79
0.81
0.83
0.84
0.85
0.87
0.95
1.09
1.03
1.08
1.05
1.06
1.09
1.04
0.93
0.88
0.84
0.79
0.78
0.77
0.76
0.79
0.81
0.8
0.78
0.81
0.8
0.79
0.78
0.76
0.77
0.75
0.75
0.68
0.68
0.79
0.8
0.73
0.75
0.78
0.81
0.84
0.84
0.79
0.82
0.81
0.82
0.81
0.83
0.85
0.86
0.84
0.84
0.82
0.83
0.85
0.86
0.83
0.84
0.83
0.83
0.83
0.83
0.86
0.82
0.83
0.85
0.9
0.97
1.08
1.21
1.21
1.08
1.11
1.09
1.09
1.07
1.08
1.1
1.12
1.03
1.04
1.07
1.0
1.03
1.17
1.11
0.98
0.97
1.04
1.01
0.96
0.96
1.02
0.96
0.92
0.93
0.88
0.96
0.91
0.91
0.98
0.99
0.99
0.96
1.06
0.95
1.06
0.96
0.94
1.02
0.94
1.04
0.96
0.96
0.95
1.06
1.02
0.98
1.09
1.02
0.97
0.97
1.03
1.03
0.96
0.97
1.03
1.02
0.96
0.98
0.92
1.04
0.98
1.02
1.03
1.04
1.0
0.9
0.94
0.98
0.98
0.95
0.95
1.08
1.06
1.07
0.98
0.98
1.04
1.09
0.98
0.95
1.03
1.02
0.98
0.93
0.93
0.92
1.03
1.03
0.97
1.11
1.08
1.01
0.96
1.0
1.0
0.99
0.89
0.96
0.99
1.0
0.95
0.94
1.04
1.09
1.01
0.96
0.95
0.99
1.07
1.01
0.97
0.96
1.04
1.05
0.98
0.95
1.0
0.99
0.98
0.95
0.94
0.95
0.96
0.95
0.96
1.02
1.06
1.04
0.97
0.98
1.04
1.02
0.96
0.95
1.0
0.98
0.95
0.94
0.97
1.01
1.13
0.96
0.96
0.95
1.01
0.94
0.94
0.93
0.95
1.02
0.94
0.95
1.04
1.07
1.01
0.95
0.99
1.02
1.01
0.96
0.92
0.97
1.01
1.0
0.98
1.01
1.04
0.98
0.95
1.02
1.06
1.03
0.98
0.93
0.98
1.0
0.96
0.91
0.91
0.93
0.95
0.99
0.93
0.92
0.96
1.01
0.99
0.94
0.93
0.98
1.01
0.94
0.92
0.96
0.98
0.98
0.94
0.91
0.95
0.95
0.97
0.96
0.94
1.0
1.04
0.98
0.93
0.92
0.94
1.01
1.03
0.97
0.96
0.96
0.98
0.95
0.95
0.96
1.03
1.04
0.97
0.94
0.97
0.97
0.99
0.94
0.93
0.97
0.97
0.95
0.94
0.95
0.95
1.0
1.0
0.95
0.97
1.0
1.0
0.94
0.93
0.97
0.98
0.94
0.93
0.9
0.97
1.0
0.98
0.95
0.96
0.99
1.01
0.94
0.93
0.95
1.01
0.99
0.95
0.92
0.96
0.97
0.94
0.94
0.91
0.96
0.99
0.95
0.95
0.96
0.98
1.0
0.96
0.93
1.01
1.01
1.01
0.95
0.93
0.97
1.01
0.96
0.93
0.93
0.97
0.99
0.95
0.93
0.92
0.94
0.94
0.93
0.89
0.88
0.91
0.94
0.93
0.92
0.91
0.95
0.99
0.93
0.91
0.93
0.94
0.95
0.91
0.91
0.92
0.99
0.98
0.93
0.91
0.93
0.96
0.94
0.91
0.9
0.96
1.01
1.01
0.92
0.96
0.98
0.95
0.94
0.93
0.94
0.98
0.93
0.92
0.94
0.95
1.01
0.96
0.95
0.97
1.01
0.97
0.94
0.92
0.93
0.92
0.9
0.9
0.89
0.97
0.97
0.99
0.96
0.94
1.0
1.03
1.01
0.98
0.95
1.01
1.02
0.98
0.92
0.91
0.94
0.99
0.95
0.94
0.93
0.97
0.98
0.95
0.92
0.96
0.96
0.96
0.94
0.92
0.96
0.98
0.96
0.93
0.92
0.95
0.95
0.9
0.91
0.95
0.97
0.93
0.91
0.91
0.95
0.94
0.93
0.9
0.96
1.01
0.98
0.97
0.95
0.98
0.97
0.94
0.94
0.94
0.99
1.02
0.97
0.95
1.04
1.05
1.03
0.96
0.93
0.96
0.97
0.96
0.94
0.9
0.94
0.97
0.99
0.95
0.91
0.97
0.96
1.0
0.95
0.92
0.96
0.99
0.97
0.93
0.9
0.95
0.96
0.95
0.93
0.93
0.98
0.97
0.93
0.9
0.92
0.93
0.94
0.9
0.89
0.92
0.96
0.98
0.95
0.93
0.95
0.97
0.99
0.94
0.91
0.94
0.95
0.96
0.93
0.91
0.93
0.95
0.93
0.92
0.89
0.94
0.96
0.93
0.91
0.94
0.98
1.02
0.94
0.93
0.92
0.96
0.97
0.93
0.91
0.92
0.96
0.97
0.93
0.92
0.96
0.98
0.99
0.94
0.92
1.0
0.99
0.93
0.92
0.9
0.95
1.0
0.97
0.94
0.93
0.97
0.95
0.91
0.92
0.93
0.98
1.0
0.93
0.91
0.92
0.95
0.96
0.91
0.91
0.91
0.94
0.97
0.94
0.93
0.96
0.96
0.99
0.93
0.91
0.94
0.95
0.96
0.91
0.9
0.9
0.92
0.92
0.9
0.89
0.91
0.94
0.97
0.94
0.94
0.96
1.0
1.01
0.92
0.93
0.98
0.99
0.92
0.9
0.92
0.98
0.95
0.9
0.96
0.99
0.97
0.92
0.93
0.98
1.01
0.96
0.91
0.94
0.96
0.96
0.93
0.91
0.94
1.0
1.01
0.92
0.91
0.92
0.96
0.91
0.91
0.9
0.96
0.98
0.96
0.99
0.96
0.99
1.0
0.95
0.91
0.94
1.01
1.01
0.94
0.91
0.95
0.97
0.99
0.93
0.92
0.95
0.97
0.95
0.92
0.94
0.96
0.99
0.94
0.92
0.97
0.97
0.97
0.93
0.9
0.92
0.98
0.98
0.97
0.94
1.0
1.02
0.99
0.93
0.92
0.97
0.98
0.94
0.92
0.92
0.96
1.01
0.96
0.93
0.93
0.97
0.93
0.92
0.91
0.94
0.96
0.91
0.91
0.94
0.97
1.0
0.93
0.93
0.95
0.95
0.98
0.94
0.93
0.98
0.98
0.96
0.93
0.96
0.99
1.0
0.95
0.92
0.89
0.92
1.0
0.99
0.94
0.93
0.98
0.97
0.94
0.92
0.91
0.95
0.99
0.97
0.95
0.96
0.98
0.98
0.95
0.91
0.91
0.97
0.97
0.94
0.92
0.99
1.02
0.97
0.94
0.92
0.96
1.0
0.94
0.92
0.9
0.96
0.96
0.94
0.92
0.9
0.95
0.96
0.95
0.9
0.89
0.94
0.96
0.93
0.91
0.93
0.95
0.93
0.9
0.89
0.9
0.96
0.97
0.93
0.91
0.96
0.99
0.97
0.95
0.92
0.95
0.98
0.95
0.94
0.93
1.0
0.99
0.99
0.94
0.95
0.97
1.01
1.05
0.98
0.95
0.98
1.02
1.01
0.95
0.92
0.95
0.99
1.0
0.94
0.91
0.96
0.99
0.94
0.91
0.93
0.95
0.94
0.93
0.91
0.96
0.99
0.97
0.92
0.92
0.95
0.97
0.99
0.96
0.93
0.98
0.99
0.96
0.93
0.92
0.97
1.06
1.01
0.96
0.95
0.99
1.0
0.95
0.93
0.93
0.95
0.96
0.93
0.9
0.94
0.96
0.94
0.91
0.9
0.95
1.02
0.97
0.95
1.01
1.0
0.97
0.94
0.9
0.93
0.95
0.94
0.9
0.92
0.94
0.96
0.92
0.92
0.93
1.01
0.95
0.93
0.92
0.96
1.0
0.95
0.92
0.9
0.92
0.96
0.91
0.9
0.91
0.94
0.93
0.91
0.9
0.91
0.96
0.95
0.93
0.92
0.93
0.94
0.98
0.92
0.91
0.95
0.96
0.98
0.93
0.92
0.95
1.0
0.96
0.95
0.97
0.99
1.02
0.97
0.93
0.96
0.99
0.97
0.94
0.96
0.99
1.0
0.96
0.93
0.95
0.98
1.0
0.94
0.92
0.96
0.96
0.95
0.91
0.91
0.95
0.98
0.98
0.94
0.91
0.95
1.02
0.96
0.94
0.93
0.99
1.0
0.94
0.94
0.94
0.98
1.02
0.95
0.92
0.97
0.97
0.94
0.91
0.9
0.94
0.96
0.92
0.9
0.93
0.94
0.99
0.96
0.91
0.96
0.99
0.97
0.94
0.94
0.97
0.99
0.96
0.91
0.9
0.94
0.95
0.96
0.95
0.95
0.96
0.99
0.94
0.91
0.92
0.95
0.96
0.95
0.92
0.98
1.02
0.98
0.94
0.95
0.98
0.98
0.93
0.91
0.94
0.97
1.0
0.94
0.91
0.94
0.96
0.94
0.91
0.9
0.93
0.98
0.93
0.9
0.9
0.93
0.94
0.91
0.94
0.98
1.01
1.01
0.93
0.93
0.91
0.96
0.91
0.9
0.91
0.96
0.96
0.93
0.91
0.96
0.98
0.94
0.92
0.9
0.94
0.98
0.99
0.93
0.91
0.95
0.97
0.96
0.93
0.93
0.92
0.97
0.95
0.92
0.91
0.93
0.95
0.91
0.88
0.88
0.91
0.96
0.96
0.93
0.91
0.92
0.95
0.96
0.92
0.9
0.94
0.98
0.96
0.93
0.9
0.96
0.98
0.98
0.92
0.91
0.95
0.97
0.94
0.93
0.92
0.95
0.98
0.93
0.9
0.94
0.95
0.97
0.91
0.91
0.93
0.96
0.97
0.93
0.91
0.94
0.97
0.98
0.91
0.91
0.93
0.97
0.92
0.91
0.89
0.94
0.98
0.93
0.91
0.93
0.96
0.96
0.92
0.89
0.94
0.95
0.93
0.9
0.94
1.03
0.99
0.94
0.92
0.94
0.93
0.93
0.91
0.91
0.91
0.92
0.96
0.94
0.92
0.93
0.96
0.99
0.94
0.93
0.94
1.01
1.04
0.94
0.92
0.95
0.99
0.99
0.96
0.92
0.96
1.01
1.0
0.94
0.94
0.97
1.0
1.02
0.95
0.92
0.93
0.95
1.02
0.96
0.9
0.91
0.94
0.95
0.96
0.96
1.01
1.08
1.02
0.97
0.98
1.03
1.0
0.94
0.91
0.95
0.96
0.96
0.91
0.92
0.95
0.97
0.95
0.93
0.92
0.96
1.0
0.94
0.91
0.88
0.89
0.93
0.93
0.93
0.96
1.01
0.97
0.95
0.94
1.01
1.01
0.96
0.95
0.94
1.04
1.01
0.98
0.96
0.99
1.03
0.99
0.94
0.94
0.97
1.0
1.02
0.93
0.91
0.95
0.95
0.98
0.93
0.94
0.95
0.99
0.95
0.94
0.93
0.94
0.94
0.91
0.89
0.89
0.92
0.97
1.0
0.96
0.95
0.98
1.01
0.98
0.94
0.93
0.97
0.98
0.95
0.94
0.96
0.98
1.03
0.95
0.91
0.92
0.98
0.98
0.93
0.91
0.94
1.02
0.97
0.96
0.93
0.97
1.0
0.98
0.92
0.87
0.97
0.99
0.98
0.93
0.92
1.02
1.0
0.94
0.91
0.92
0.96
0.98
0.95
0.93
0.99
0.98
0.99
0.94
0.91
0.95
0.96
1.01
0.95
0.95
0.98
1.02
1.01
0.95
0.91
0.95
0.96
0.97
0.92
0.9
0.97
1.01
0.98
0.93
0.94
0.96
0.94
0.9
0.9
0.9
0.94
0.92
0.93
0.94
1.0
0.97
0.97
0.93
0.9
0.94
0.95
0.95
0.91
0.91
0.92
0.95
0.96
0.93
0.91
0.93
1.01
0.95
0.95
0.93
0.93
0.98
0.92
0.91
0.92
0.96
1.06
0.99
0.96
0.98
1.0
0.99
0.94
0.91
0.94
0.95
0.97
0.92
0.91
0.93
0.96
0.94
0.92
0.91
0.96
0.96
0.94
0.92
0.91
0.94
0.96
0.91
0.9
0.91
0.94
0.95
0.91
0.91
0.91
0.94
1.0
0.95
0.91
0.91
0.95
0.98
0.95
0.93
0.95
1.01
0.98
0.93
0.9
0.96
0.97
0.97
0.93
0.91
0.95
0.96
0.93
0.91
0.89
0.92
0.95
0.96
0.91
0.9
0.91
0.95
0.9
0.87
0.87
0.9
0.96
0.92
0.89
0.9
0.99
0.97
0.91
0.89
0.91
0.95
0.96
0.89
0.9
0.92
0.95
0.96
0.89
0.88
0.89
0.92
0.91
0.9
0.89
0.92
0.96
0.95
0.93
0.91
0.93
0.99
0.99
0.92
0.92
0.93
0.98
0.98
0.93
0.91
0.95
1.01
0.98
0.97
0.93
0.97
1.01
1.01
0.94
0.91
0.89
0.86
0.85
0.83
0.82
0.8
0.8
0.81
0.82
0.8
0.79
0.79
0.8
0.86
0.88
0.87
0.92
0.99
0.98
1.03
1.09
1.07
1.02
1.1
1.1
1.06
0.99
0.93
0.93
1.01
1.03
0.99
0.98
1.16
1.14
1.05
1.09
1.11
1.08
0.98
0.96
0.99
1.06
1.0
0.96
1.05
1.1
1.03
0.95
0.94
1.03
1.08
1.0
0.97
1.05
1.08
1.04
0.99
1.01
1.09
1.03
0.99
0.97
1.07
1.07
0.99
0.98
0.98
1.0
1.03
0.95
0.92
0.94
0.99
0.95
0.94
0.96
1.0
0.97
0.93
0.9
0.91
0.96
0.99
0.95
0.95
1.04
1.09
1.03
1.0
0.97
1.0
1.03
0.97
0.94
0.97
0.99
1.04
0.98
0.95
1.03
1.03
0.99
0.98
1.02
1.06
1.06
0.95
0.96
1.03
1.04
1.0
0.97
0.94
0.97
1.02
1.01
0.95
0.91
0.94
0.96
0.98
0.93
0.93
0.96
1.0
1.0
0.93
0.91
0.96
0.96
0.92
0.92
0.95
1.01
0.99
0.95
0.95
1.01
1.04
0.98
0.94
0.95
0.96
1.0
0.92
0.9
0.91
0.94
0.97
0.93
0.91
0.97
1.0
0.97
0.93
0.95
0.97
0.98
0.91
0.9
0.89
0.9
0.96
0.93
0.91
0.91
0.95
0.99
1.0
0.95
0.92
0.94
0.96
0.97
0.92
0.9
0.95
0.94
0.96
0.92
0.91
0.96
1.02
0.95
0.94
0.93
0.98
1.02
0.97
0.95
0.95
0.96
0.97
0.95
0.92
0.98
1.0
0.96
0.94
0.91
0.97
0.96
0.97
0.93
0.93
0.94
0.96
0.95
0.91
0.97
0.97
0.95
0.91
0.97
0.99
0.98
0.92
0.91
0.95
1.01
0.99
0.93
0.91
0.91
0.93
0.97
0.91
0.9
0.97
1.0
0.99
0.96
1.0
1.06
0.99
0.95
0.91
0.95
0.97
0.93
0.92
0.89
0.92
0.96
0.92
0.91
0.89
0.95
1.01
0.94
0.92
0.92
0.96
0.98
0.94
0.91
0.93
0.96
0.94
0.9
0.9
0.93
0.96
0.95
0.92
0.92
0.96
0.99
0.98
0.94
0.92
0.96
0.98
0.96
0.92
0.9
0.93
0.92
0.92
0.9
0.89
0.9
0.96
0.94
0.9
0.9
0.97
0.96
0.92
0.92
0.92
0.97
1.03
0.97
0.95
0.97
0.97
0.99
0.93
0.91
0.95
0.96
0.96
0.93
0.9
0.92
0.95
0.93
0.92
0.92
0.97
0.94
0.93
0.9
0.92
0.96
0.93
0.91
0.89
0.92
0.94
0.98
0.94
0.92
0.92
0.97
0.97
0.93
0.91
0.93
0.97
0.98
0.93
0.92
0.94
0.93
0.95
0.91
0.89
0.88
0.96
1.02
1.0
0.96
0.94
0.96
1.01
0.94
0.91
0.92
0.93
0.9
0.9
0.9
0.96
1.02
0.94
0.93
0.91
0.96
1.0
0.95
0.92
0.92
0.94
0.95
0.92
0.89
0.93
0.94
0.92
0.89
0.88
0.88
0.9
0.88
0.86
0.88
0.89
0.91
0.9
0.88
0.92
0.94
0.97
0.91
0.89
0.9
0.96
0.94
0.92
0.9
0.92
0.99
0.97
0.94
0.92
0.98
0.99
0.94
0.93
0.93
0.92
0.95
0.92
0.9
0.96
1.06
1.07
1.0
0.95
0.98
1.0
0.96
0.91
0.92
0.95
1.0
0.93
0.9
0.9
0.94
0.96
0.92
0.9
0.88
0.92
0.96
0.91
0.9
0.9
0.96
1.02
0.96
0.92
0.96
1.0
1.03
0.97
0.92
0.95
0.96
0.96
0.93
0.9
0.96
1.02
0.97
0.93
0.93
0.93
0.92
0.91
0.89
0.89
0.97
1.05
1.03
0.94
0.94
0.97
0.99
0.91
0.89
0.94
0.97
0.98
0.91
0.89
0.92
0.92
0.92
0.91
0.88
0.94
0.98
0.97
0.93
0.91
0.96
0.97
0.95
0.91
0.89
0.9
0.93
0.94
0.91
0.91
0.95
1.02
0.98
0.92
0.9
0.93
1.01
0.98
0.93
0.93
0.95
0.98
0.96
0.92
0.91
0.96
0.99
0.93
0.91
0.94
1.0
0.97
0.93
0.91
0.98
0.96
0.93
0.9
0.9
0.91
0.94
0.91
0.9
0.91
0.98
0.99
0.93
0.94
0.97
0.96
0.94
0.91
0.91
0.97
1.0
1.01
0.95
0.95
0.99
0.98
0.92
0.9
0.93
0.97
0.91
0.88
0.89
0.93
0.92
0.9
0.89
0.93
0.96
0.9
0.89
0.91
0.9
0.91
0.89
0.88
0.93
0.97
0.96
0.92
0.91
0.95
1.0
0.94
0.92
0.92
0.96
0.97
0.93
0.91
0.95
0.96
0.94
0.9
0.88
0.92
0.98
0.93
0.93
0.91
0.98
0.96
0.93
0.88
0.9
0.93
0.96
0.91
0.9
0.9
0.93
0.93
0.92
0.9
0.94
0.95
0.92
0.89
0.88
0.92
0.95
0.98
0.94
0.92
1.0
1.05
1.04
0.96
0.92
0.96
1.03
0.97
0.94
0.92
0.97
0.94
0.93
0.91
0.9
0.96
1.01
0.95
0.94
0.93
0.94
0.94
0.91
0.89
0.92
0.95
0.91
0.88
0.89
0.93
0.92
0.91
0.9
0.96
0.99
0.97
0.93
0.91
0.93
0.97
0.93
0.92
0.89
0.94
0.96
0.92
0.9
0.94
0.94
0.94
0.91
0.9
0.91
0.94
0.92
0.89
0.9
0.92
0.95
0.91
0.9
0.97
1.06
1.01
0.94
0.9
0.94
0.97
0.96
0.92
0.91
0.95
0.98
0.96
0.92
0.9
0.95
1.01
0.96
0.93
0.96
0.99
0.98
0.94
0.93
0.95
0.94
0.96
0.91
0.91
0.92
0.93
0.97
0.93
0.93
0.99
1.04
1.02
0.95
0.93
0.97
0.99
0.97
0.93
0.89
0.9
0.97
0.99
0.93
0.91
0.96
0.98
0.97
0.93
0.9
0.91
0.96
0.95
0.9
0.88
0.9
0.97
0.92
0.91
0.9
0.95
0.96
0.96
0.92
0.91
0.9
0.87
0.86
0.86
0.85
0.85
0.9
0.93
0.95
0.93
0.95
1.0
1.01
0.95
0.93
0.94
0.96
0.92
0.92
0.95
0.99
1.02
0.98
0.96
1.08
1.09
1.01
0.97
0.93
0.94
0.95
0.92
0.9
0.93
1.02
0.96
0.93
0.96
1.03
0.98
0.94
0.98
1.03
1.04
0.98
1.0
1.01
1.02
0.93
0.91
0.96
0.97
0.93
0.93
0.93
0.99
1.02
0.97
0.94
0.97
0.96
0.93
0.9
0.92
0.97
0.96
0.95
0.93
0.96
0.98
0.95
0.93
0.99
1.03
0.97
0.93
0.94
0.98
1.01
0.96
0.94
0.97
1.02
1.02
0.97
0.97
1.0
0.97
0.92
0.92
0.94
1.02
0.95
0.94
0.95
0.98
0.98
0.93
0.93
0.94
0.98
1.0
0.94
0.92
0.97
1.02
0.97
0.94
0.95
1.02
1.0
0.98
0.95
1.02
1.02
0.96
0.94
0.96
1.0
1.01
0.97
0.96
1.01
1.04
0.97
0.92
0.94
0.96
0.96
0.94
0.93
0.99
1.03
1.03
0.93
0.95
1.05
1.01
0.95
0.93
0.94
0.96
0.92
0.87
0.89
0.92
0.91
0.9
0.9
0.94
1.02
0.95
0.93
0.94
0.96
1.01
0.93
0.89
0.92
0.97
0.98
0.93
0.93
0.99
0.99
0.94
0.91
0.88
0.92
0.99
0.92
0.91
0.92
0.96
0.98
0.92
0.92
0.96
0.98
0.91
0.91
0.93
1.0
0.97
0.94
0.9
0.94
0.98
0.98
0.95
0.94
1.0
0.99
0.94
0.9
0.95
1.0
0.99
0.92
0.9
0.93
0.93
0.91
0.88
0.9
0.93
0.93
0.92
0.89
0.9
0.91
0.89
0.85
0.85
0.86
0.87
0.87
0.83
0.81
0.8
0.78
0.77
0.75
0.76
0.75
0.61
0.61
0.77
0.78
0.73
0.74
0.79
0.83
1.27
1.23
1.32
1.26
1.18
1.13
1.22
1.22
1.1
1.11
1.31
1.32
1.11
1.16
1.3
1.15
1.03
1.1
0.97
0.94
0.94
1.01
1.03
0.93
0.97
1.07
0.97
0.91
0.98
1.0
0.94
0.87
0.9
0.93
0.95
0.89
0.94
1.05
0.99
0.9
0.95
1.0
0.93
0.91
1.11
1.03
0.94
0.91
1.03
1.09
0.96
0.92
0.95
0.96
0.91
1.05
1.11
1.28
1.13
0.99
0.95
0.87
0.86
0.97
1.06
0.93
0.94
0.91
0.86
0.86
0.93
0.98
0.92
0.93
1.07
1.05
0.96
0.99
1.03
0.99
0.92
0.93
0.94
0.92
1.02
1.0
0.94
0.92
0.95
1.13
0.98
0.93
0.98
1.09
1.01
0.92
0.91
1.07
1.04
0.95
0.94
1.04
1.0
0.93
0.9
0.91
0.87
0.85
0.83
0.85
0.95
0.9
0.92
0.96
0.96
0.87
0.88
0.92
0.95
0.9
0.87
0.91
1.02
1.0
0.94
0.89
0.94
1.01
0.94
0.91
0.94
1.06
1.08
0.95
0.92
1.02
1.04
1.01
0.92
0.91
1.0
1.05
0.91
0.86
0.84
0.86
0.89
0.87
0.86
1.0
1.07
0.96
0.9
0.95
0.93
0.87
0.87
0.88
0.99
0.89
0.89
0.91
0.96
1.02
0.93
0.91
0.97
1.06
1.0
0.99
1.08
1.12
1.02
0.93
0.97
1.04
1.0
0.95
0.97
1.14
1.14
1.0
0.99
1.01
0.92
0.88
0.89
0.89
0.85
0.84
0.84
0.85
0.83
0.81
0.8
0.79
0.8
0.82
0.84
0.85
0.89
1.09
1.02
0.93
0.94
1.0
0.95
0.97
0.89
0.91
1.0
0.99
0.91
0.89
0.9
0.94
1.03
0.98
0.96
1.06
1.06
0.96
0.92
0.94
0.99
1.04
0.94
0.93
0.92
0.97
0.98
0.93
0.92
1.15
1.15
1.01
0.97
1.0
1.0
0.94
0.89
0.95
0.93
0.89
0.85
0.87
0.88
0.85
0.84
0.88
0.91
0.87
0.89
0.95
0.89
0.86
0.85
0.88
0.93
0.88
0.85
0.88
0.94
0.95
0.89
0.9
0.93
0.98
0.92
0.91
0.89
1.0
0.99
0.91
0.88
0.88
0.92
0.97
0.91
0.91
1.01
1.05
0.97
0.93
0.96
1.01
0.99
0.91
0.91
0.99
1.05
0.91
0.9
0.86
0.85
0.83
0.83
0.87
0.88
0.89
0.95
1.03
1.04
0.94
1.01
1.03
0.93
0.9
0.92
0.98
0.93
0.89
0.86
0.9
1.09
1.09
1.02
1.01
1.04
1.05
0.94
0.91
0.99
0.99
0.93
0.9
0.94
0.97
0.94
0.9
0.88
0.92
0.99
0.92
0.9
0.92
0.99
0.93
0.9
0.9
0.95
0.91
0.9
0.88
0.92
0.91
0.9
0.87
0.95
0.94
0.89
0.85
0.84
0.83
0.81
0.81
0.84
0.83
0.81
0.86
0.87
0.88
0.85
0.87
0.87
0.85
0.85
0.86
0.91
0.86
0.84
0.87
0.92
1.01
1.0
0.93
0.95
1.0
1.07
1.01
0.98
1.04
1.04
0.94
0.9
0.94
1.01
0.95
0.93
0.95
1.1
1.02
0.94
0.89
0.94
0.98
0.89
0.89
0.9
0.92
0.87
0.86
0.85
0.89
0.84
0.82
0.8
0.77
0.76
0.76
0.73
0.73
0.72
0.72
0.61
0.61
0.8
0.81
0.71
0.7
0.7
0.7
0.71
0.7
0.71
0.7
0.73
0.76
0.75
0.79
0.85
0.89
0.93
1.13
1.13
0.94
0.88
0.88
0.93
1.04
1.02
1.02
1.08
1.09
1.0
1.06
1.17
1.03
0.92
0.97
0.91
0.88
0.88
0.89
0.97
0.96
0.91
0.9
0.86
0.83
0.83
0.81
0.82
0.83
0.86
0.93
1.01
0.98
0.98
0.98
1.0
1.01
0.97
1.02
1.04
1.05
1.0
1.0
0.97
0.97
1.06
1.09
1.09
1.01
1.02
0.93
0.91
0.94
1.01
0.92
0.91
0.97
0.96
0.94
0.89
0.94
0.97
0.97
0.92
0.93
0.94
0.96
0.95
0.96
1.02
0.99
0.96
0.94
0.96
0.96
0.92
0.92
0.96
1.02
1.04
0.97
0.95
1.03
1.03
0.95
0.94
0.98
1.0
0.96
0.93
1.0
1.07
0.98
0.95
1.06
0.91
0.84
0.89
0.92
0.87
0.89
0.9
0.88
0.87
0.86
0.86
0.87
0.86
0.89
0.92
0.92
0.94
0.96
0.98
0.92
0.93
0.91
0.92
0.91
0.89
0.89
0.92
0.98
0.94
0.9
0.94
1.04
1.06
0.96
0.97
1.12
1.09
0.99
0.96
1.08
1.09
0.94
0.91
0.97
1.07
0.97
1.02
1.03
0.88
0.89
0.86
0.9
0.9
0.86
0.87
0.87
0.86
0.86
0.85
0.86
0.88
0.88
0.88
0.97
0.99
0.92
0.93
0.93
0.96
0.94
0.91
0.94
0.96
1.0
0.99
0.95
0.91
0.92
0.97
0.94
0.92
0.93
1.06
1.06
0.96
0.96
1.08
1.08
0.96
0.97
1.02
1.03
0.96
0.92
0.95
0.95
0.87
0.86
0.89
0.89
0.88
0.93
0.85
0.87
0.85
0.86
0.86
0.85
0.85
0.88
0.95
0.94
0.91
0.95
0.99
0.98
0.94
0.91
0.93
0.93
0.93
0.95
0.93
0.92
0.96
0.99
0.98
0.94
0.94
1.04
1.12
1.01
0.96
0.98
1.06
1.02
0.96
0.96
1.09
1.09
0.97
0.97
1.01
1.01
0.95
0.87
0.87
0.89
0.87
0.86
0.88
0.92
0.87
0.9
0.93
0.92
0.91
0.94
1.0
0.93
0.9
0.92
0.95
0.94
0.91
0.9
0.95
0.96
0.99
0.95
0.89
0.92
0.95
1.01
0.97
0.94
1.0
1.09
0.98
0.95
0.92
1.01
0.96
0.92
0.96
0.98
0.91
0.87
0.87
0.91
0.92
0.94
0.98
0.98
0.99
0.91
0.92
0.96
0.94
0.98
1.01
0.99
0.94
0.93
1.0
1.07
0.97
0.94
0.99
1.01
1.02
0.93
0.94
1.06
0.99
0.95
1.0
0.96
0.93
0.92
0.92
0.87
0.87
0.91
0.88
0.88
0.9
0.88
0.86
0.86
0.89
0.86
0.87
0.94
0.96
0.92
0.9
0.96
0.96
0.89
0.92
0.94
0.93
0.93
0.92
0.94
0.98
0.97
0.95
0.93
0.98
1.07
1.12
0.99
0.95
0.96
1.06
1.1
0.97
0.95
1.0
0.99
0.95
0.98
1.11
1.11
1.07
1.01
1.02
0.97
0.95
0.95
0.9
0.9
0.89
0.89
0.93
0.88
0.88
0.9
0.9
0.89
0.88
0.9
0.89
0.9
0.92
1.01
0.93
0.92
0.96
1.0
0.91
0.89
0.91
0.97
0.9
0.88
0.87
0.84
0.83
0.83
0.82
0.81
0.8
0.79
0.76
0.74
0.73
0.73
0.73
0.72
0.72
0.73
0.73
0.74
0.78
0.86
0.89
0.91
1.06
1.12
1.16
1.2
1.18
1.11
1.17
1.08
1.03
0.98
1.06
1.4
1.31
1.19
1.22
1.16
1.03
1.01
1.13
1.1
1.0
1.01
1.11
1.09
1.01
0.99
0.99
1.13
1.04
0.98
0.97
0.93
0.91
0.92
0.98
0.93
0.92
1.01
0.97
0.95
0.99
1.09
1.05
1.0
1.04
1.06
1.05
0.92
0.98
1.0
1.01
0.97
0.94
0.98
1.02
1.01
0.96
0.92
0.98
1.11
1.06
0.99
1.0
1.15
1.16
1.0
1.0
1.08
1.06
0.97
0.96
1.06
1.06
0.98
0.97
1.02
0.93
0.9
0.89
0.93
0.89
0.88
0.9
0.89
0.97
0.96
1.07
1.03
0.98
1.0
1.04
0.98
0.98
0.96
0.99
1.02
0.98
0.95
0.94
0.97
0.98
0.98
0.96
1.06
1.11
1.12
0.98
1.05
1.09
0.99
0.96
1.02
1.02
0.94
0.94
0.96
0.89
0.97
0.88
0.97
1.03
0.93
0.89
0.99
0.9
0.9
0.95
0.97
0.92
0.92
0.99
0.96
0.93
0.92
0.99
1.01
0.93
0.94
1.02
1.09
0.92
0.92
1.08
1.01
0.94
0.87
0.95
0.96
0.91
0.88
0.9
0.96
0.92
0.9
0.92
0.95
0.92
0.89
0.92
0.96
0.93
0.9
0.9
0.95
0.92
0.91
0.89
0.93
0.98
0.92
0.91
0.94
1.04
0.94
0.92
0.99
1.09
0.87
0.92
0.95
0.98
0.92
0.93
0.97
1.0
0.96
0.96
1.03
1.0
0.94
0.9
0.94
0.98
0.92
0.92
0.94
1.03
0.97
0.93
0.94
1.01
0.98
0.93
0.95
0.92
0.89
0.86
0.85
0.86
0.92
0.94
0.94
1.03
1.08
1.09
0.96
0.97
1.05
0.96
0.94
0.97
1.01
1.0
0.93
0.91
0.95
0.96
0.9
0.9
0.92
0.99
0.93
0.93
0.96
1.08
0.98
0.96
1.03
1.03
0.95
0.95
1.11
1.01
0.94
0.94
0.95
1.01
0.95
0.94
0.98
1.02
0.93
0.9
0.86
0.88
0.88
0.86
0.89
0.97
0.95
0.94
0.99
1.02
0.96
0.92
0.92
0.97
0.99
0.91
0.9
0.94
1.03
1.05
0.96
0.92
0.97
1.09
0.98
0.97
0.94
0.98
0.95
0.96
1.01
1.11
1.11
1.01
1.05
1.0
0.97
0.98
1.03
0.93
0.93
0.99
0.98
0.97
0.94
0.93
1.02
0.94
0.93
0.94
0.96
0.91
0.92
0.97
0.91
0.91
0.91
0.99
0.94
0.91
0.92
0.98
0.95
0.92
0.92
0.98
0.93
0.91
0.95
0.99
0.92
0.93
0.93
0.98
0.91
0.9
0.87
0.92
0.86
0.85
0.83
0.84
0.84
0.85
0.91
0.95
0.97
0.94
1.0
0.96
0.9
0.9
0.93
0.95
0.89
0.86
0.88
0.94
0.97
0.88
0.88
0.89
0.97
0.92
0.9
0.87
0.92
0.97
0.98
0.91
0.92
1.01
0.96
0.91
0.89
0.9
0.86
0.88
0.94
1.09
1.1
0.95
1.04
1.06
0.96
0.95
1.02
0.97
0.95
0.91
0.95
1.04
0.95
0.92
0.94
1.0
1.0
0.95
1.01
1.05
1.06
0.96
0.93
1.04
0.94
0.94
1.01
1.05
0.94
0.92
0.98
0.96
0.89
0.88
0.88
0.91
0.9
0.87
0.92
0.93
0.91
0.9
0.86
0.84
0.83
0.82
0.84
0.87
0.88
0.88
0.89
0.93
0.94
0.92
0.96
0.97
0.98
0.93
0.89
0.94
0.96
0.93
0.9
0.89
0.95
1.01
1.02
0.93
1.0
1.04
0.97
0.97
1.0
1.0
0.92
0.89
0.87
0.86
0.85
0.89
0.89
0.89
0.88
0.89
0.87
0.86
0.88
0.9
0.87
0.87
0.93
0.92
0.87
0.89
0.93
0.95
0.93
0.86
0.86
0.9
1.0
1.0
0.92
0.88
0.87
0.9
0.96
0.93
0.97
1.14
1.15
1.03
1.0
1.07
1.09
0.98
0.97
1.01
1.1
0.99
0.97
1.03
1.04
0.96
0.95
0.98
1.0
0.93
0.91
0.93
0.89
0.85
0.84
0.82
0.82
0.89
0.89
0.92
0.95
1.06
0.94
0.93
1.03
1.04
0.92
0.91
0.97
1.02
0.93
0.88
0.85
0.88
0.9
0.95
0.99
1.15
1.15
1.06
1.08
1.14
1.0
0.98
1.06
1.09
0.99
0.98
1.03
0.99
0.95
0.89
0.99
0.92
0.89
0.83
0.85
0.83
0.83
0.87
0.86
0.84
0.89
0.89
0.89
0.89
0.96
0.94
0.87
0.91
0.93
0.94
0.9
0.87
0.93
0.98
0.96
0.9
0.88
0.99
1.01
0.85
0.81
0.81
0.92
1.12
1.12
0.99
1.13
1.11
1.0
1.03
1.13
1.06
0.99
0.99
1.09
1.06
0.95
0.89
0.87
1.0
0.9
0.88
0.88
0.93
0.87
0.88
0.97
1.03
0.95
1.03
1.1
1.09
0.98
0.92
0.99
1.04
1.09
0.99
0.95
1.0
0.98
0.96
0.88
0.89
0.95
1.01
1.05
1.0
1.05
1.16
1.08
0.97
0.94
1.0
0.97
0.92
0.94
1.13
1.13
0.99
0.97
1.02
0.93
0.91
0.89
0.95
0.87
0.83
0.85
0.85
0.82
0.84
0.89
0.88
0.88
1.0
0.98
0.91
0.9
0.97
0.97
0.89
0.88
0.92
0.98
0.9
0.87
0.93
1.06
1.02
0.95
0.91
0.99
0.98
0.98
0.91
0.91
0.99
1.11
0.96
0.92
1.04
1.05
0.98
0.97
1.06
1.07
0.96
0.91
0.85
0.84
0.82
0.9
0.86
0.86
0.9
0.99
0.93
0.93
0.97
1.05
1.06
0.94
0.99
0.98
0.92
0.88
0.94
1.02
1.06
0.92
0.91
0.98
1.06
0.96
0.92
0.88
0.89
0.99
0.96
0.97
1.03
1.11
1.01
1.13
1.02
1.1
1.11
0.98
1.04
1.08
0.99
0.96
1.01
1.04
0.96
0.95
1.02
0.95
0.93
0.92
1.02
0.91
0.87
0.9
0.96
0.89
0.89
0.93
1.0
0.88
0.87
0.91
0.98
0.88
0.88
0.93
0.94
0.86
0.86
0.93
0.97
0.88
0.87
0.94
0.93
0.9
0.87
0.95
0.97
0.89
0.88
0.87
0.87
0.84
0.81
0.83
0.84
0.83
0.82
0.87
0.86
0.85
0.85
0.89
0.89
0.88
0.92
1.0
1.0
0.91
0.9
0.98
1.01
1.02
0.94
0.91
0.99
1.07
1.07
0.96
0.92
0.97
1.12
1.06
0.98
0.96
1.03
0.95
0.91
0.9
1.02
0.92
0.94
0.97
1.07
1.07
0.96
1.02
1.02
0.94
0.88
0.91
0.92
0.9
0.89
0.97
0.9
0.88
0.85
0.89
0.87
0.85
0.83
0.83
0.83
0.8
0.81
0.85
0.84
0.85
0.92
1.0
0.9
0.9
0.96
0.98
0.89
0.87
0.91
0.94
0.87
0.87
0.86
0.9
0.95
0.91
0.91
1.04
1.08
0.93
0.89
0.86
0.86
0.85
0.86
0.98
0.89
0.89
0.91
0.95
0.88
0.88
0.92
1.03
1.03
0.94
0.94
1.03
1.07
1.04
0.97
0.95
1.01
1.04
1.04
0.98
0.92
0.91
0.99
1.1
1.03
0.97
1.06
1.11
1.11
0.94
0.89
0.84
0.83
0.83
0.81
0.82
0.81
0.81
0.79
0.81
0.86
0.86
0.89
0.93
0.95
0.95
0.98
0.98
0.93
0.91
0.97
0.95
0.94
0.99
1.05
1.07
1.0
0.97
1.07
1.12
1.03
1.0
1.06
1.11
1.03
1.07
1.11
1.04
0.98
1.01
1.01
0.92
0.88
0.85
0.91
0.86
0.87
0.91
0.87
0.85
0.84
0.85
0.85
0.85
0.9
0.86
0.85
0.86
0.95
0.93
0.87
0.87
0.87
0.92
0.93
0.94
0.91
0.88
0.87
0.93
0.96
0.94
0.93
0.92
1.09
1.05
0.96
0.92
1.02
1.06
0.97
0.97
1.05
1.13
0.97
0.94
0.99
0.93
0.86
0.83
0.89
0.88
0.86
0.89
0.9
0.85
0.84
0.84
0.83
0.82
0.83
0.85
0.9
0.87
0.89
0.89
0.93
0.88
0.86
0.9
0.92
0.99
1.03
1.04
1.0
1.02
1.04
0.97
0.92
0.95
0.97
1.03
0.96
0.91
0.98
1.05
1.04
0.99
1.0
1.04
0.95
0.91
0.9
1.0
0.97
0.96
0.97
1.06
1.06
0.96
0.91
0.88
0.83
0.86
0.86
0.83
0.85
0.83
0.82
0.84
0.82
0.81
0.82
0.86
0.87
0.88
0.94
1.02
1.0
0.93
0.95
0.93
0.94
0.96
0.97
0.97
0.96
0.96
0.94
0.92
0.98
1.0
1.0
0.97
0.92
0.98
1.06
1.05
0.96
0.92
1.13
1.13
1.05
0.98
1.0
1.01
0.94
0.94
0.89
0.87
0.88
1.0
1.01
0.94
0.93
0.89
0.86
0.86
0.92
0.86
0.87
0.95
0.97
0.92
0.88
0.89
0.93
0.99
0.95
0.91
0.96
0.99
1.01
0.98
0.91
0.94
1.01
1.01
0.95
0.93
1.02
1.01
0.93
0.94
0.95
1.03
0.91
0.91
0.93
0.97
0.92
0.9
1.0
0.98
0.91
0.86
0.84
0.87
0.83
0.85
0.9
0.86
0.84
0.86
0.85
0.84
0.84
0.86
0.86
0.84
0.85
0.88
0.9
0.91
0.86
0.91
0.93
0.98
0.95
0.95
0.95
0.96
0.96
0.97
0.94
0.9
0.9
0.93
0.98
0.93
0.93
0.95
0.95
0.94
0.93
0.96
1.03
0.96
0.93
0.93
1.01
1.02
0.92
0.92
0.93
0.92
0.88
0.87
0.85
0.86
0.91
0.98
0.89
0.88
0.85
0.83
0.82
0.79
0.77
0.76
0.74
0.74
0.72
0.73
0.72
0.71
0.7
0.7
0.69
0.69
0.69
0.67
0.67
0.67
0.66
0.66
0.66
0.7
0.7
0.71
0.64
0.6
0.66
0.62
0.73
0.73
0.61
0.62
0.7
0.71
0.75
0.79
0.83
0.83
0.83
0.86
0.85
0.86
0.84
0.84
0.84
0.85
0.83
0.87
0.87
0.89
0.91
0.89
0.93
0.94
0.93
0.97
1.03
1.05
0.99
0.98
1.0
0.99
1.06
1.1
1.18
1.18
1.06
1.08
1.05
1.01
0.98
1.08
1.13
1.1
1.03
0.98
0.97
0.98
0.95
0.93
0.89
0.98
1.01
0.95
0.99
1.06
1.02
0.97
0.98
1.01
1.01
0.97
0.97
1.02
1.05
1.03
0.99
0.94
1.0
1.03
0.99
0.96
0.97
0.92
0.92
0.91
0.98
1.0
0.96
0.92
0.85
0.87
0.83
0.82
0.81
0.82
0.82
0.81
0.81
0.85
0.86
0.94
1.06
1.09
1.15
1.15
1.12
1.1
1.07
1.06
1.04
1.05
1.05
1.05
1.06
1.02
1.0
1.04
1.05
1.02
1.02
1.08
1.01
1.0
0.94
0.97
1.02
1.04
1.04
1.1
1.1
0.99
1.0
1.03
1.03
0.98
0.98
1.0
1.02
1.03
1.04
1.08
1.1
1.07
1.02
1.03
1.07
1.08
1.05
1.02
1.09
1.11
1.07
1.01
1.05
1.08
1.02
1.0
1.01
1.05
1.0
0.96
0.95
0.99
1.01
1.01
1.01
1.12
1.13
0.99
1.02
1.0
0.96
0.96
1.0
1.04
1.04
1.02
1.06
1.06
1.01
1.0
1.08
1.09
1.04
0.99
1.04
1.09
1.05
1.01
0.97
1.01
1.01
0.99
0.97
0.98
1.0
1.01
0.98
0.95
1.03
1.03
0.98
0.95
0.98
1.02
0.98
0.96
0.97
1.0
0.96
0.93
0.88
0.94
0.97
1.03
0.98
0.99
1.16
1.1
1.07
1.14
1.13
1.06
1.0
1.03
1.05
1.02
0.99
0.99
1.01
1.05
1.03
1.0
1.04
1.04
1.07
1.03
1.03
1.07
1.08
1.02
1.0
1.08
1.11
1.05
1.0
1.04
1.05
1.05
1.01
1.02
1.06
1.05
1.0
0.97
0.98
1.01
0.98
1.0
1.07
1.09
1.09
1.02
1.03
1.07
1.05
0.99
0.99
1.05
1.08
1.03
0.99
1.03
1.07
1.06
1.02
1.14
1.14
1.07
1.03
1.08
1.09
1.02
1.0
1.02
1.04
1.01
0.99
1.02
1.03
1.06
1.03
1.03
1.1
1.1
1.03
1.03
1.07
1.07
1.05
1.03
1.07
1.08
1.01
0.93
0.92
0.92
0.97
1.04
1.09
1.28
1.28
1.14
1.09
1.13
1.11
1.06
1.0
1.01
1.05
1.03
1.0
1.03
1.09
1.1
1.04
1.01
1.09
1.12
1.06
1.01
0.99
0.99
1.01
1.06
1.14
1.21
1.16
1.06
1.08
1.04
0.99
0.99
1.01
1.05
1.01
1.01
1.06
1.12
1.06
1.03
1.06
1.11
1.06
1.03
1.09
1.08
1.04
1.0
1.02
1.07
1.03
1.04
1.01
1.03
1.04
0.99
0.97
1.02
1.06
1.09
1.07
1.12
1.19
1.17
1.17
1.22
1.2
1.11
1.0
1.02
1.04
1.03
0.93
1.0
1.05
1.07
1.03
0.98
0.98
1.03
1.01
0.99
0.96
0.97
0.98
0.56
0.51
0.43
0.8
0.79
1.2
1.07
1.02
1.04
1.05
1.02
1.03
1.08
1.08
1.07
1.04
1.02
1.09
1.08
1.15
1.23
1.23
1.15
1.09
1.1
1.12
1.06
1.0
1.07
1.11
1.1
1.05
1.08
1.1
1.01
1.0
1.04
1.04
1.0
1.0
1.01
1.04
1.05
1.02
1.04
1.08
1.06
1.01
0.99
1.01
1.01
0.97
0.94
1.01
1.03
0.95
0.94
0.96
1.04
0.97
0.98
1.05
1.18
1.12
1.05
1.04
1.06
1.04
1.02
1.07
1.15
1.15
1.09
1.11
1.11
1.05
1.02
1.06
1.06
1.06
1.04
0.98
0.97
0.98
1.02
1.07
1.21
1.18
1.1
1.04
1.09
1.12
1.07
1.06
1.12
1.16
1.08
1.05
1.1
1.09
1.04
1.01
1.05
1.05
1.04
1.01
1.05
1.03
1.04
0.96
0.96
1.03
1.09
1.09
1.02
1.03
1.16
1.08
1.0
0.96
1.04
1.02
1.01
0.99
1.01
1.1
1.04
0.99
0.92
0.95
0.9
0.91
0.95
1.27
1.28
1.16
1.14
1.15
1.05
1.01
1.03
1.03
1.01
0.96
0.94
1.01
1.0
0.97
1.0
1.07
1.1
1.06
1.0
1.01
1.01
0.99
0.96
0.95
1.06
1.08
1.05
1.02
1.07
1.11
1.04
1.01
1.02
1.03
1.01
0.95
0.96
1.06
1.08
1.1
1.06
1.03
1.07
1.04
0.98
0.98
0.98
1.01
0.97
0.99
1.08
1.09
1.04
1.0
1.0
1.03
0.97
0.93
0.96
1.01
1.03
0.97
0.98
1.01
1.07
1.02
0.98
0.98
1.04
1.02
0.97
0.99
1.03
1.06
1.0
1.05
1.18
1.15
1.09
1.03
1.04
1.06
1.01
0.96
0.95
1.0
1.03
0.99
0.99
1.04
1.05
0.98
0.96
1.1
1.07
1.03
0.98
1.02
1.06
1.03
0.97
0.98
1.07
1.01
0.96
0.96
1.01
1.03
0.98
0.97
1.01
1.02
0.99
0.95
0.97
1.02
1.04
0.97
0.97
1.06
1.08
1.01
1.0
1.06
1.05
1.03
0.97
1.01
1.02
1.03
0.96
0.96
1.02
1.03
1.0
1.02
1.0
1.11
1.08
1.02
0.99
1.02
1.0
0.95
0.94
0.99
1.0
1.03
1.01
1.0
1.02
1.06
1.03
0.98
0.98
1.05
1.02
0.99
0.94
1.03
1.02
0.96
0.95
0.98
0.98
0.95
0.96
0.99
1.0
1.05
0.99
0.96
0.99
1.0
0.96
0.96
1.02
1.02
0.97
0.96
0.97
1.03
1.01
0.92
0.89
0.89
0.92
0.92
0.94
1.18
1.17
1.1
1.08
1.1
1.08
1.04
1.02
1.03
1.06
1.05
1.0
1.0
1.04
1.06
1.03
1.02
1.07
1.09
1.06
1.04
1.07
1.05
1.06
1.0
0.98
1.02
0.97
0.93
0.91
0.95
1.09
1.09
1.02
1.01
1.05
1.05
1.01
0.99
0.97
1.0
1.01
0.98
0.96
0.97
1.04
1.03
0.99
0.99
1.01
1.02
0.97
0.97
0.99
1.03
1.03
0.98
0.99
0.98
1.0
0.96
0.94
0.97
0.99
1.0
0.97
0.95
0.98
0.99
0.96
0.96
0.97
0.99
0.98
0.96
0.98
1.04
1.01
0.97
0.95
1.0
1.01
0.99
0.96
0.99
1.02
1.0
0.96
0.99
0.99
1.01
0.98
0.97
0.98
0.98
0.95
0.93
0.94
0.97
1.01
0.97
0.96
0.98
1.01
0.96
0.96
0.98
0.98
0.97
0.97
0.95
0.98
1.02
0.97
0.96
0.95
0.99
0.96
0.94
0.95
1.01
1.0
0.95
0.89
0.89
0.93
0.89
0.89
0.94
0.94
0.97
0.97
1.01
1.01
0.98
0.98
1.02
1.02
0.97
0.97
0.96
1.01
0.99
0.98
0.95
0.97
1.01
0.98
0.97
1.0
0.98
0.96
0.95
0.98
0.96
0.95
0.98
1.03
0.98
0.94
0.99
0.98
0.96
0.94
0.95
0.95
0.93
0.92
0.9
0.93
0.92
0.91
0.9
0.95
0.98
0.95
0.92
0.92
0.96
0.92
0.91
0.9
0.94
0.95
0.91
0.9
0.91
0.97
0.93
0.91
0.96
0.9
0.91
0.94
0.87
0.88
0.9
0.88
0.89
0.95
0.97
0.91
0.9
0.85
0.88
0.87
0.87
0.87
0.88
0.86
0.86
0.88
0.88
0.89
0.89
0.9
0.93
0.9
0.89
0.89
0.89
0.89
0.87
0.89
0.91
0.89
0.88
0.9
0.91
0.93
0.91
0.92
0.94
0.99
0.94
0.91
0.9
0.93
0.97
0.98
0.92
0.96
1.0
0.97
0.96
1.0
1.01
0.95
0.93
0.93
0.88
0.92
0.9
0.91
0.9
0.9
0.82
0.82
0.97
0.98
0.88
0.9
0.94
0.94
0.98
0.99
0.97
0.97
1.0
0.97
1.0
0.97
0.97
0.93
0.92
0.95
0.99
0.97
0.99
0.98
0.95
0.93
0.92
0.83
0.86
0.86
0.86
0.88
0.89
0.97
0.94
0.96
0.96
0.94
0.93
0.94
0.92
0.89
0.88
0.88
0.92
0.91
0.91
0.87
0.97
0.97
0.9
0.85
0.89
0.86
0.86
0.82
0.82
0.82
0.8
0.81
0.8
0.8
0.82
0.83
0.84
0.9
0.93
0.92
0.94
0.97
0.98
0.95
0.92
0.9
0.91
0.91
0.89
0.89
0.9
0.92
0.9
0.91
0.96
0.96
0.94
0.93
0.97
0.97
0.96
0.93
0.92
0.99
1.0
0.93
0.94
0.97
1.0
0.94
0.93
0.94
0.97
0.94
0.94
0.94
0.97
1.02
0.98
0.96
0.97
0.95
0.93
0.91
0.87
0.91
0.89
0.89
0.9
0.89
0.9
0.95
0.88
1.0
1.01
0.94
0.98
0.99
0.97
0.95
0.92
0.96
0.98
0.95
0.94
0.96
1.01
0.96
0.94
0.97
0.99
0.93
0.92
0.92
0.92
0.95
0.93
0.92
0.96
1.0
0.97
0.94
0.95
0.95
0.91
0.92
0.9
0.9
0.91
0.9
0.9
0.92
0.95
0.95
0.96
0.96
0.95
0.95
0.95
0.98
0.96
0.95
0.98
0.96
0.93
0.94
0.96
0.94
0.93
0.95
0.96
0.96
0.97
1.0
0.99
0.95
0.94
0.97
0.96
0.93
0.91
0.9
0.87
0.87
0.86
0.83
0.83
0.84
0.93
0.92
0.95
0.95
0.93
0.94
0.97
0.98
0.99
0.99
0.97
0.99
0.97
0.96
0.96
0.94
0.95
0.96
0.93
0.93
0.95
0.92
0.93
0.93
0.92
0.91
0.92
0.91
0.91
0.91
0.94
0.92
0.91
0.93
0.9
0.89
0.89
0.89
0.89
0.88
0.9
0.91
0.91
0.92
0.94
0.94
0.93
0.91
0.89
0.89
0.88
0.88
0.86
0.85
0.84
0.81
0.8
0.79
0.8
0.8
0.83
0.88
0.89
0.92
0.93
0.92
0.91
0.9
0.88
0.86
0.84
0.84
0.82
0.82
0.86
0.88
0.9
0.95
0.94
0.96
0.92
0.92
0.9
0.89
0.88
0.88
0.88
0.87
0.87
0.89
0.88
0.88
0.88
0.91
0.89
0.89
0.91
0.91
0.92
0.94
0.93
0.91
0.89
0.88
0.89
0.86
0.85
0.87
0.89
0.91
0.91
0.93
0.95
0.95
0.99
0.99
0.98
0.97
0.95
0.96
0.96
0.94
0.93
0.95
0.95
0.94
0.96
0.98
0.99
0.95
0.93
0.93
0.91
0.93
0.93
0.91
0.9
0.9
0.92
0.89
0.88
0.89
0.9
0.9
0.92
0.92
0.91
0.93
0.94
0.93
0.91
0.9
0.91
0.91
0.92
0.94
0.93
0.94
0.94
0.92
0.92
0.94
0.91
0.89
0.9
0.92
0.9
0.91
0.92
0.92
0.93
0.96
0.97
0.94
0.92
0.91
0.92
0.91
0.91
0.89
0.91
0.91
0.91
0.93
0.92
0.9
0.91
0.9
0.9
0.9
0.9
0.91
0.94
0.92
0.93
0.93
0.93
0.91
0.92
0.91
0.9
0.88
0.88
0.86
0.87
0.89
0.9
0.88
0.85
0.84
0.84
0.83
0.83
0.82
0.83
0.83
0.83
0.83
0.86
0.86
0.9
0.95
0.98
1.01
0.97
0.97
0.98
0.99
1.0
0.98
0.96
0.97
0.96
0.97
0.95
0.91
0.91
0.94
0.83
0.84
1.02
1.03
0.95
0.97
0.97
0.99
0.99
0.97
0.95
0.98
1.04
1.04
1.0
0.96
0.89
0.89
0.94
1.04
0.97
1.04
1.04
1.01
0.99
1.01
1.03
0.98
0.94
0.93
0.94
0.95
0.95
0.94
0.91
0.91
0.9
0.92
0.95
0.94
0.95
0.97
0.98
0.98
0.97
0.99
0.98
1.0
1.01
1.05
1.01
1.0
1.0
1.01
0.98
0.98
0.97
1.0
0.98
0.96
0.97
0.99
0.96
0.92
0.94
0.97
0.98
0.96
0.94
0.93
0.92
0.89
0.87
0.86
0.87
1.14
1.09
1.22
1.22
1.12
1.02
0.99
0.98
0.98
0.98
0.98
0.96
0.94
0.97
0.98
0.98
0.95
0.97
0.97
0.98
0.94
0.96
0.98
0.96
0.94
0.97
0.99
1.0
0.98
1.01
1.02
0.99
0.98
0.99
1.0
0.98
0.99
1.0
1.02
0.98
0.99
0.99
0.97
0.96
0.94
0.96
0.96
0.97
0.98
0.99
1.0
0.96
0.97
0.97
0.98
0.95
0.93
0.96
0.96
0.95
0.95
0.96
0.95
0.94
0.91
0.9
0.88
0.86
0.84
0.83
0.81
0.82
0.83
0.85
0.89
0.95
0.97
0.94
0.99
1.01
0.97
0.94
0.96
1.0
0.99
0.98
0.99
1.02
1.03
1.01
0.99
1.0
0.96
0.96
0.98
0.97
0.97
0.97
1.0
0.94
0.94
0.95
0.94
0.96
0.99
1.03
0.98
0.99
1.01
0.99
0.97
1.01
1.02
0.98
1.01
1.06
1.02
1.01
1.03
0.99
1.0
1.03
0.99
0.98
1.02
1.01
0.98
1.02
1.01
1.0
1.01
0.99
1.0
0.98
0.97
0.99
1.04
0.96
0.96
1.0
0.98
0.97
1.02
1.03
0.96
0.98
0.98
0.94
0.93
0.93
0.91
0.91
0.92
0.91
0.91
0.91
0.88
0.86
0.88
0.86
0.84
0.84
0.84
0.85
0.83
0.83
0.84
0.87
0.87
0.85
0.87
0.88
0.88
0.89
0.88
0.89
0.91
0.9
0.9
0.89
0.94
0.93
0.92
0.9
0.91
0.87
0.92
0.93
0.94
0.94
0.93
0.92
0.91
0.9
0.88
0.96
0.97
0.93
0.94
0.94
0.95
0.93
0.93
0.96
0.9
0.94
0.91
0.96
0.93
0.96
0.97
0.98
0.95
0.94
0.97
0.95
0.94
0.95
0.94
0.93
0.91
0.91
0.92
0.92
0.92
0.94
0.93
0.89
0.91
0.94
0.91
0.92
0.92
0.91
0.9
0.9
0.89
0.9
0.88
0.89
0.9
0.92
0.94
0.94
0.93
0.96
0.94
0.93
0.92
0.96
0.95
0.95
0.93
0.92
0.94
0.89
0.94
0.98
0.92
0.93
0.97
0.94
0.99
1.0
1.0
0.97
0.98
0.99
0.99
0.95
0.96
1.0
0.97
0.96
0.98
0.99
0.94
0.93
0.92
0.91
0.93
0.94
0.97
0.94
0.95
0.96
0.95
0.95
0.96
0.95
0.93
0.93
0.91
0.93
0.92
0.93
0.93
0.96
0.94
0.95
0.95
1.0
1.01
0.98
0.98
0.98
0.94
0.92
0.93
0.9
0.95
0.92
0.93
0.98
0.99
0.95
0.95
0.98
0.96
0.97
0.98
0.95
0.94
0.96
0.98
0.95
0.93
0.93
0.98
0.94
0.93
0.92
0.95
0.93
0.91
0.94
0.92
0.93
0.94
0.96
0.92
0.92
0.93
0.93
0.91
0.9
0.9
0.93
0.92
0.91
0.93
0.95
0.92
0.93
0.93
0.96
0.96
0.94
0.96
0.98
0.99
0.97
0.95
0.97
0.97
0.94
0.93
0.93
0.96
0.96
0.95
0.98
1.0
0.97
0.94
0.97
0.99
0.97
0.94
0.96
0.98
0.97
0.94
0.98
0.98
0.96
0.94
0.94
0.98
0.94
0.96
1.01
0.99
0.96
1.0
0.97
0.94
0.92
0.91
0.93
0.9
0.9
0.9
0.95
0.95
0.99
1.0
0.99
0.95
0.97
0.98
0.96
0.96
0.98
0.99
0.98
0.99
0.98
1.01
0.99
0.98
1.0
1.01
1.01
0.99
0.99
0.97
0.95
0.97
0.98
0.96
0.97
1.0
0.98
0.96
0.99
1.01
0.99
0.98
1.0
1.04
0.99
0.96
0.99
0.99
0.95
0.97
1.03
1.03
0.96
0.97
0.97
0.95
0.93
0.93
0.91
0.89
0.92
0.95
0.96
0.93
0.94
0.95
0.96
0.92
0.94
0.89
0.96
0.95
0.94
0.96
0.99
1.01
0.98
0.97
0.98
1.0
0.97
0.96
0.98
0.94
0.92
0.89
0.89
0.92
0.95
0.92
0.95
0.97
0.97
0.95
1.01
1.04
1.0
0.99
1.06
1.06
1.0
1.06
1.05
1.05
1.04
1.03
0.99
0.98
1.02
0.99
0.95
0.95
0.99
0.98
0.98
1.03
1.07
1.0
1.01
1.06
0.99
0.94
0.97
1.01
0.94
0.92
0.93
1.02
0.96
1.0
1.07
0.99
0.94
0.95
0.95
0.92
0.88
0.88
0.87
0.88
0.9
0.9
0.92
0.95
0.97
0.94
0.94
0.97
0.96
0.95
0.92
0.92
0.94
0.95
0.96
0.97
0.96
1.0
0.96
0.94
0.97
1.0
0.98
0.96
0.96
0.96
0.96
0.95
0.95
0.95
0.97
0.96
0.95
0.91
0.98
1.02
1.0
0.99
1.03
1.03
0.98
0.98
1.03
1.03
0.97
0.96
1.0
1.01
0.99
0.99
1.0
1.01
0.98
1.0
1.03
0.99
0.98
1.04
0.99
0.97
0.99
0.98
0.97
0.96
1.01
0.99
0.98
1.02
1.0
0.98
0.98
0.96
0.94
0.93
0.94
0.92
0.91
0.89
0.88
0.9
0.95
1.09
1.09
1.09
1.0
0.95
0.92
0.93
0.89
0.9
0.9
0.9
0.93
0.96
0.99
0.99
1.05
1.04
1.05
1.0
0.98
1.03
1.05
1.02
1.04
1.07
1.08
1.03
0.99
0.99
1.04
1.04
0.98
0.96
0.98
0.96
0.97
0.95
0.95
0.95
0.98
0.98
1.01
1.03
1.08
1.06
1.04
1.04
1.0
1.01
1.02
1.04
1.06
1.01
1.02
1.04
1.01
1.03
1.02
0.99
1.0
1.0
0.97
0.96
0.99
0.97
0.93
0.92
0.92
0.96
0.95
1.01
1.02
0.99
0.96
0.96
0.93
0.94
0.91
0.93
0.93
0.94
0.96
0.97
0.99
1.02
1.0
0.97
0.97
1.0
1.02
1.01
0.97
0.99
1.01
0.98
1.0
1.01
1.04
1.03
1.0
1.02
0.97
0.97
0.99
1.02
1.01
0.99
1.03
1.09
1.05
1.08
1.08
1.04
1.01
1.06
1.1
1.04
1.05
1.07
1.01
0.98
1.04
1.03
1.02
1.15
1.09
1.02
0.98
0.95
0.91
0.9
0.86
0.87
0.89
0.91
0.96
0.96
1.01
1.03
1.03
0.97
0.93
0.93
0.95
0.93
0.93
0.92
0.95
1.01
0.99
0.97
1.01
1.02
0.99
0.99
1.0
0.97
0.96
1.0
0.97
1.02
1.02
1.05
1.11
1.1
1.07
1.1
1.08
1.11
1.15
1.06
1.03
1.07
1.05
1.04
1.05
1.12
1.13
1.07
1.07
1.09
1.0
1.01
1.03
1.03
1.0
1.02
1.01
0.97
0.97
0.97
0.95
0.96
0.97
0.97
0.98
0.96
0.96
0.95
0.93
0.94
0.92
0.94
0.91
0.93
0.91
0.88
0.89
0.86
0.85
0.85
0.84
0.83
0.84
0.83
0.82
0.85
0.83
0.83
0.81
0.83
0.82
0.81
0.83
0.83
0.82
0.84
0.83
0.82
0.81
0.8
0.8
0.81
0.85
0.84
0.89
0.88
0.94
0.94
0.93
0.95
0.98
0.95
0.98
0.97
0.97
0.98
0.92
0.89
0.87
0.88
0.94
0.94
0.96
0.97
0.94
0.92
0.93
0.95
0.93
0.9
0.82
0.82
0.89
0.89
0.84
0.83
0.81
0.81
0.81
0.8
0.79
0.79
0.78
0.78
0.77
0.78
0.77
0.77
0.77
0.78
0.78
0.78
0.8
0.82
0.82
0.83
0.82
0.84
0.82
0.84
0.83
0.85
0.83
0.83
0.81
0.82
0.83
0.83
0.82
0.83
0.84
0.84
0.82
0.82
0.82
0.8
0.81
0.83
0.83
0.83
0.83
0.83
0.84
0.84
0.83
0.82
0.8
0.8
0.8
0.77
0.78
0.76
0.79
0.78
0.77
0.77
0.79
0.8
0.9
0.87
0.91
0.87
0.85
0.94
0.95
0.85
0.89
0.9
0.93
0.92
0.92
0.88
0.89
0.93
0.92
0.91
0.98
0.93
0.9
0.9
0.86
0.98
0.98
0.92
0.93
0.96
0.91
0.91
0.93
0.97
0.92
0.91
0.94
0.96
0.93
0.91
0.91
0.94
0.92
0.92
0.98
1.0
0.95
0.95
0.93
0.88
0.88
0.88
0.95
0.95
0.94
0.96
0.97
0.93
0.92
0.95
0.96
0.93
0.94
0.95
0.97
0.92
0.92
0.94
0.95
0.94
0.92
0.91
0.92
0.99
0.95
0.92
0.93
0.96
0.95
0.92
0.93
0.93
0.94
0.93
0.93
0.98
1.0
0.96
0.96
1.0
1.02
0.97
0.95
1.0
1.01
0.97
0.99
0.98
0.96
0.99
0.99
0.97
0.99
0.95
0.99
1.0
0.97
0.99
0.98
0.94
0.93
0.93
0.9
0.86
0.89
0.88
0.87
0.86
0.91
0.93
0.98
0.92
0.97
0.98
0.94
0.93
0.98
1.01
1.0
0.95
0.96
1.02
1.02
1.0
0.96
0.97
0.99
0.98
0.97
0.96
0.95
0.97
0.99
0.98
0.96
0.95
0.99
0.97
0.96
0.94
0.96
0.99
0.98
0.96
0.94
0.99
1.01
0.98
0.97
0.99
1.03
1.02
1.0
1.03
1.05
1.03
0.98
0.98
1.01
1.02
0.98
0.99
1.01
1.04
0.99
0.99
1.02
1.0
0.95
0.97
0.98
0.96
0.98
0.96
0.95
0.99
0.97
0.96
0.98
1.0
0.97
0.99
1.03
0.98
0.96
0.97
1.0
0.94
0.94
0.91
0.88
0.88
0.9
0.92
0.92
1.02
1.03
0.99
0.99
1.02
1.0
0.98
0.95
0.97
0.99
0.98
0.98
1.01
1.03
1.03
1.0
0.99
1.04
1.04
1.03
1.0
0.99
1.03
1.02
0.98
0.99
1.03
1.02
1.0
0.99
0.99
1.03
1.03
0.98
0.99
1.01
1.03
1.0
0.99
1.01
1.04
1.0
0.98
1.0
1.01
0.99
0.94
0.97
1.05
1.03
1.08
1.15
1.15
1.05
1.04
1.1
1.07
1.02
0.99
1.04
1.03
0.99
0.99
1.02
1.02
1.0
0.97
0.99
1.02
0.97
0.98
0.98
1.01
0.99
0.98
1.0
1.01
1.0
0.99
1.01
0.98
0.95
0.96
0.97
0.97
0.96
1.0
0.98
0.99
1.03
1.02
1.0
0.99
1.01
0.99
0.96
1.03
1.03
0.99
0.98
1.02
1.0
0.97
1.01
0.98
0.96
0.97
1.0
0.98
0.96
0.98
0.98
0.96
0.97
0.99
0.96
0.95
0.97
0.99
0.95
0.94
0.96
0.94
0.94
0.96
0.96
0.95
0.94
0.97
0.95
0.96
0.98
0.94
0.95
0.96
0.95
0.95
0.97
0.93
0.92
0.92
0.9
0.89
0.89
0.94
1.0
0.98
0.98
0.99
0.98
0.93
0.92
0.93
0.92
0.9
0.88
0.89
0.9
0.95
0.94
0.93
0.98
1.01
1.02
0.96
0.96
0.99
0.98
0.97
0.95
0.94
0.96
0.98
0.94
0.94
0.97
0.98
0.97
0.98
0.97
0.94
0.95
0.99
0.97
0.96
0.95
0.98
1.0
0.96
0.98
1.0
1.0
0.97
0.95
0.97
0.98
0.95
0.96
0.96
0.98
0.97
0.94
0.98
0.99
0.97
0.98
1.0
0.98
0.97
1.03
1.03
0.99
0.98
1.03
1.0
0.97
0.99
1.02
1.01
0.98
1.01
1.01
0.98
0.97
0.99
1.02
0.99
0.98
1.01
1.03
0.98
0.97
1.0
1.03
0.99
0.97
1.02
1.02
0.99
1.0
1.02
1.03
0.99
0.98
1.0
1.01
0.98
0.98
1.02
1.03
1.02
1.01
1.04
1.01
1.0
0.97
0.93
0.96
0.99
0.96
0.95
0.95
1.0
1.01
0.97
1.02
0.99
0.98
1.03
1.04
1.0
0.97
1.01
0.99
0.98
1.03
1.06
0.99
0.96
1.01
1.0
0.97
1.0
0.98
0.95
0.99
1.0
0.97
0.95
0.98
0.98
0.95
0.94
0.97
0.99
0.94
0.94
0.99
0.96
0.94
0.97
0.98
0.94
0.92
0.96
0.96
0.92
0.9
0.9
0.9
0.91
0.91
0.95
0.93
0.93
0.91
0.94
0.91
0.89
0.88
0.88
0.87
0.86
0.85
0.87
0.89
0.89
0.94
0.97
1.01
1.0
0.97
0.97
1.0
0.99
0.98
0.93
0.93
0.98
0.97
1.0
0.95
0.96
0.97
0.99
0.93
0.96
0.95
1.0
1.01
0.97
0.96
0.96
1.03
1.04
1.04
1.0
1.01
1.03
1.04
0.95
0.94
0.91
0.99
1.02
0.99
1.01
1.07
1.05
1.0
0.96
0.95
0.95
0.98
0.98
0.98
1.01
1.03
1.01
0.99
1.0
1.01
1.01
0.99
0.99
1.0
1.03
1.05
1.02
0.99
1.0
1.02
1.0
0.98
0.99
1.03
1.03
0.99
0.97
0.98
1.02
1.04
1.0
0.98
1.02
1.04
0.99
0.99
0.98
0.99
0.95
0.93
0.94
0.98
0.99
0.98
0.99
0.99
0.98
0.95
0.95
0.96
0.95
0.93
0.93
0.97
0.99
0.96
0.95
0.95
1.0
0.98
0.97
0.95
0.99
1.03
0.99
0.96
0.98
1.0
0.96
0.93
0.93
0.98
0.97
1.0
1.09
1.05
1.02
1.0
1.05
1.02
0.95
0.95
0.95
0.94
0.95
0.92
0.94
0.97
0.92
0.97
0.97
0.98
0.97
0.98
1.02
1.01
1.01
0.99
1.01
1.05
1.0
0.97
0.96
0.99
1.01
0.97
0.98
0.99
1.02
1.01
0.99
1.05
1.01
0.99
0.99
0.99
0.98
0.96
0.98
0.98
0.95
0.93
0.93
0.97
0.97
1.02
1.03
1.12
1.11
1.05
1.04
1.06
1.05
1.05
1.01
1.0
1.0
0.99
0.96
0.9
1.0
1.01
1.03
0.97
1.02
1.02
1.02
1.02
1.0
1.0
1.02
1.02
1.0
0.99
1.03
1.02
1.0
1.0
1.03
1.0
0.99
0.98
0.98
0.96
0.93
0.95
1.05
1.06
1.02
1.0
1.07
1.07
1.02
1.02
1.06
1.05
0.98
1.01
1.02
1.02
0.98
0.96
0.97
0.98
0.99
0.98
1.0
1.03
1.01
0.99
0.99
1.03
1.01
1.01
0.99
0.99
0.99
0.98
0.96
0.98
1.01
0.98
0.97
1.01
1.02
1.0
0.96
0.99
1.02
0.98
0.97
0.99
0.98
0.98
0.99
1.0
0.96
0.95
0.97
0.99
1.01
1.0
1.04
1.04
0.99
0.98
0.97
0.98
0.95
0.92
0.98
0.98
0.97
0.97
1.01
1.04
1.03
0.98
0.97
0.98
0.99
0.96
0.97
0.99
1.02
1.01
1.01
1.02
1.03
1.02
1.01
1.04
1.0
1.0
0.98
1.02
0.99
0.98
0.98
0.96
1.02
0.98
1.02
1.07
1.0
1.01
0.95
0.93
0.91
0.9
1.0
0.96
0.94
1.06
1.02
0.97
1.01
1.07
1.0
0.96
0.98
0.98
0.96
0.93
0.93
0.95
0.94
0.94
0.96
0.99
0.99
0.97
0.97
0.96
1.0
1.0
1.0
1.0
1.0
1.01
1.03
1.04
1.02
1.01
1.0
1.0
1.0
0.99
0.99
1.05
1.04
0.98
0.98
1.02
1.01
0.99
0.99
1.02
1.04
1.03
0.99
0.99
1.02
0.98
0.97
0.96
0.99
0.99
0.97
0.95
1.04
1.01
1.03
1.02
1.05
1.02
0.97
0.97
0.98
1.0
0.98
0.97
1.0
0.99
1.0
1.01
0.99
1.01
1.0
1.0
1.04
1.04
1.01
0.99
0.99
1.0
0.97
0.97
1.0
1.03
1.01
1.02
0.98
1.01
0.99
0.99
1.01
1.01
1.04
1.01
1.01
1.03
1.01
1.01
1.0
1.03
1.02
0.99
0.99
1.01
1.02
0.98
0.98
1.01
1.01
0.96
0.97
0.98
0.97
0.95
0.94
0.97
0.93
0.95
0.98
0.99
0.96
0.97
0.99
0.97
0.95
0.94
0.96
0.93
0.93
0.93
0.88
0.93
0.94
1.0
1.02
0.99
0.98
0.93
0.99
0.99
0.94
0.97
1.0
1.0
0.98
1.02
1.05
1.0
1.0
1.01
1.02
0.96
1.01
0.95
0.98
0.96
0.95
0.99
1.01
0.99
0.97
0.99
1.01
0.98
0.98
1.01
0.99
0.97
0.95
0.99
0.96
0.94
0.88
0.95
0.95
0.94
0.96
0.97
0.98
1.04
0.97
0.92
0.95
1.01
0.97
1.01
1.02
0.99
0.99
1.0
0.99
0.97
1.0
1.0
0.99
1.01
1.02
0.98
0.99
0.96
1.01
1.01
0.99
0.99
1.03
1.04
1.0
1.0
1.01
1.02
1.01
0.99
1.03
1.03
0.96
0.96
1.0
1.03
0.97
0.97
0.99
1.0
0.98
0.97
1.02
1.03
1.0
0.98
1.0
0.97
0.95
0.93
0.93
0.94
0.91
0.9
0.87
0.89
0.92
0.96
1.0
1.01
0.97
0.95
0.95
0.97
0.98
0.96
0.97
1.03
1.01
1.03
1.06
1.04
1.01
0.99
0.99
1.0
0.99
0.99
0.98
0.98
0.97
0.95
0.96
0.97
0.97
0.96
0.96
0.97
0.99
0.98
0.97
0.97
0.97
0.93
0.94
0.94
0.97
0.99
0.99
0.98
1.02
1.02
1.01
1.0
1.04
1.06
1.03
1.0
1.03
1.1
1.05
1.01
1.05
1.06
0.99
0.96
0.94
0.97
0.99
0.97
1.01
1.06
1.04
1.0
1.0
0.98
0.97
0.93
0.94
0.96
0.95
0.94
0.95
0.96
0.94
0.94
0.96
0.97
0.99
0.99
1.0
1.07
1.04
1.01
0.98
0.98
0.97
0.98
0.97
1.0
1.0
0.99
1.01
1.04
1.03
0.97
1.0
1.03
1.03
0.98
0.98
1.06
1.06
1.04
1.0
1.05
1.09
1.07
1.07
1.08
1.06
1.02
1.05
1.06
1.0
0.96
0.98
1.01
1.02
1.03
1.03
1.02
1.0
1.0
0.99
1.0
1.01
1.04
1.01
1.01
1.03
0.99
1.01
0.99
0.99
1.0
1.03
1.08
1.07
1.0
0.97
0.99
1.03
1.07
1.03
1.0
1.01
1.02
1.0
1.01
1.0
1.03
1.01
0.99
1.0
1.04
1.02
1.01
0.99
0.95
0.92
0.9
0.87
0.86
0.85
0.87
0.88
0.91
0.95
1.0
0.99
1.0
0.99
0.93
0.9
0.9
0.91
0.9
0.92
0.95
0.99
1.04
0.99
0.99
1.0
1.01
0.96
0.94
0.94
0.99
1.0
1.04
1.09
1.12
1.08
1.03
1.01
1.0
0.97
0.95
0.97
1.0
1.01
1.0
0.99
1.01
1.04
0.99
0.98
0.99
0.99
0.99
0.99
0.97
0.95
0.93
0.94
0.95
0.99
1.01
1.02
0.99
0.98
1.0
1.03
1.0
1.01
0.98
1.02
0.98
0.98
0.99
1.0
0.98
0.97
0.96
1.02
1.0
1.0
1.01
1.04
1.0
0.96
0.94
0.91
0.92
0.93
0.92
0.96
0.97
0.97
1.01
1.05
1.11
1.11
1.03
1.01
1.02
1.0
0.98
0.97
1.0
1.04
1.04
1.01
0.99
0.99
0.98
0.96
0.96
0.96
0.99
0.99
0.96
0.96
0.95
0.94
0.95
0.95
0.94
1.0
1.04
1.02
1.02
1.0
1.0
0.98
0.99
1.0
1.03
0.99
0.96
0.96
0.93
0.91
0.91
0.9
0.95
1.0
1.01
1.02
1.02
1.03
0.99
0.97
0.99
1.02
1.03
1.01
1.01
0.98
1.01
0.97
0.97
1.03
1.09
1.05
0.99
1.0
1.07
1.11
1.05
1.0
1.04
1.05
1.03
0.98
0.99
1.0
0.99
0.95
0.95
0.98
1.02
1.03
1.0
1.01
1.07
1.06
1.0
0.98
1.02
1.02
0.97
0.96
0.97
1.04
1.06
1.01
1.0
1.0
1.04
0.98
0.98
0.99
1.02
1.02
0.98
0.98
0.98
0.99
0.98
0.98
1.0
1.06
1.03
1.01
1.03
1.03
0.96
0.94
0.92
0.93
0.94
0.94
0.99
1.04
1.05
1.0
0.99
1.02
1.01
0.96
0.94
0.96
1.0
0.98
0.96
0.97
0.98
1.0
0.97
0.98
0.99
1.05
1.03
1.0
1.01
0.96
0.93
0.91
0.9
0.94
0.98
0.94
0.94
0.99
1.03
1.03
1.0
1.02
1.03
1.04
0.99
0.98
1.02
1.06
1.03
0.96
0.96
1.02
1.1
1.06
1.01
1.0
1.01
1.0
1.0
1.03
1.02
1.0
0.94
0.92
0.93
0.97
0.97
0.98
1.06
1.14
1.09
1.02
1.01
1.05
1.0
0.99
0.99
1.01
1.01
0.99
0.95
0.95
0.96
0.96
0.97
1.03
1.12
1.07
1.0
1.03
1.04
1.0
0.95
0.98
0.97
0.96
0.96
0.97
1.01
1.0
0.98
0.94
0.95
0.98
0.98
0.99
1.01
1.02
1.02
1.01
1.02
1.06
1.02
0.98
0.98
1.04
1.01
0.99
1.07
1.09
1.02
1.0
1.03
1.09
1.03
1.01
1.06
1.09
1.02
1.0
1.05
1.05
1.0
0.96
0.93
0.93
0.98
0.95
0.96
0.97
0.98
0.96
0.95
0.93
0.97
1.01
0.99
0.96
1.01
1.01
1.02
0.97
0.97
0.97
1.01
0.96
0.92
0.97
0.99
0.96
0.94
0.95
0.99
0.97
0.93
0.94
0.99
0.98
0.95
0.95
0.97
1.01
0.97
0.97
1.0
1.01
0.99
0.96
0.96
0.99
0.99
0.98
0.94
1.01
1.01
0.98
0.96
0.96
0.99
1.02
0.95
0.93
0.98
1.0
0.94
0.95
0.98
1.04
0.99
0.97
0.99
1.01
0.96
0.92
0.9
0.89
0.89
0.91
0.93
0.97
1.07
1.07
0.9
0.93
0.96
0.97
0.95
0.93
0.92
0.96
1.02
0.97
0.96
1.03
1.09
0.91
0.94
0.96
1.0
1.05
0.95
0.95
0.99
0.98
0.95
0.87
0.94
0.97
0.98
0.98
0.98
0.99
1.01
0.96
0.94
0.96
0.96
0.94
0.93
0.98
0.99
1.01
0.98
0.97
0.99
1.0
0.97
0.96
0.97
1.0
1.01
0.97
0.96
1.0
1.01
0.97
0.94
0.98
0.99
0.97
0.94
0.92
0.95
0.98
0.99
0.97
0.99
1.02
1.04
0.97
0.96
1.0
1.02
0.98
0.98
0.97
0.98
0.96
0.95
0.96
0.98
0.96
0.91
0.9
0.91
0.92
0.91
0.97
0.99
1.07
1.03
1.0
0.99
0.99
0.95
0.92
0.99
1.01
0.97
0.95
0.97
1.04
1.04
1.04
0.94
0.94
0.96
0.97
0.93
0.93
0.98
1.0
0.98
0.95
0.99
0.99
0.98
0.95
0.97
0.98
0.99
0.97
0.92
0.94
0.98
0.98
0.95
0.95
0.99
0.99
0.97
0.98
0.96
0.93
0.91
0.95
1.0
1.01
0.98
0.98
1.09
1.1
0.94
0.95
0.99
0.99
1.0
0.97
0.99
1.03
1.04
1.0
0.95
0.95
0.98
0.94
0.93
0.94
0.95
0.92
0.9
0.91
0.98
0.98
0.97
0.95
0.97
1.01
0.97
0.96
0.98
0.99
1.0
0.98
0.94
0.97
0.99
0.99
0.96
0.94
0.98
0.97
0.95
0.96
1.04
1.04
1.0
0.96
0.98
0.97
1.01
0.97
0.93
0.96
0.99
0.99
0.96
0.96
1.02
1.04
0.96
0.96
0.99
0.99
0.96
0.93
0.95
0.97
0.94
0.95
0.96
1.02
1.02
0.98
0.97
0.99
0.99
0.97
0.96
0.99
1.04
1.0
0.97
0.96
0.97
1.01
0.96
0.94
0.95
0.99
0.96
0.97
0.99
1.01
0.97
0.95
0.97
1.0
0.97
0.94
0.95
0.98
0.99
0.95
0.97
0.98
1.0
1.0
0.96
0.94
0.99
1.01
0.97
0.94
1.0
1.02
0.97
0.95
0.99
0.99
0.96
0.94
0.93
0.96
0.99
0.95
0.97
1.06
1.07
1.01
0.96
0.97
1.01
1.02
0.97
0.95
0.98
1.01
1.01
0.97
1.0
1.05
1.02
0.97
0.95
0.96
0.95
0.93
0.91
0.93
1.0
1.0
0.98
1.0
1.01
1.02
0.97
0.94
0.91
0.88
0.93
0.97
0.92
0.88
0.89
0.91
0.97
1.0
1.03
1.08
1.13
0.94
0.95
0.99
1.02
0.97
0.95
0.96
1.01
1.02
1.01
0.99
1.08
1.08
0.97
0.96
0.91
0.98
0.92
0.89
0.88
0.92
0.95
0.98
1.15
1.16
0.98
1.0
1.01
1.02
0.94
0.95
0.98
0.96
0.91
0.96
1.01
1.04
0.98
0.96
1.06
1.1
0.94
0.97
0.94
0.97
1.02
1.02
0.97
1.01
1.08
1.15
0.99
0.99
1.04
1.05
0.97
0.89
0.97
1.02
1.05
0.97
0.95
1.09
1.01
0.96
0.96
0.98
1.0
0.93
1.05
1.04
1.07
1.01
0.97
0.97
1.04
0.96
0.98
0.99
1.03
1.05
0.99
0.95
1.0
1.02
0.97
0.98
0.98
1.02
0.98
0.97
1.02
1.14
1.01
0.98
1.05
1.02
0.93
0.97
0.99
1.04
1.05
1.0
0.96
1.04
1.03
0.97
0.93
0.96
0.97
0.99
0.94
0.93
0.96
1.01
0.95
0.93
0.91
0.99
1.02
0.99
0.97
1.0
1.01
1.01
0.95
0.96
0.98
1.0
0.98
0.95
0.98
1.02
1.0
0.96
0.93
0.96
0.98
0.93
0.91
0.94
0.97
0.99
0.97
1.04
1.03
1.0
0.95
0.97
1.02
1.03
0.96
0.94
0.99
0.99
0.96
0.96
1.0
1.03
1.0
0.99
1.02
1.03
0.94
0.99
0.99
1.03
1.05
0.96
0.94
0.97
0.97
0.96
0.96
0.98
0.97
0.98
0.95
0.95
0.99
1.03
0.94
0.92
0.94
0.97
0.98
0.94
0.94
0.95
0.93
0.92
0.93
0.98
0.95
0.93
0.94
1.0
0.98
0.94
0.96
0.99
0.93
0.91
0.91
0.94
0.95
0.93
0.95
0.94
0.97
0.93
0.93
0.94
0.98
0.98
0.95
0.95
0.98
0.98
0.93
0.9
0.94
0.95
0.83
0.83
1.03
1.04
0.98
0.96
0.97
1.02
1.09
1.05
0.99
0.94
0.97
0.96
0.94
0.93
0.94
0.99
0.99
0.95
0.94
0.94
0.96
0.92
0.94
0.98
1.03
0.98
0.92
0.89
0.89
0.89
0.9
0.92
0.98
1.03
1.07
0.97
1.0
0.99
1.0
0.94
0.91
0.93
0.95
0.98
0.93
0.93
0.99
1.0
0.95
0.94
0.98
0.99
0.96
0.95
0.93
0.97
0.97
0.93
0.93
0.96
1.04
0.97
0.94
0.97
1.02
0.99
0.95
0.94
0.99
1.0
0.96
0.95
0.96
1.01
0.94
0.94
0.94
0.99
0.98
0.94
0.94
0.97
1.03
0.98
0.96
1.0
1.01
1.01
0.98
1.01
1.07
1.02
0.96
0.95
0.98
1.01
0.95
0.94
0.97
1.03
1.01
0.96
0.99
1.05
1.05
0.95
0.93
0.97
0.97
0.94
0.93
0.94
0.95
0.97
0.93
0.95
0.96
0.99
0.95
0.95
0.97
0.99
0.96
0.94
0.97
1.01
1.0
0.95
0.95
0.99
1.02
0.98
0.96
1.03
1.03
0.99
0.95
0.95
0.96
0.95
0.94
0.98
0.99
0.99
0.94
0.93
1.0
1.02
0.98
0.95
0.96
0.98
0.97
0.92
0.95
0.97
0.99
0.94
0.94
0.97
0.98
0.97
0.96
0.95
0.99
0.99
0.94
0.93
0.93
0.98
0.96
0.95
0.95
0.98
1.04
1.01
0.98
1.04
1.06
1.06
0.97
0.94
0.98
0.99
0.94
0.93
0.94
0.94
0.95
0.93
0.95
0.95
0.95
0.9
0.91
0.94
0.98
0.93
0.92
0.95
1.01
1.01
0.97
0.95
1.01
1.0
0.96
0.92
0.96
0.99
0.98
0.95
0.97
1.02
1.0
0.94
0.91
0.93
0.93
0.95
0.92
0.89
0.9
0.96
0.95
0.94
0.99
1.07
1.0
0.95
0.98
0.96
0.96
0.92
0.94
0.96
1.0
0.95
0.93
0.98
1.04
1.02
0.97
0.96
0.98
1.02
0.98
0.94
0.97
1.0
0.99
0.94
0.94
0.96
1.01
0.95
0.92
0.97
0.97
0.99
0.95
0.92
0.97
0.95
0.91
0.91
0.92
0.94
0.93
0.91
0.92
0.95
0.99
0.93
0.93
0.95
0.98
0.95
0.95
0.99
0.99
0.95
0.92
0.94
0.95
0.99
0.92
0.92
0.96
0.98
1.01
0.96
0.94
1.02
0.96
0.93
0.92
0.92
0.96
0.97
0.94
0.94
0.96
0.97
0.93
0.92
0.93
0.99
0.95
0.94
0.97
1.05
1.0
0.94
0.92
0.94
0.95
0.92
0.91
0.93
0.98
0.96
0.94
0.95
0.97
0.95
0.94
0.98
1.01
0.98
0.95
0.95
0.98
0.94
0.93
0.94
0.99
1.02
1.0
0.95
0.94
0.99
0.95
0.94
0.91
0.94
0.95
0.98
0.95
0.99
1.0
0.98
0.95
0.93
0.93
0.95
0.9
0.91
0.95
0.99
0.94
0.92
0.92
0.98
0.99
0.93
0.91
0.95
0.97
0.94
0.94
0.96
0.99
1.01
0.94
0.94
0.97
1.01
0.95
0.93
0.95
1.01
1.0
0.93
0.95
0.95
0.99
0.95
0.92
0.96
0.92
0.92
0.9
0.92
0.96
0.94
0.91
0.9
0.91
0.92
0.89
0.89
0.94
0.97
0.93
0.9
0.95
0.95
0.95
0.95
0.94
1.0
0.96
0.95
0.99
1.01
1.03
0.97
0.93
0.96
1.03
0.97
0.92
0.98
0.99
0.99
0.92
0.9
0.94
0.95
0.95
0.93
0.96
0.97
0.97
0.92
0.95
1.0
1.01
0.98
0.93
0.97
0.99
0.95
0.92
0.91
0.95
0.96
0.94
0.93
0.97
0.99
0.97
0.95
1.01
1.03
0.97
0.93
0.93
0.97
1.05
0.98
0.95
1.03
1.05
0.98
0.94
0.96
0.96
0.97
0.93
0.92
0.97
0.96
0.95
0.91
0.89
0.91
0.91
0.89
0.88
0.88
0.84
0.83
0.81
0.79
0.76
0.76
0.74
0.73
0.72
0.71
0.71
0.72
0.7
0.71
0.71
0.69
0.68
0.69
0.69
0.68
0.69
0.7
0.79
0.76
0.77
0.77
0.77
0.78
0.71
0.75
0.74
0.72
0.72
0.73
1.18
1.31
1.31
1.17
1.12
1.07
1.06
1.01
1.07
1.04
1.02
1.01
1.0
0.99
0.97
0.98
1.03
1.06
0.97
0.95
1.01
1.07
0.98
0.91
0.87
0.85
0.83
0.76
0.78
0.8
0.84
0.84
0.85
0.85
0.84
0.88
0.9
0.94
0.97
0.94
0.99
1.03
1.01
1.04
1.05
1.05
1.06
1.03
1.05
1.03
1.04
1.05
0.99
1.04
1.06
1.06
0.99
1.01
1.09
1.14
1.0
1.01
1.05
1.1
0.97
0.97
1.08
1.01
0.95
0.96
0.9
0.89
0.87
0.86
0.84
0.85
0.84
0.83
0.83
0.85
0.83
0.83
0.88
0.94
0.97
0.97
1.0
1.04
1.01
1.0
0.98
1.02
1.0
1.03
0.99
1.0
1.01
1.01
1.0
1.01
0.9
0.91
1.12
1.13
0.98
1.02
1.05
0.98
0.95
0.99
0.99
0.96
0.94
0.96
1.01
1.0
0.95
0.94
1.02
0.98
0.93
0.93
0.98
0.91
0.88
0.86
0.88
0.86
0.85
0.89
0.86
0.85
0.86
0.86
0.85
0.85
0.87
0.92
0.92
0.93
0.97
0.99
1.03
0.98
0.91
0.99
1.07
0.97
0.94
1.0
0.98
0.96
0.98
0.97
0.95
0.95
1.06
1.0
0.97
0.96
0.99
1.01
0.99
0.97
0.96
1.04
1.02
0.95
0.95
1.01
0.97
0.93
0.91
0.96
0.89
0.87
0.86
0.88
0.88
0.86
0.87
0.88
0.86
0.84
0.85
0.85
0.96
0.9
0.89
0.97
0.98
0.93
0.95
0.97
0.98
0.88
0.83
0.83
0.84
0.93
1.0
1.08
1.04
1.02
1.02
1.01
0.98
1.05
1.03
0.99
0.96
0.95
1.01
1.06
1.01
0.95
1.04
1.04
0.97
0.97
1.0
0.95
0.92
0.87
0.87
0.91
0.91
0.93
0.89
0.87
0.86
0.86
0.83
0.93
0.88
1.08
1.08
0.99
1.05
1.02
0.99
0.96
0.9
0.93
0.94
0.93
0.96
0.96
1.0
1.01
0.98
1.0
0.96
0.97
0.98
0.98
0.96
0.94
0.97
1.02
0.95
0.96
1.09
1.1
1.02
0.99
1.04
1.08
1.0
0.91
0.88
0.88
0.82
0.84
0.87
0.96
0.87
0.89
0.94
0.88
0.89
0.93
0.92
0.98
0.95
0.96
0.98
0.96
0.94
0.94
0.95
0.97
0.98
0.97
0.95
0.94
0.95
0.98
1.0
0.97
0.97
0.93
0.94
0.94
0.99
0.97
0.95
0.99
1.07
1.09
0.95
0.95
1.03
0.96
0.95
0.95
1.07
0.99
0.91
0.87
0.86
0.85
0.91
0.85
0.83
0.97
0.87
0.9
0.95
0.93
0.92
0.98
1.0
0.95
0.93
0.9
0.94
0.95
0.96
0.96
0.97
0.97
0.97
0.97
0.96
0.94
0.93
0.97
1.01
1.09
0.97
0.98
1.02
1.0
0.96
0.96
1.04
1.06
0.95
0.95
1.05
1.05
0.95
0.9
0.88
0.89
0.89
0.87
0.93
0.92
0.9
0.89
0.89
0.87
0.91
0.9
0.94
0.9
0.91
0.85
0.84
0.82
0.82
0.82
0.8
0.79
0.78
0.75
0.75
0.73
0.74
0.73
0.72
0.72
0.72
0.71
0.8
0.8
0.67
0.68
0.73
0.73
0.72
0.73
0.72
0.72
0.73
0.75
0.77
0.79
0.82
0.86
0.9
0.94
1.05
1.05
1.14
1.14
1.08
1.1
1.09
1.08
1.09
1.11
1.08
1.12
1.1
1.09
1.02
0.99
0.93
0.96
1.1
1.11
0.98
0.96
1.02
1.0
0.95
0.95
1.04
1.03
0.99
1.0
1.04
1.02
1.0
1.0
1.0
1.05
1.04
1.04
1.06
1.02
1.0
1.03
1.04
1.05
1.04
1.0
1.01
1.01
1.02
1.0
0.99
1.1
1.06
1.0
0.98
1.08
1.09
1.03
0.97
1.02
1.07
1.07
1.03
1.04
1.08
1.07
1.03
1.0
1.04
1.07
1.07
1.01
1.0
1.05
1.07
1.03
1.01
1.05
1.03
1.04
0.98
0.98
1.01
1.02
0.96
0.96
0.96
1.01
1.03
0.98
1.05
1.08
1.03
1.01
1.05
1.03
1.01
0.98
0.97
1.02
1.01
0.99
0.97
1.02
1.02
1.03
1.01
1.0
1.0
0.99
0.97
1.0
1.05
1.05
1.0
0.98
1.06
1.06
1.04
0.97
0.98
1.09
1.04
1.0
0.97
1.05
1.06
1.0
0.97
0.97
1.01
1.0
0.96
0.94
0.98
1.02
1.01
1.0
1.0
1.04
0.97
0.89
0.91
0.92
0.94
0.91
0.89
0.89
0.88
0.91
0.92
0.98
1.19
1.19
1.05
1.11
1.1
1.11
1.09
1.09
1.05
1.03
1.0
1.03
1.05
1.04
1.02
0.97
0.99
1.07
1.04
1.0
1.11
1.12
1.04
1.09
1.11
1.0
0.99
1.06
1.05
1.0
0.97
1.06
1.12
1.06
1.02
1.04
1.08
1.08
1.03
1.02
1.08
1.06
1.04
0.97
0.99
1.03
1.06
1.02
1.08
1.11
1.11
1.04
1.05
1.07
1.06
1.01
1.0
1.03
1.05
1.0
1.02
1.06
1.06
1.02
1.0
1.03
1.05
1.02
0.97
1.0
1.04
1.04
0.99
0.99
1.06
1.09
1.02
0.99
1.01
1.07
1.03
0.99
0.99
1.02
1.04
1.01
1.0
1.03
1.06
1.05
1.02
1.03
1.08
1.09
1.02
0.99
1.03
1.06
1.04
0.99
1.02
1.06
1.06
0.99
0.99
1.06
1.05
1.0
0.99
1.01
1.08
0.99
0.96
0.92
1.05
1.04
0.98
0.96
1.12
1.04
1.1
1.01
1.01
1.1
1.05
1.03
1.07
1.12
1.07
1.01
1.03
1.05
1.04
1.01
0.97
1.04
1.08
1.02
1.0
1.06
1.05
1.05
1.01
1.03
1.08
1.1
1.02
0.99
1.04
1.06
1.05
1.02
1.0
1.04
1.05
1.02
1.0
1.06
1.08
1.03
1.01
1.04
1.08
1.08
1.01
0.98
0.95
1.05
1.02
0.97
0.97
1.03
1.06
0.98
0.97
1.05
1.05
0.99
0.97
0.99
1.01
1.02
0.99
1.02
1.06
1.1
1.02
0.99
0.98
1.05
1.0
0.99
1.14
1.06
1.13
1.01
1.03
1.09
1.02
0.92
0.96
1.0
1.05
1.03
0.99
1.02
1.05
1.09
1.0
1.04
1.06
1.0
0.97
0.99
1.02
0.99
0.98
0.99
1.09
1.04
1.0
0.99
1.03
1.06
0.99
0.98
0.99
1.02
1.03
0.99
1.01
1.03
1.05
0.97
0.99
1.06
1.08
1.03
0.97
1.0
1.05
1.01
1.02
1.07
1.07
1.02
0.95
0.99
1.02
1.07
1.0
1.01
1.08
1.07
1.1
1.04
1.04
1.11
1.03
0.99
1.02
0.95
1.03
1.0
0.96
1.03
1.04
0.98
0.98
1.06
1.07
1.07
1.02
1.0
1.05
1.06
1.01
1.01
1.07
1.09
1.0
0.97
1.0
1.03
1.01
0.96
0.98
0.98
1.01
0.97
0.99
1.1
1.1
1.09
1.0
1.0
1.04
1.04
0.99
0.96
0.98
0.99
0.99
0.98
1.0
1.07
1.08
1.0
0.98
1.02
1.1
1.03
0.99
0.94
0.98
1.0
1.0
0.97
1.01
1.08
1.05
1.0
0.98
1.02
1.05
1.06
0.98
1.02
1.07
1.07
1.01
1.01
1.05
1.09
1.01
0.97
1.02
1.05
1.0
0.97
0.96
1.02
0.99
0.95
0.95
1.0
1.04
0.99
0.98
1.01
1.05
1.04
0.99
1.0
1.02
1.05
1.01
0.97
0.97
1.01
1.03
1.0
1.01
1.13
1.12
1.04
0.98
1.04
1.02
0.97
0.95
0.99
1.05
1.08
0.98
0.99
1.06
1.05
0.98
0.98
1.01
1.07
1.02
0.98
1.03
1.07
1.05
1.01
1.03
1.05
1.06
0.99
0.99
1.02
1.01
0.99
0.97
0.94
0.99
0.99
0.99
0.97
1.02
1.12
1.06
0.99
0.99
0.99
1.01
0.98
0.96
0.98
1.02
0.99
0.98
0.98
1.04
1.08
1.02
0.98
1.01
1.04
1.03
0.98
0.98
1.07
1.08
0.98
0.96
1.0
1.02
1.04
0.99
1.02
1.07
1.12
1.01
0.98
1.0
1.04
1.01
0.95
1.0
1.06
1.02
0.97
1.01
1.04
1.06
0.98
0.99
1.06
1.07
1.03
0.98
1.0
1.02
1.03
0.98
0.98
1.02
1.05
0.98
0.97
1.03
1.06
1.01
0.97
0.98
1.0
1.01
0.98
0.99
1.04
1.02
0.95
0.95
0.97
1.02
1.0
0.97
1.03
1.09
1.07
1.02
1.0
1.04
1.05
1.02
0.98
0.99
1.04
1.02
0.98
0.98
1.02
1.02
0.96
0.95
0.97
0.99
0.98
0.95
0.98
0.98
0.99
0.96
0.96
1.02
1.04
0.97
0.97
0.99
1.02
1.04
1.0
1.01
1.03
1.03
0.98
0.99
1.03
1.07
0.99
0.96
0.99
1.0
1.01
0.99
0.97
1.03
1.09
1.01
0.97
0.99
1.07
1.06
0.98
0.99
1.03
1.04
1.0
0.99
1.02
1.03
1.01
0.97
0.96
1.0
1.03
0.98
0.98
1.06
1.09
0.99
0.98
1.02
1.08
1.09
1.03
1.01
1.09
1.09
1.01
0.99
1.06
1.1
1.01
1.0
1.06
1.04
0.97
0.93
0.99
1.02
1.06
0.99
0.98
1.02
1.05
0.98
0.97
0.99
0.99
1.03
0.99
0.98
1.05
1.07
0.99
0.96
1.02
1.02
1.03
1.0
0.93
0.93
0.96
0.97
1.0
1.21
1.21
1.05
1.02
1.06
1.04
0.97
1.01
1.15
1.08
0.99
1.08
1.05
1.06
0.97
0.99
0.99
1.04
1.06
1.01
0.97
0.97
1.03
1.04
0.97
0.95
1.02
1.02
1.03
0.98
1.0
1.07
1.05
1.03
1.0
1.03
1.03
1.08
1.08
1.01
1.06
1.01
0.97
0.96
1.01
1.06
0.99
0.97
1.02
1.06
1.01
0.97
1.0
1.07
1.07
1.0
0.97
0.98
1.01
0.98
0.97
1.01
1.06
1.06
1.0
0.98
1.02
1.03
1.03
0.98
0.97
1.02
1.03
1.0
0.93
0.95
0.98
0.98
0.97
0.97
1.07
1.06
0.98
0.96
1.01
1.04
1.06
1.0
0.99
1.04
1.03
1.01
0.96
0.94
1.03
1.03
1.05
0.97
0.97
1.01
1.07
1.06
0.99
1.04
1.05
1.04
0.99
1.05
1.11
1.08
0.99
1.01
1.04
1.09
1.0
0.97
0.97
1.0
1.01
0.96
0.94
0.97
0.97
0.94
0.95
0.95
1.0
1.01
0.98
0.96
1.05
1.06
1.0
0.96
1.01
1.03
1.02
1.0
1.0
1.02
1.02
0.97
0.93
0.98
1.02
1.02
0.98
0.98
1.03
1.02
0.97
0.94
0.98
1.02
0.97
0.95
0.95
0.99
1.0
0.96
0.95
0.99
0.99
0.95
0.93
0.94
0.99
1.01
0.94
0.97
0.99
1.01
0.99
0.98
1.01
1.04
1.0
0.98
0.99
1.03
1.03
0.99
0.97
1.0
1.05
1.0
0.96
1.0
1.02
1.0
0.95
0.95
0.96
1.01
0.97
0.97
0.93
0.98
0.99
0.95
0.96
1.0
1.07
1.03
0.98
1.03
1.04
1.03
0.98
0.99
1.02
1.04
0.98
0.97
1.03
1.03
0.99
0.96
0.97
0.99
1.01
0.99
0.98
1.03
1.01
0.95
0.95
0.99
1.03
0.98
0.98
0.99
1.0
1.01
0.95
0.94
0.98
1.0
0.99
0.97
1.0
1.03
1.06
1.02
1.02
1.02
1.05
0.96
0.95
0.96
0.99
0.96
0.95
0.95
0.97
0.97
0.94
0.95
1.02
0.99
0.99
0.96
0.99
1.03
1.03
0.98
0.97
0.98
1.02
0.98
0.98
0.96
1.0
1.0
0.96
0.96
1.0
1.06
1.04
0.99
1.0
1.07
1.05
0.99
0.98
1.01
1.03
1.04
0.99
0.99
1.02
1.01
0.95
0.94
0.96
0.99
0.96
0.93
0.93
0.94
0.99
0.97
0.95
1.01
1.11
1.06
1.01
1.07
1.1
1.01
1.0
1.04
1.07
1.08
1.0
1.01
1.04
1.04
0.96
0.96
1.0
1.05
1.05
0.97
0.98
1.02
1.04
1.01
0.98
0.99
1.04
1.05
0.97
0.95
0.96
0.99
1.0
0.97
0.97
1.01
1.01
0.96
0.96
0.98
0.97
0.95
0.93
0.95
0.96
0.99
0.95
0.97
1.0
1.05
1.0
0.98
1.02
1.06
0.98
0.96
0.99
1.03
1.02
0.95
0.94
0.96
0.97
0.98
0.97
0.97
1.04
1.07
1.02
0.98
0.98
1.0
1.01
0.94
0.95
0.96
1.01
1.03
0.96
0.95
1.01
1.05
0.97
0.94
0.98
0.99
1.04
0.97
0.95
0.98
1.01
1.01
0.97
0.97
0.96
0.99
0.95
0.96
0.95
0.95
1.0
0.94
0.94
0.98
1.08
1.08
1.02
1.08
1.05
1.04
0.98
0.98
1.02
1.06
1.0
0.92
0.93
1.09
1.1
0.95
0.95
0.99
1.01
1.06
1.01
0.97
1.07
1.07
1.01
1.0
1.07
1.07
1.06
1.0
1.01
0.95
1.03
0.96
0.96
1.02
1.04
1.0
0.97
1.04
1.12
0.95
0.95
1.02
1.03
1.07
1.08
1.05
1.09
1.01
0.98
1.0
1.01
0.94
0.98
0.97
1.04
1.04
1.01
1.0
1.04
1.03
0.98
0.96
1.0
1.08
1.08
1.02
1.02
1.09
1.05
0.99
1.0
1.03
1.09
0.98
0.94
0.96
0.99
0.96
0.92
0.93
0.96
0.95
0.95
0.98
0.99
1.03
0.98
0.98
1.05
1.05
0.98
0.99
1.02
1.03
0.97
0.98
1.04
1.12
0.98
0.98
0.97
1.06
1.06
1.06
0.98
1.04
1.04
0.97
0.93
0.95
1.01
1.01
0.97
0.97
1.07
1.04
0.99
0.95
0.96
0.93
0.94
0.93
0.93
1.0
1.01
0.99
0.98
0.96
0.99
1.01
0.99
0.95
1.03
1.04
1.01
0.97
0.96
1.14
1.04
1.01
0.98
1.05
1.04
0.99
0.97
0.96
0.93
1.0
0.96
0.94
0.96
0.98
0.94
0.95
0.99
1.03
0.98
0.97
0.98
1.01
1.0
0.99
0.96
0.98
1.02
1.06
0.99
0.99
1.07
1.1
1.08
0.97
0.97
1.05
1.05
0.99
1.0
1.05
1.07
1.01
0.98
1.0
1.0
1.01
0.99
1.04
1.07
1.02
0.97
0.98
0.97
1.0
0.96
0.96
0.99
1.01
1.03
0.97
0.96
0.99
1.04
0.99
0.96
0.99
1.0
0.97
0.95
0.95
0.95
0.98
0.92
0.88
0.87
0.89
0.9
0.89
0.93
0.91
0.93
0.9
0.91
1.01
1.05
1.07
1.02
0.98
1.03
1.04
1.02
0.97
0.97
0.99
1.02
0.99
0.96
1.01
1.06
1.06
1.01
1.03
1.01
1.05
1.02
1.02
1.0
1.06
0.95
0.96
1.12
1.07
1.01
0.98
1.06
1.06
1.05
0.99
0.98
1.02
1.04
1.01
0.99
0.95
1.02
1.03
1.01
0.99
0.98
1.08
1.09
1.07
0.99
1.02
1.06
1.04
1.0
0.98
1.13
1.14
0.93
0.96
0.99
1.04
1.08
1.03
0.97
1.05
1.04
1.01
0.99
1.03
1.01
0.98
0.94
0.94
1.02
0.99
0.95
0.98
1.02
1.03
0.97
0.96
1.02
1.06
1.03
0.97
0.99
1.03
1.03
0.98
0.94
0.99
1.01
0.97
0.95
0.97
1.01
1.05
0.99
0.96
1.03
1.06
1.08
0.98
1.01
1.05
1.06
0.99
1.0
1.03
1.04
1.05
0.98
0.98
1.06
1.08
1.03
1.01
1.05
1.08
1.09
0.99
0.98
1.02
1.02
1.0
0.98
1.03
1.05
1.03
0.96
0.94
0.98
1.0
0.98
0.97
0.97
1.02
1.05
0.96
0.95
0.96
1.02
1.01
0.94
0.95
0.98
0.99
0.97
0.95
0.99
1.04
1.04
0.98
0.94
0.99
1.02
1.02
1.0
1.05
1.04
1.03
0.99
1.0
1.05
1.08
0.99
0.95
1.0
1.01
1.01
0.97
0.94
1.01
1.02
0.99
0.95
0.98
0.96
1.01
0.94
0.94
1.0
1.04
1.04
0.98
0.99
1.04
1.06
0.96
0.94
0.95
0.97
0.97
0.92
0.92
0.95
1.06
1.01
0.98
0.96
1.01
1.04
0.97
0.97
1.05
1.1
1.05
0.99
1.03
1.05
1.06
0.99
0.99
1.03
1.03
1.01
0.96
0.95
0.97
0.98
0.96
0.98
1.09
1.11
1.09
1.0
0.97
0.99
0.99
0.94
0.92
0.94
0.96
1.0
0.96
0.97
1.02
1.06
1.02
0.97
0.98
1.01
1.03
0.99
0.94
0.94
0.98
0.96
0.96
0.96
1.01
1.02
0.97
0.96
1.0
1.0
0.98
0.93
0.91
0.94
1.0
0.99
1.0
1.13
1.14
1.05
1.02
1.07
1.07
0.97
0.94
0.95
1.02
1.01
0.97
0.95
1.04
1.0
0.96
0.94
0.97
0.98
0.97
0.97
0.96
0.99
1.03
0.97
0.97
1.0
1.03
1.0
0.95
0.92
0.93
0.97
0.98
1.1
1.11
1.06
1.05
1.01
1.06
1.1
1.08
0.96
0.93
1.01
1.05
1.01
0.95
0.95
1.01
1.01
0.98
0.95
1.0
0.98
0.97
0.94
0.96
0.99
1.03
0.96
0.94
1.02
1.01
1.0
0.96
0.97
1.03
1.03
0.98
0.99
1.07
1.07
1.01
0.96
0.98
1.0
1.0
0.93
0.95
0.97
1.04
1.06
1.0
1.01
1.05
1.07
0.99
0.96
1.04
1.06
1.01
0.97
0.98
1.01
1.03
0.98
0.95
1.01
1.05
1.0
0.99
0.98
1.02
1.03
0.99
0.96
0.94
0.95
0.98
0.96
0.95
0.99
1.02
1.05
0.99
0.98
1.08
1.09
1.01
0.98
1.02
1.06
1.06
1.0
0.99
1.06
1.05
1.0
0.97
0.97
1.0
0.98
0.95
0.94
0.99
1.01
0.97
0.94
0.98
1.0
0.98
0.93
0.91
0.94
0.97
0.9
0.91
0.96
0.97
0.95
0.92
0.99
1.02
1.0
0.96
0.94
0.96
1.02
1.0
0.98
1.07
1.15
1.16
1.02
1.0
1.05
1.05
1.0
0.97
0.97
1.01
1.04
0.99
0.98
0.99
1.06
1.02
0.99
0.97
1.01
1.01
0.95
0.95
0.98
1.01
0.98
0.94
0.96
1.01
1.0
0.96
0.93
0.96
1.16
1.16
1.01
1.02
1.1
1.14
1.05
0.97
1.1
1.11
0.99
0.92
0.99
1.03
1.07
0.99
0.97
0.99
1.03
0.99
0.95
0.94
0.97
0.97
0.97
0.94
0.99
0.98
1.03
0.96
0.96
1.02
1.04
0.98
0.95
0.93
0.94
0.97
0.96
0.95
0.99
1.01
0.98
0.94
0.95
1.01
1.01
0.97
0.96
0.99
0.98
0.97
0.95
0.96
1.01
1.05
0.96
0.94
0.95
0.97
0.98
0.95
0.92
0.95
0.99
0.95
0.96
0.99
1.04
1.03
0.97
0.95
0.98
1.0
1.02
0.95
0.98
1.01
1.03
0.94
0.9
0.9
0.94
0.9
0.89
0.88
0.89
0.9
0.89
0.89
1.05
1.01
1.07
0.98
1.04
1.04
1.01
0.95
0.94
1.01
0.99
0.95
0.94
0.96
1.02
1.0
0.93
0.93
0.95
0.97
0.95
0.92
0.98
1.0
0.96
0.92
0.92
0.94
0.98
0.92
0.92
0.95
1.01
1.03
0.96
0.95
1.02
1.01
0.95
0.93
0.95
0.98
0.99
0.93
0.93
0.98
1.0
0.95
0.92
0.98
1.0
0.99
0.94
0.93
0.97
1.02
1.01
0.97
1.04
1.09
1.12
0.94
0.94
0.96
0.97
0.97
0.96
0.96
1.09
1.12
1.06
0.99
0.99
1.05
1.13
1.07
0.98
0.97
0.99
1.07
1.02
0.97
0.99
1.04
1.06
0.98
0.96
0.98
1.0
0.99
0.96
0.99
1.05
1.06
0.99
0.95
0.98
1.01
1.01
0.97
0.95
1.0
1.03
1.01
0.96
0.97
1.02
1.03
0.96
0.95
1.01
1.02
1.04
0.95
0.94
0.98
0.99
1.02
0.98
0.97
0.99
1.02
0.99
0.97
0.96
0.97
0.99
0.95
0.97
0.98
1.01
0.97
0.95
0.98
1.04
1.02
0.96
0.96
1.0
1.0
0.96
0.94
1.0
1.01
0.99
0.97
0.99
1.01
1.03
0.95
0.94
0.94
0.98
0.99
0.97
0.94
1.0
1.07
1.03
1.02
1.04
1.07
1.06
0.99
0.96
1.01
1.07
1.02
0.97
1.02
1.02
1.02
0.97
0.95
1.01
1.04
0.97
0.97
0.95
1.0
0.99
0.96
0.94
1.1
1.01
1.08
0.91
0.97
1.0
1.01
0.96
0.96
0.98
1.05
1.01
0.97
0.93
1.01
1.0
0.98
0.95
0.92
0.96
0.99
0.96
0.95
1.03
1.02
1.02
0.98
0.96
1.0
1.01
0.97
0.92
0.94
0.94
0.97
0.93
0.94
0.97
1.05
0.98
0.94
0.97
1.02
1.03
0.96
0.94
1.03
1.03
1.05
0.98
0.94
0.97
1.03
0.96
0.97
1.02
1.06
1.0
0.96
0.95
0.98
0.98
0.96
0.93
0.96
0.98
0.97
0.94
0.93
0.98
1.02
0.98
0.95
0.93
0.98
1.02
1.0
0.95
0.94
0.98
1.0
0.95
0.94
1.01
1.04
1.01
0.99
0.96
0.99
1.02
0.99
0.94
0.99
1.0
1.0
0.96
0.98
1.04
1.04
0.94
0.92
0.95
0.96
1.01
0.94
0.92
0.99
1.04
1.02
0.97
0.98
1.01
1.02
0.97
0.97
1.04
1.03
0.97
0.94
0.98
1.04
1.02
0.97
0.95
0.98
0.97
0.99
0.96
0.96
0.99
0.98
0.96
0.92
0.97
1.01
1.01
0.97
0.95
1.0
1.01
0.98
0.96
0.98
1.01
1.02
0.96
0.96
1.03
1.04
1.03
0.98
0.95
0.99
1.0
0.95
0.94
0.98
1.0
0.99
0.98
0.95
1.02
1.0
0.93
0.9
0.9
0.94
0.96
0.93
0.91
0.95
0.98
0.99
0.94
0.98
1.05
1.01
0.94
0.95
1.01
1.0
0.98
0.98
1.02
1.04
1.01
0.96
0.95
1.0
0.98
0.99
0.93
0.9
0.9
0.89
0.87
0.85
0.85
0.85
0.82
0.8
0.78
0.77
0.76
0.76
0.75
0.75
0.74
0.74
0.74
0.73
0.72
0.72
0.72
0.7
0.72
0.7
0.7
0.69
0.7
0.68
0.69
0.69
0.7
0.7
0.71
0.71
0.81
1.01
1.09
1.18
1.15
1.15
1.23
1.12
1.02
1.05
1.14
1.12
1.03
0.98
1.01
1.17
1.06
0.99
1.05
1.06
1.0
0.94
0.96
1.04
0.98
0.98
1.09
1.1
1.0
1.07
1.07
1.06
0.99
1.01
1.02
0.99
1.03
1.08
1.09
1.02
1.04
1.07
1.03
1.0
1.08
1.09
1.01
1.0
0.99
0.99
0.96
0.92
0.97
1.06
0.97
0.95
1.01
0.98
0.94
0.96
1.04
0.95
0.97
1.04
1.05
0.98
1.03
1.04
1.04
0.97
1.02
1.05
1.08
1.0
1.04
1.05
1.05
1.02
1.03
1.03
1.07
0.99
0.99
1.05
1.09
1.02
0.98
1.02
1.05
1.02
1.0
0.97
1.12
1.03
0.93
0.89
0.91
0.93
0.9
0.9
0.96
0.89
0.89
0.94
0.91
0.89
0.95
1.0
0.93
0.96
0.96
0.96
0.88
1.0
1.01
0.99
0.97
1.02
1.02
1.02
1.04
1.05
1.03
1.03
1.0
0.98
1.0
1.02
0.97
0.97
0.99
1.02
0.95
0.97
1.02
1.03
0.94
0.95
1.01
1.01
0.93
0.9
0.89
0.93
0.9
0.89
0.97
0.92
0.9
0.9
0.9
0.89
0.87
0.92
0.95
0.93
0.98
1.03
1.05
1.03
1.02
1.04
1.03
1.04
1.03
1.02
1.01
1.01
1.01
1.03
1.03
1.01
0.96
1.03
1.01
1.02
0.99
1.01
1.06
1.07
0.98
0.99
1.03
1.05
0.97
0.96
0.97
1.02
0.97
0.93
0.95
0.93
0.88
0.87
0.87
0.93
0.9
0.88
0.9
0.89
0.86
0.86
0.88
0.85
0.89
0.91
0.96
0.99
0.97
0.98
0.97
0.99
0.97
0.98
0.98
0.98
0.99
1.01
1.02
1.01
1.0
1.02
1.0
0.99
1.01
0.99
0.95
0.94
0.94
0.95
1.0
0.93
0.95
1.02
1.02
0.94
0.95
1.04
1.04
0.92
0.89
0.89
0.89
0.87
0.87
0.9
0.89
0.86
0.92
0.9
0.94
0.99
1.05
1.0
0.99
1.04
1.04
1.02
1.01
0.99
1.02
1.02
1.01
0.99
0.98
0.98
0.91
0.99
0.99
1.05
0.95
0.95
1.02
1.01
1.04
1.0
0.97
1.04
1.06
1.02
0.98
1.02
1.09
1.02
0.96
0.94
1.04
1.05
0.92
0.93
0.97
0.96
0.89
0.87
0.89
0.9
0.88
0.93
0.89
0.88
0.91
0.89
0.88
0.89
0.94
0.93
0.93
0.95
1.01
1.02
1.0
0.97
0.98
0.96
0.88
0.95
0.95
0.97
1.0
1.02
1.09
0.99
0.99
1.01
1.01
1.03
1.03
1.02
1.05
1.01
0.96
1.04
1.04
1.02
0.97
0.95
0.95
0.92
0.91
0.93
0.92
0.88
0.85
0.87
0.87
0.89
0.89
0.88
0.87
0.93
0.95
0.91
1.0
1.01
0.92
1.0
1.01
1.01
1.0
0.97
1.02
1.03
1.06
1.07
1.14
1.07
1.05
1.06
1.05
1.03
1.02
0.98
1.03
1.07
1.02
1.0
0.97
1.03
1.08
0.97
0.98
0.98
1.05
0.98
0.91
0.89
0.91
0.89
0.88
0.88
0.91
0.9
0.88
0.91
0.93
0.9
0.97
1.01
1.03
0.98
1.02
1.03
1.02
1.01
0.99
0.99
0.96
0.96
0.88
0.97
0.97
1.01
1.01
1.02
1.0
1.0
0.98
0.96
0.96
1.03
1.13
1.13
0.99
1.0
1.04
1.05
0.96
0.97
1.07
1.08
0.98
0.97
1.02
1.0
0.92
0.89
0.89
0.91
0.89
0.88
0.92
0.9
0.89
0.9
0.92
0.91
0.97
0.98
0.98
1.0
1.0
1.02
1.01
0.99
1.0
1.0
1.0
0.99
0.99
0.92
0.99
0.98
1.02
1.01
1.01
1.09
0.99
0.98
0.96
1.01
1.01
0.98
0.98
1.07
1.03
0.97
0.98
1.02
1.03
0.94
0.94
1.02
0.97
0.92
0.93
1.04
1.02
0.95
0.95
0.93
0.89
0.87
0.86
0.89
0.85
0.83
0.82
0.81
0.79
0.73
0.76
0.75
0.76
0.67
0.67
0.85
0.71
0.71
0.71
0.71
0.7
0.69
0.7
0.69
0.69
0.69
0.7
0.7
0.7
0.71
0.72
0.75
0.76
0.79
0.83
0.92
1.07
1.19
1.23
1.24
1.17
1.09
1.06
1.1
1.26
1.13
1.02
0.95
0.94
0.99
1.19
1.09
1.32
1.32
1.06
0.98
1.0
1.04
1.01
0.99
1.0
1.11
1.12
1.14
1.11
1.07
1.11
1.16
1.08
1.04
1.04
1.15
1.12
1.05
1.03
1.08
1.06
1.22
1.32
1.15
1.01
0.99
1.01
0.97
0.96
1.06
1.18
1.09
1.14
1.15
1.12
1.03
1.04
1.05
1.08
1.03
1.06
1.08
1.11
1.07
1.09
1.09
1.08
1.06
1.06
1.17
1.23
1.19
1.16
1.24
1.18
1.1
1.16
1.04
0.98
0.97
1.05
1.1
1.1
1.01
1.0
1.04
1.04
1.01
0.99
1.07
1.05
1.02
0.97
1.0
1.07
1.08
1.04
1.03
1.11
1.12
1.1
1.03
1.04
1.06
1.06
1.04
1.05
1.05
1.07
1.01
1.01
1.05
1.09
1.05
1.03
1.09
1.07
1.06
1.01
0.97
1.02
1.04
1.05
1.03
0.96
1.03
1.06
1.0
0.97
1.1
1.05
1.01
0.99
1.05
1.03
1.0
0.97
0.96
1.01
1.01
1.01
1.0
1.07
1.12
1.02
0.99
1.05
1.05
1.03
0.98
1.01
1.04
1.02
0.98
0.93
0.92
0.95
0.97
0.95
0.93
0.92
0.95
1.04
1.09
1.08
1.06
1.09
1.12
1.1
1.07
1.09
1.08
1.08
1.01
1.05
1.06
1.05
1.03
0.97
0.99
1.1
1.07
1.02
1.0
1.07
1.05
0.99
1.01
1.07
1.09
1.02
1.04
1.1
1.11
1.06
1.01
1.03
1.05
1.03
0.98
1.03
1.02
1.01
1.0
1.0
1.03
1.05
1.05
1.01
0.98
1.03
1.07
1.02
1.0
0.99
1.02
0.98
0.95
1.02
1.08
1.03
1.01
1.13
1.1
1.04
1.0
1.07
1.1
1.04
1.02
1.06
1.11
1.06
1.03
1.01
1.08
1.08
1.06
1.01
1.02
1.03
1.01
1.02
1.06
1.15
1.11
1.07
1.07
1.12
1.07
1.03
1.02
1.08
1.09
1.06
1.03
1.0
1.03
1.06
1.04
1.01
1.1
1.09
1.03
1.0
0.98
1.01
1.01
0.99
0.99
1.08
1.07
1.0
1.03
1.11
1.08
1.02
0.99
1.05
1.04
1.01
1.02
1.03
1.13
1.11
1.02
1.01
1.06
1.05
1.0
0.98
1.0
1.02
1.0
0.99
0.97
1.03
1.05
1.02
1.03
1.05
1.06
1.05
0.98
0.97
1.03
1.05
1.0
1.0
1.08
1.07
1.03
1.03
1.08
1.05
1.01
0.97
1.01
1.05
1.04
1.0
0.98
1.05
1.07
0.99
0.99
1.05
1.08
1.05
1.0
0.98
1.04
1.03
0.97
0.96
0.97
1.02
1.01
0.99
1.01
1.07
1.06
0.99
0.99
1.04
1.06
0.99
0.99
1.02
1.02
0.99
0.99
1.04
1.08
1.03
0.99
0.93
1.01
0.99
0.95
0.93
0.92
0.98
0.98
0.96
0.96
1.04
1.09
1.02
1.05
1.08
1.14
0.99
1.01
1.1
1.14
1.04
1.01
1.08
1.13
1.1
1.06
1.07
1.09
1.06
1.01
1.01
1.06
1.03
0.98
0.96
1.02
0.93
0.99
0.97
0.94
0.98
1.06
1.02
1.0
1.03
1.06
1.07
0.99
0.98
1.02
1.03
0.99
1.0
1.06
1.1
1.07
1.03
0.99
1.06
1.06
0.99
0.97
1.04
1.02
1.0
0.97
1.01
1.09
1.13
1.02
1.04
1.09
1.1
0.99
0.99
1.04
1.07
1.08
1.02
1.0
1.04
1.09
1.02
0.99
1.08
1.08
1.03
1.0
1.06
1.05
0.97
0.92
0.89
0.91
0.97
0.99
1.03
1.33
1.34
1.06
1.07
1.11
1.05
1.01
1.02
1.04
1.03
0.92
0.99
1.03
1.03
0.98
0.99
1.06
1.13
1.04
1.01
1.06
1.1
1.03
1.01
1.01
1.01
1.06
1.01
1.05
1.19
1.2
1.04
1.01
1.08
1.06
1.02
0.98
1.03
1.06
1.03
1.02
0.98
1.06
1.05
0.99
0.99
1.03
1.08
1.03
0.99
1.02
1.01
1.02
0.98
0.98
1.01
1.06
1.04
1.03
1.09
1.19
1.03
0.94
1.03
1.03
1.01
0.97
0.93
0.94
0.97
1.01
1.04
1.18
1.19
1.14
1.03
1.03
1.09
1.08
1.01
0.98
1.02
1.04
1.09
1.03
0.99
1.07
1.08
1.08
1.01
1.05
1.1
1.11
1.08
0.94
1.04
1.05
1.05
0.99
1.01
1.05
1.07
1.01
0.99
1.04
1.04
1.0
0.97
0.97
1.02
1.05
1.03
1.02
1.1
1.11
1.01
0.98
1.07
1.09
1.08
1.01
0.96
0.95
0.95
0.97
0.97
1.01
1.17
1.18
1.02
1.02
1.07
1.07
1.03
0.99
1.0
1.06
1.07
0.99
0.98
1.03
1.06
1.02
0.98
0.97
0.99
1.03
0.98
0.96
0.99
1.04
1.02
1.03
1.14
1.16
1.06
1.06
1.01
1.09
1.1
0.96
0.96
1.06
1.03
0.99
0.96
1.0
1.02
0.97
0.96
0.97
1.0
0.97
0.95
0.94
0.94
0.96
0.92
0.94
0.98
1.04
1.0
0.97
0.98
0.99
1.0
0.98
0.95
1.02
1.07
1.01
1.01
1.03
1.14
1.14
0.99
0.97
0.94
1.01
1.01
0.98
1.02
1.07
1.04
1.0
0.97
1.05
1.05
0.96
0.96
1.0
1.04
1.02
0.99
0.98
1.04
1.13
1.08
1.01
1.07
1.08
1.05
1.01
1.0
1.05
1.05
0.99
0.97
1.02
1.05
1.09
1.02
0.99
1.02
1.03
0.97
0.97
1.01
1.13
1.13
0.98
0.95
0.99
1.02
0.98
0.98
1.01
1.08
1.04
1.01
1.03
1.04
1.03
0.99
0.98
1.05
1.09
1.02
1.0
1.05
1.09
1.11
1.01
1.0
1.06
1.09
1.03
1.0
1.04
1.07
1.08
1.0
0.97
1.0
1.09
1.06
1.0
0.99
1.0
1.03
0.99
0.96
1.01
1.03
1.05
0.97
0.99
1.03
1.02
0.99
0.95
0.98
0.99
1.02
0.99
1.0
1.08
1.12
1.04
0.99
1.05
1.12
1.13
1.06
1.1
1.14
1.15
0.98
0.98
1.07
1.06
0.99
0.98
1.05
1.06
1.01
0.97
1.0
1.03
1.01
0.98
0.97
1.04
1.06
0.99
0.94
1.0
1.03
1.02
1.0
0.99
1.06
1.12
1.05
0.99
0.96
0.95
0.95
0.95
0.95
1.04
1.12
1.05
1.03
1.08
1.1
1.04
0.98
0.97
0.98
1.01
0.96
0.95
1.03
1.06
1.05
1.03
1.0
1.03
1.02
0.99
0.94
1.01
0.97
1.0
0.92
0.92
0.95
0.98
0.95
0.94
0.97
1.0
1.0
0.94
0.93
0.95
0.96
0.98
0.93
0.9
0.87
0.88
0.86
0.85
0.84
0.83
0.82
0.82
0.8
0.79
0.76
0.76
0.75
0.75
0.76
0.77
0.79
0.85
0.93
1.08
1.14
1.24
1.2
1.15
1.08
1.12
1.13
1.16
1.13
1.12
1.13
1.11
1.09
1.07
1.04
1.0
1.03
1.07
1.07
1.02
1.0
0.98
0.94
0.96
1.01
0.97
0.93
0.96
1.04
1.01
0.98
1.01
1.07
1.06
1.01
1.01
1.06
1.02
1.03
1.04
1.06
1.09
1.07
1.07
1.12
1.1
1.05
1.02
1.02
1.06
1.06
1.04
1.01
1.05
1.11
1.08
1.03
1.0
1.05
1.09
1.05
1.0
0.98
1.06
1.02
0.97
1.01
1.09
1.03
1.0
1.04
1.04
1.01
0.96
0.97
0.95
0.96
0.94
1.0
1.1
1.06
1.04
1.1
1.1
1.06
1.06
1.09
1.08
1.07
1.03
1.04
1.09
1.06
1.05
1.02
1.06
1.1
1.05
1.0
0.99
1.05
1.05
1.0
0.98
1.0
1.03
0.98
0.99
1.13
1.14
1.03
1.03
1.13
1.12
1.05
0.97
1.02
1.05
1.02
0.99
1.03
1.05
1.03
1.03
1.02
1.11
1.09
1.04
1.03
1.08
1.1
1.07
1.03
1.04
1.11
1.07
1.03
1.01
1.08
1.09
1.03
1.01
1.02
1.07
1.06
0.98
0.96
1.02
1.07
1.05
1.01
1.12
1.1
1.03
1.01
1.09
1.07
1.04
0.98
1.03
1.03
0.98
0.96
0.91
0.84
1.08
1.09
1.14
1.07
1.09
1.07
1.06
1.03
1.03
1.07
1.01
0.98
1.01
1.04
0.97
0.94
0.94
0.98
0.98
0.91
0.92
0.87
0.84
0.85
0.83
0.8
0.81
0.83
0.82
0.85
0.9
0.94
1.1
1.2
1.22
1.23
1.22
1.21
1.19
1.18
1.19
1.2
1.2
1.19
1.16
1.15
1.17
1.05
1.03
1.11
1.14
1.06
1.04
1.06
1.01
0.99
1.04
1.15
1.1
1.08
1.15
1.16
1.06
1.05
1.06
1.05
1.09
1.06
1.08
1.07
1.04
1.09
1.09
1.16
1.18
1.16
1.09
1.1
1.11
1.1
1.06
1.1
1.07
1.05
1.02
1.0
0.98
0.98
1.03
1.08
1.18
1.25
1.14
1.09
1.1
1.11
1.05
1.01
1.02
1.07
1.02
1.0
1.1
1.06
1.06
1.01
1.02
1.05
1.04
1.03
1.03
1.12
1.07
1.07
1.05
1.04
1.16
1.14
1.1
1.03
1.02
1.05
1.07
1.08
1.03
1.04
1.05
1.07
1.01
1.0
1.04
0.97
1.04
0.99
1.01
1.03
1.03
0.98
0.99
1.07
1.13
1.03
1.06
1.08
1.0
1.06
1.01
1.16
1.17
1.01
1.02
0.97
1.17
1.17
1.02
1.08
1.06
1.05
1.01
1.03
1.05
1.03
1.0
0.98
1.05
1.07
0.97
1.02
1.08
1.02
1.02
1.0
1.0
1.04
0.98
1.04
0.98
1.01
1.05
1.06
1.03
0.97
0.99
1.03
1.0
0.95
0.98
1.04
1.07
1.08
1.0
1.05
1.08
1.02
1.01
1.04
1.04
1.0
0.94
0.98
1.02
1.05
1.06
1.01
1.09
1.09
1.08
0.99
1.0
1.03
1.03
0.93
0.99
0.96
0.99
1.05
1.0
1.01
1.08
1.0
0.92
1.04
1.09
1.07
1.09
1.05
1.02
1.07
1.05
0.93
1.0
0.99
1.03
1.01
1.04
0.98
1.02
1.14
1.06
1.01
1.03
1.11
1.1
1.03
1.0
1.04
1.01
0.98
0.96
0.99
0.98
0.96
1.08
0.99
1.07
1.07
0.94
1.04
1.06
1.07
0.99
0.91
1.0
1.03
1.04
1.0
0.99
1.02
1.07
1.03
1.0
0.98
1.05
1.03
1.02
1.0
1.03
1.17
1.07
1.01
0.98
1.07
1.08
1.03
1.03
1.09
1.08
1.04
1.03
0.94
1.07
1.16
1.0
1.01
0.98
1.06
1.14
0.93
0.97
0.97
1.0
1.05
1.0
0.98
1.03
1.06
1.03
0.98
1.0
1.04
1.04
0.99
0.95
0.98
1.03
1.03
1.02
0.97
1.04
1.07
1.07
1.01
1.05
1.06
1.05
1.0
1.0
1.07
1.11
1.12
1.01
1.03
0.97
1.04
1.1
1.0
1.03
0.97
1.06
0.98
1.03
1.04
1.03
0.98
1.0
1.12
1.06
1.03
0.99
1.03
0.95
1.01
0.98
0.99
1.03
0.97
1.03
0.94
0.97
1.01
0.96
0.95
1.03
1.08
1.01
0.98
1.11
1.01
1.07
1.07
1.03
1.04
0.99
0.91
0.97
1.08
1.12
1.12
0.99
1.06
1.05
1.01
0.94
0.87
0.93
1.01
1.11
1.07
1.17
1.29
1.09
1.03
1.05
1.04
1.05
0.99
0.91
1.03
1.07
0.98
0.98
1.01
1.03
1.03
1.0
1.01
1.09
1.16
1.07
1.02
1.05
1.04
1.06
1.0
0.99
1.01
1.06
1.01
1.0
1.16
1.06
1.03
0.99
1.04
1.05
1.02
1.0
1.03
1.06
1.01
0.99
1.07
1.06
1.05
1.02
1.0
1.02
1.04
1.01
0.98
1.03
1.06
1.02
1.03
1.02
1.05
1.06
1.0
0.99
1.01
1.03
1.07
0.99
0.99
1.0
0.94
1.04
1.0
1.03
1.03
1.02
0.94
0.99
1.05
0.95
0.96
1.01
0.99
1.06
1.07
1.03
1.0
1.05
1.08
1.09
0.99
0.92
1.05
1.05
0.98
0.95
1.02
1.05
1.03
0.98
0.99
1.02
1.08
1.02
1.03
1.19
1.2
1.03
0.98
1.06
1.05
0.98
0.98
1.03
1.06
1.03
1.0
1.02
1.05
1.05
1.0
1.0
1.04
0.97
0.97
1.05
0.95
1.01
1.03
1.01
0.98
1.0
1.01
1.01
0.95
0.96
1.0
1.04
1.01
0.99
1.0
1.02
1.03
0.96
0.97
0.99
1.01
0.99
0.96
1.03
1.0
0.99
0.98
1.02
1.01
1.0
0.99
1.01
1.04
1.08
0.99
0.99
1.04
1.05
0.99
0.97
0.97
1.0
0.99
0.96
1.0
1.05
1.05
0.99
1.02
1.09
1.05
0.99
0.97
0.99
1.04
1.01
1.01
0.98
1.01
1.03
0.99
1.03
1.07
1.04
0.93
0.94
0.98
0.98
0.95
1.0
0.98
0.97
1.03
1.01
0.99
0.98
0.95
1.02
0.99
0.98
0.97
1.01
1.0
0.94
0.94
0.96
0.95
0.98
0.95
0.94
1.0
1.0
1.02
1.0
0.98
1.04
1.03
1.01
1.0
0.98
0.96
0.93
0.93
0.92
0.9
0.88
0.92
0.94
0.96
0.98
0.97
1.03
1.05
1.02
1.05
1.02
1.01
1.01
0.96
0.94
0.97
0.99
0.99
0.99
1.03
1.02
0.97
0.95
0.96
0.98
0.94
0.92
0.92
0.93
0.92
0.92
0.92
0.96
0.94
0.97
0.96
0.95
0.96
0.96
0.98
0.95
0.96
0.96
0.95
0.94
0.95
0.96
0.98
0.96
0.99
1.0
0.97
0.95
0.97
0.96
0.98
0.94
0.98
0.96
0.96
0.94
0.94
0.94
0.94
0.95
0.92
0.93
0.93
0.92
0.97
1.01
0.96
0.99
0.93
0.9
0.9
0.87
0.88
0.89
0.9
0.96
1.0
1.04
1.01
0.97
0.97
1.02
0.98
0.95
0.94
0.96
0.97
0.96
0.96
0.96
0.98
0.95
0.95
0.95
0.95
0.93
0.92
0.91
0.91
0.91
0.9
0.93
0.96
0.99
0.98
1.01
0.98
0.98
0.97
0.97
0.98
0.98
0.95
1.01
1.01
0.98
0.98
1.05
1.0
0.99
0.99
1.02
1.0
0.98
1.01
1.03
0.98
0.98
1.0
0.95
0.95
1.0
0.97
0.96
1.03
1.0
0.98
0.96
1.01
1.0
0.96
0.95
0.98
0.97
0.94
0.93
0.91
0.95
0.97
0.94
0.95
0.96
0.97
0.98
0.92
0.91
0.94
0.92
0.92
0.92
0.89
0.92
0.91
0.91
0.91
0.9
0.94
0.94
0.94
0.92
0.98
1.02
1.0
0.94
0.93
0.96
0.96
0.96
0.93
0.93
0.97
0.97
0.97
0.93
0.96
0.98
0.97
0.93
0.95
0.96
0.96
0.94
0.95
0.95
0.96
0.92
0.92
0.95
0.96
0.96
0.95
0.99
1.01
0.99
0.97
1.02
1.04
0.98
0.98
0.99
0.99
0.96
0.95
0.91
0.92
0.91
0.95
0.93
1.08
1.08
1.04
1.05
1.08
1.07
0.98
0.96
0.98
0.98
0.91
0.92
0.94
0.94
0.93
0.95
0.99
0.99
0.98
1.03
0.96
0.97
0.95
0.95
0.98
0.97
0.96
0.98
1.01
1.08
1.01
1.01
1.05
1.02
1.01
0.98
1.01
1.02
0.98
0.99
1.01
0.99
1.0
1.01
1.0
0.98
0.96
0.95
0.93
0.93
0.97
0.93
0.96
1.01
1.0
0.96
1.03
1.02
0.96
0.95
0.98
1.0
0.95
0.93
0.98
0.96
0.96
0.96
0.98
1.04
1.06
1.0
1.01
1.03
0.95
0.95
0.92
0.92
0.94
0.92
0.92
0.97
1.0
0.98
0.97
1.01
1.05
1.0
1.0
0.99
1.04
1.01
0.99
1.0
1.01
0.99
0.96
0.93
0.94
0.93
0.92
1.05
0.99
0.93
0.92
0.9
0.88
0.85
0.83
0.82
0.82
0.79
0.78
0.77
0.78
0.81
0.84
0.92
0.97
1.0
1.07
1.18
1.1
1.09
0.97
0.98
1.06
1.07
1.03
0.97
0.97
1.06
1.14
1.09
1.03
1.02
1.09
1.07
1.06
1.05
1.0
1.01
1.09
1.06
0.98
1.0
1.08
1.08
0.99
1.06
1.09
1.07
0.98
0.97
1.08
1.09
1.09
1.02
1.03
1.04
1.05
1.01
0.96
0.93
0.93
0.92
0.93
1.02
0.98
1.02
1.09
1.1
1.08
1.0
1.03
1.03
1.02
1.0
1.02
1.05
1.04
1.01
1.03
1.09
1.11
1.05
1.06
1.09
1.08
1.04
1.05
1.07
1.06
1.06
1.01
1.1
1.1
1.06
1.1
1.11
1.03
1.03
1.08
1.09
1.04
1.13
1.14
0.99
0.97
0.97
0.93
0.91
0.91
0.94
0.91
0.88
0.89
0.88
0.87
0.86
0.85
0.85
0.85
0.86
0.87
0.87
0.92
0.95
0.98
0.98
1.02
1.0
1.0
1.0
0.97
1.0
1.02
1.01
1.0
1.01
0.99
1.01
1.01
0.98
0.99
1.01
1.01
1.0
0.99
1.04
1.03
1.02
0.99
1.03
1.04
1.01
1.01
1.03
0.97
0.96
0.92
0.91
0.91
0.88
0.88
0.91
0.9
0.91
0.93
0.98
0.98
0.96
0.98
1.0
0.98
0.94
0.97
0.98
1.01
0.96
0.99
1.02
1.04
1.07
1.07
1.02
1.04
1.05
1.01
1.02
1.04
1.02
1.02
1.04
1.02
1.01
1.01
1.0
1.0
1.03
1.0
1.02
1.09
1.06
1.01
1.04
1.05
1.01
1.04
0.98
0.98
1.05
1.06
0.95
0.94
0.94
0.9
0.91
0.92
0.88
0.88
0.88
0.89
0.88
0.88
0.92
0.96
0.94
0.91
0.95
0.98
0.97
0.93
0.94
0.98
1.0
1.0
1.02
1.05
1.03
1.03
1.03
1.02
1.01
1.01
1.03
1.02
1.01
1.01
0.99
1.02
0.98
1.0
1.01
0.98
0.98
1.0
1.0
0.99
0.99
1.05
1.02
1.03
1.07
1.05
1.04
1.08
1.08
1.0
1.03
1.07
0.98
1.0
1.03
0.97
0.96
1.0
0.95
0.94
1.0
0.99
0.95
0.98
0.98
0.96
0.93
0.96
1.01
0.98
1.01
1.03
1.02
0.95
0.97
0.94
0.99
0.94
0.96
0.97
0.98
0.96
0.98
0.97
0.95
0.92
0.94
0.95
0.91
0.9
0.88
0.86
0.85
0.84
0.85
0.84
0.84
0.84
0.84
0.83
0.85
0.88
0.89
0.91
0.85
0.86
0.84
0.8
0.82
0.82
0.84
0.9
0.96
0.96
1.0
1.1
1.09
1.11
1.02
0.97
1.0
1.0
1.0
0.98
0.94
0.95
0.97
1.02
0.99
0.99
1.01
0.99
0.95
0.97
0.98
1.0
0.95
0.93
0.96
0.95
0.92
0.94
0.99
0.93
0.96
0.97
1.01
0.94
0.95
1.0
1.02
0.98
0.95
0.97
0.99
1.0
0.98
0.97
0.98
1.0
1.01
1.03
0.97
1.0
0.97
0.97
1.02
1.01
0.97
0.99
1.02
1.0
0.99
0.98
1.03
1.0
1.0
1.07
1.05
1.01
1.02
1.05
1.01
0.98
1.01
1.04
0.97
0.92
0.93
0.95
0.9
0.9
0.91
0.93
0.87
0.88
0.88
0.88
0.86
0.86
0.88
0.9
0.91
0.9
0.91
0.93
0.97
0.97
0.97
1.0
0.99
1.01
1.01
1.01
1.0
0.99
0.98
0.97
0.98
0.97
0.97
0.96
0.96
0.99
1.01
0.98
0.97
0.97
1.0
1.02
0.96
0.96
0.94
0.99
0.97
0.94
0.97
1.01
0.95
0.94
0.96
0.99
0.94
0.95
0.99
0.98
0.93
0.94
0.97
0.96
0.97
0.97
0.98
1.02
0.98
0.98
0.97
0.98
0.98
0.95
0.97
1.0
0.99
0.99
0.97
0.96
0.99
1.02
0.96
0.96
1.0
0.93
0.92
0.96
0.98
0.93
0.94
0.98
0.97
0.94
0.98
1.02
1.01
0.98
1.01
1.01
1.01
1.0
1.03
1.02
1.04
1.01
1.02
1.0
0.99
0.98
0.98
0.99
0.96
0.95
0.98
1.01
1.04
1.01
0.98
1.0
1.01
1.02
1.05
1.0
1.01
1.05
1.06
1.02
0.99
1.04
1.0
0.98
0.98
1.04
1.03
1.0
1.0
1.0
0.96
0.92
0.93
0.93
0.9
0.93
0.93
0.91
0.93
0.96
0.91
0.9
0.94
0.97
0.95
0.94
0.99
1.0
1.02
0.97
0.94
0.95
1.04
1.07
1.05
1.13
1.08
1.08
1.08
1.07
1.06
1.06
1.06
1.03
1.02
1.06
1.05
1.01
1.01
1.05
1.11
1.06
1.04
1.07
1.07
1.03
1.01
0.96
1.05
1.0
0.95
1.0
1.05
0.96
0.99
1.03
1.03
1.0
1.03
1.03
1.01
0.96
0.97
1.0
0.99
0.96
0.98
0.9
0.95
0.98
0.97
0.98
1.03
1.0
0.96
1.02
1.03
0.98
1.02
1.02
0.98
0.99
1.08
1.06
1.03
1.01
1.05
1.04
0.98
0.96
0.98
0.96
0.92
0.93
0.98
0.93
0.94
0.98
0.93
0.91
0.99
1.01
0.95
0.97
1.05
1.05
1.02
1.03
1.08
1.07
1.08
1.07
1.08
1.08
1.06
1.07
1.08
1.05
1.07
1.04
1.07
1.03
1.03
1.08
1.06
1.1
1.07
1.02
1.07
1.09
1.06
1.04
1.01
1.12
1.12
1.02
1.01
1.07
1.06
0.98
0.98
1.04
1.0
0.95
0.93
0.93
0.95
0.92
0.95
0.94
0.9
0.9
0.93
0.9
0.88
0.91
0.96
0.97
0.91
0.88
0.89
0.85
0.85
0.85
0.84
0.82
0.8
0.71
0.72
0.82
0.83
0.76
0.73
0.74
0.73
0.72
0.71
0.72
0.71
0.72
0.73
0.72
0.72
0.73
0.75
0.78
0.89
0.95
1.02
1.17
1.29
1.29
1.22
1.27
1.28
1.25
1.27
1.28
1.14
1.11
1.13
1.11
1.05
0.99
1.12
1.15
1.06
1.03
1.08
1.15
1.06
1.01
1.01
1.07
1.09
1.01
1.01
1.03
1.07
1.01
0.99
1.08
1.06
1.03
1.07
1.05
1.06
1.03
1.03
1.05
1.04
1.05
1.0
1.02
1.06
1.05
1.0
0.97
1.02
1.1
1.11
1.02
0.98
1.05
1.09
1.0
1.01
1.1
1.07
1.02
1.0
1.09
1.06
1.08
1.04
1.04
1.09
1.09
1.07
1.1
1.06
1.02
1.03
1.08
1.07
1.03
1.0
1.09
1.1
1.05
1.0
0.99
1.05
1.06
1.0
0.97
1.01
1.02
1.01
0.98
1.06
1.07
1.03
0.99
0.99
1.05
1.02
0.99
0.99
1.08
1.08
1.05
1.0
1.02
1.06
1.04
1.02
1.0
1.02
1.06
1.04
1.02
1.05
1.09
1.07
1.03
1.02
1.03
1.05
1.02
1.02
1.0
1.08
1.07
1.03
0.99
0.98
1.05
1.0
0.96
0.97
1.06
1.06
1.0
0.98
1.06
1.04
0.98
0.97
1.02
1.05
1.03
1.01
1.17
1.12
1.07
1.02
1.05
1.07
1.04
1.02
0.99
1.05
1.04
1.03
1.01
1.0
1.0
1.04
1.03
1.01
1.0
1.05
1.06
1.0
1.01
1.03
1.07
1.03
1.0
0.99
1.07
1.09
1.01
1.03
1.04
1.08
1.02
1.02
1.0
1.08
1.09
1.0
1.01
1.05
1.06
1.05
1.02
1.06
1.1
1.06
1.03
1.01
1.1
1.05
1.01
0.98
1.03
1.06
1.0
1.0
0.99
1.05
1.06
0.99
1.01
1.07
1.11
1.06
1.03
1.02
1.04
1.05
1.03
1.01
1.01
1.04
1.03
0.98
0.98
1.07
1.08
1.03
1.03
1.0
1.06
1.02
1.0
1.02
1.06
1.02
1.02
1.0
1.08
1.04
1.02
1.03
1.07
1.05
1.01
0.99
1.06
1.05
1.02
1.01
1.12
1.13
1.04
1.04
1.13
1.1
1.07
1.04
1.05
1.07
1.05
1.02
0.98
1.05
1.06
1.01
1.01
1.04
1.11
1.01
1.03
1.06
1.1
1.05
1.01
0.99
1.02
1.0
0.99
1.03
1.1
1.04
1.01
1.1
1.1
1.06
1.0
0.99
1.03
1.04
1.01
1.01
1.09
1.1
1.06
1.05
1.01
1.04
1.06
1.07
1.04
1.03
1.07
1.09
1.05
1.01
1.02
1.07
1.07
1.06
1.02
1.03
1.04
1.03
0.99
0.99
1.06
1.02
0.99
0.99
0.99
1.01
1.03
0.99
1.01
1.01
1.0
0.99
0.99
1.02
1.05
0.97
0.99
1.02
1.04
1.03
1.0
1.04
1.05
1.07
1.0
1.01
1.06
1.06
1.02
1.01
1.02
0.94
0.99
0.97
0.99
1.02
1.0
1.01
1.05
1.02
0.99
1.02
1.03
0.99
0.98
1.02
1.04
1.02
0.98
1.02
0.99
0.98
1.0
1.04
1.0
0.98
0.99
0.99
0.96
0.95
0.97
1.0
0.98
0.95
1.0
1.03
0.99
0.98
1.0
1.01
0.98
0.97
1.0
1.0
1.0
0.99
0.99
0.99
1.01
0.98
0.94
0.98
0.97
0.96
0.97
0.99
1.02
0.99
0.99
1.04
1.02
1.02
1.01
1.04
1.03
1.01
1.01
1.13
1.08
1.01
0.97
1.02
0.94
0.92
0.96
0.95
0.93
0.94
0.94
0.92
0.92
1.05
1.08
1.01
1.02
1.09
1.09
1.07
1.03
1.03
1.08
1.07
1.08
1.04
1.06
1.08
1.06
1.05
1.02
1.01
1.03
1.05
1.06
1.02
1.0
1.04
1.04
0.99
1.03
1.05
1.07
1.06
1.09
1.07
1.03
1.01
1.07
1.08
1.0
0.99
1.03
1.05
0.99
1.02
1.12
1.07
1.0
1.02
1.03
1.04
0.96
0.99
1.04
1.02
1.01
1.08
1.1
1.08
1.05
1.1
1.1
1.13
1.08
1.04
1.04
1.06
1.04
1.06
1.02
1.07
1.08
1.07
1.06
1.03
1.04
1.09
1.07
1.05
1.0
1.06
1.07
1.03
1.0
1.03
1.08
1.08
1.05
1.03
1.09
1.07
1.04
1.05
1.04
1.01
1.02
1.06
1.02
1.04
1.07
1.08
1.04
1.09
1.15
1.05
0.98
0.97
1.01
1.02
0.96
0.97
1.0
0.94
0.97
1.03
1.02
0.96
0.99
1.04
1.02
0.96
0.96
1.01
1.02
1.0
0.98
1.01
1.04
1.05
1.04
0.99
1.03
1.02
1.04
1.0
1.0
1.02
1.04
1.1
1.02
1.02
1.09
1.07
0.99
0.97
1.01
1.06
1.09
1.03
1.04
1.13
1.06
1.01
1.01
1.06
1.05
1.03
1.02
1.06
1.06
1.03
1.0
1.04
1.01
1.01
1.04
1.05
1.0
1.02
1.03
1.04
1.0
0.96
0.98
1.02
1.01
0.96
1.04
1.12
1.0
1.0
1.12
1.06
1.01
0.99
1.04
1.03
0.98
0.97
1.02
1.04
1.03
1.02
1.05
1.05
1.08
1.06
1.02
1.06
1.04
1.04
1.03
1.07
1.03
1.02
1.06
1.05
1.03
1.06
1.05
1.02
0.97
1.04
1.11
1.12
1.04
1.13
1.08
1.0
1.04
1.05
0.99
0.96
1.02
1.04
0.98
0.96
1.01
1.02
1.03
1.01
1.07
1.1
1.09
1.03
1.03
1.07
1.03
1.0
1.0
1.02
0.99
0.99
0.96
0.98
0.99
0.99
0.99
1.0
1.0
1.08
1.02
1.11
1.14
1.07
1.04
0.98
1.08
1.02
0.97
0.98
1.01
0.97
0.99
1.03
1.0
0.96
1.05
1.05
0.98
0.95
1.0
0.99
0.95
0.95
1.0
1.03
1.02
0.99
1.03
1.04
0.99
0.97
0.96
0.96
0.94
0.94
0.94
0.95
0.98
0.99
0.98
0.97
1.01
0.99
0.97
1.0
1.04
1.0
1.0
1.05
1.04
1.0
1.05
1.05
1.02
1.01
0.99
0.95
0.92
0.94
0.98
0.92
0.91
1.01
0.99
0.92
0.96
0.97
0.96
0.93
0.98
0.99
0.96
0.96
1.01
1.01
0.99
0.98
0.98
1.01
1.0
1.01
0.95
1.01
1.01
1.02
1.0
0.98
0.98
1.01
0.99
0.97
0.99
1.03
0.99
0.97
1.0
0.99
0.97
0.99
1.03
1.01
0.98
1.03
1.07
1.03
0.96
0.99
0.98
0.94
0.96
1.02
0.94
0.95
1.04
0.97
0.97
1.03
1.02
0.99
0.98
1.02
1.03
1.01
1.01
1.04
1.04
1.03
1.02
1.07
1.06
1.08
1.03
1.08
1.07
1.06
1.03
1.03
1.06
1.05
1.02
1.02
1.03
1.06
1.05
1.04
1.06
1.1
1.09
1.03
1.0
1.05
1.03
1.01
1.03
1.04
0.99
0.99
1.0
0.97
0.95
1.05
0.99
0.98
1.09
1.02
0.98
1.03
1.05
0.98
0.97
1.01
0.99
1.0
0.97
0.98
0.98
1.01
0.98
0.99
1.03
1.03
0.99
1.01
1.0
0.98
0.97
0.94
0.96
0.94
0.95
0.94
0.97
1.0
1.01
1.01
1.08
1.12
1.07
0.96
1.04
1.06
1.01
1.02
1.12
1.12
1.01
1.04
1.07
1.05
0.99
1.03
1.04
1.04
1.02
1.05
1.06
1.06
1.03
1.02
1.09
1.06
1.01
1.02
1.01
1.01
0.97
0.96
1.02
1.05
1.01
1.02
1.08
1.07
1.04
1.02
1.09
1.07
1.01
0.97
1.02
1.06
0.99
0.98
1.08
1.03
0.98
1.01
1.03
0.95
0.96
0.98
0.97
0.95
0.98
0.99
0.97
0.99
1.03
1.04
0.97
0.99
1.0
1.0
0.98
1.02
1.0
0.98
1.0
1.05
1.01
1.0
1.02
1.03
1.02
1.01
1.03
1.08
1.02
1.0
1.04
1.06
1.03
1.03
1.04
1.02
1.0
1.02
1.0
0.97
1.01
1.01
0.98
0.99
1.02
1.02
1.0
1.02
1.02
1.0
0.98
1.03
0.97
0.97
1.01
0.98
0.97
1.0
1.02
0.97
0.98
1.0
0.98
1.02
1.02
0.97
1.01
1.03
0.96
0.96
1.0
1.0
0.96
0.97
0.98
0.98
0.95
0.99
0.96
0.92
0.96
0.94
0.92
0.94
0.94
0.92
0.93
0.92
0.91
0.92
0.92
0.88
0.88
0.89
0.9
0.9
0.92
0.92
0.93
0.95
0.92
0.92
0.91
0.92
0.93
0.94
0.96
0.94
0.92
0.92
0.9
0.91
0.89
0.88
0.9
0.88
0.88
0.9
0.87
0.86
0.89
0.9
0.89
0.88
0.88
0.88
0.89
0.91
0.93
0.95
0.96
1.01
1.0
0.97
0.93
0.9
0.9
0.87
0.93
0.97
0.96
0.99
0.96
0.96
0.94
0.94
0.93
0.92
0.89
0.91
0.91
0.92
0.94
0.94
0.95
0.95
0.95
1.01
1.01
1.01
1.06
1.08
1.06
1.04
1.08
1.08
1.03
1.05
1.04
1.0
1.0
1.03
1.04
1.03
1.01
0.97
0.94
0.92
0.94
0.95
0.97
1.0
1.0
1.01
1.04
1.05
1.04
1.02
1.02
0.98
0.98
0.95
0.92
0.91
0.9
0.9
0.88
0.89
0.83
0.83
0.86
0.82
0.83
0.81
0.85
0.8
0.8
0.81
0.8
0.85
0.83
0.88
0.93
0.95
0.96
0.95
0.97
0.98
0.98
0.94
0.93
0.93
0.91
0.94
0.97
0.95
0.93
0.94
0.97
0.96
0.94
0.93
0.97
1.04
1.09
1.08
1.04
0.99
0.95
0.97
0.99
1.02
1.07
1.17
1.1
1.04
1.09
1.09
1.07
1.06
1.12
1.05
0.98
0.95
0.89
0.89
0.91
0.93
0.92
0.97
0.97
0.92
0.92
0.9
0.88
0.86
0.9
0.91
0.94
0.93
0.98
1.04
1.07
1.04
1.01
1.03
1.02
1.02
0.98
0.99
1.01
1.1
1.08
1.02
1.03
1.04
1.07
1.03
1.07
1.09
1.06
1.0
1.01
1.04
1.03
1.01
1.05
1.1
1.12
1.08
1.1
1.17
1.14
1.11
1.09
1.09
1.03
1.0
1.02
1.0
1.08
1.15
1.11
1.07
1.07
1.08
1.05
1.04
1.01
1.0
0.93
0.91
0.87
0.89
0.88
0.88
0.88
0.9
0.94
0.91
0.93
0.99
1.02
0.94
0.92
0.94
0.93
0.97
0.96
0.95
0.97
1.05
1.11
1.09
1.05
1.04
1.07
1.07
1.07
1.04
1.07
1.08
1.06
1.03
1.03
1.06
1.05
1.06
1.09
1.08
1.07
1.03
1.04
1.06
1.08
1.08
1.06
1.07
1.1
1.04
1.03
1.04
1.06
1.04
0.98
1.0
1.07
1.08
0.99
1.01
0.99
0.95
0.97
0.97
0.93
1.0
1.06
1.07
0.98
1.02
1.09
1.13
1.03
1.02
1.09
1.16
1.15
1.08
1.05
1.08
1.12
1.12
1.07
1.08
1.09
1.09
1.03
1.08
1.06
1.04
1.03
1.04
1.0
0.97
0.97
1.0
1.06
1.06
1.03
1.01
1.07
1.16
1.12
1.05
1.04
1.04
1.07
1.03
1.1
1.18
1.1
1.04
1.09
1.09
1.02
0.99
1.02
1.06
1.02
1.01
1.12
1.22
1.23
1.09
1.09
1.09
1.05
1.0
0.98
1.03
1.08
1.06
1.01
1.0
1.02
1.07
1.06
1.05
1.08
1.08
1.04
1.01
1.02
1.02
1.0
0.96
1.04
1.18
1.11
1.08
1.09
1.06
1.06
1.29
1.29
1.05
1.02
1.06
0.99
0.94
0.96
1.06
1.03
0.99
1.03
1.07
1.05
1.01
0.98
1.03
1.0
1.0
0.95
0.96
0.99
0.97
1.0
0.96
0.96
0.98
0.99
0.99
0.97
0.96
1.02
1.02
1.0
1.05
0.99
0.99
1.02
1.04
1.0
0.98
1.04
1.05
0.99
0.99
1.02
1.02
0.97
0.95
1.0
1.0
0.98
0.95
1.0
1.03
0.98
0.97
1.03
1.05
1.03
1.01
1.02
1.01
0.98
1.01
1.04
1.07
1.01
1.02
1.04
1.03
1.02
0.98
1.0
1.03
1.03
1.01
1.01
1.07
1.07
1.03
1.03
1.08
1.09
1.05
1.01
1.05
1.02
1.02
1.04
1.13
1.08
1.06
1.02
1.09
1.05
1.03
1.03
1.07
1.03
0.98
1.0
1.12
1.05
1.0
1.13
1.14
0.99
1.03
1.03
0.99
0.95
0.96
0.97
0.97
0.94
0.93
0.97
1.02
1.02
0.96
0.98
1.01
1.03
1.01
0.98
0.98
1.03
1.04
1.02
0.99
1.02
1.02
1.02
0.99
0.98
1.02
1.06
1.02
1.04
1.08
1.07
1.02
1.08
1.09
1.04
1.03
1.09
1.08
1.03
1.01
1.07
0.99
0.97
1.04
1.01
0.97
0.99
0.95
0.91
0.91
0.85
0.88
0.88
0.89
0.94
1.0
0.97
0.96
1.01
1.11
1.12
1.03
1.02
1.09
1.17
1.19
1.07
1.06
1.05
1.06
1.07
1.07
1.08
1.08
1.04
1.06
1.07
1.06
1.03
1.02
1.09
1.06
1.02
0.99
1.07
1.06
1.01
0.99
1.04
1.04
0.97
0.95
1.0
0.98
0.95
0.95
1.0
1.01
0.94
0.96
1.02
0.99
0.97
0.96
0.98
1.03
0.97
0.97
0.99
1.0
0.97
0.98
1.06
1.05
0.96
0.99
1.05
1.07
1.01
0.99
1.04
1.04
0.99
0.99
1.02
1.05
1.0
0.99
1.03
1.01
1.01
0.98
1.07
1.1
1.11
1.0
1.01
1.04
1.05
1.02
1.02
1.12
1.06
1.01
1.0
1.04
1.04
1.04
0.98
1.02
1.01
0.97
1.01
1.01
1.03
0.98
1.02
1.09
1.09
1.01
1.06
1.08
1.03
1.02
1.02
1.03
0.99
1.0
1.01
1.05
1.04
1.0
1.01
1.03
1.02
0.98
0.96
0.98
1.04
0.99
1.06
1.08
1.01
0.99
1.05
1.03
0.98
0.94
0.97
0.97
0.93
0.93
0.96
0.97
0.98
0.96
0.99
1.04
1.05
1.01
0.99
1.04
1.04
1.01
0.99
0.99
1.03
1.03
0.98
1.0
1.04
1.05
1.01
0.99
1.03
0.99
1.0
1.05
1.07
0.99
0.99
1.03
1.03
0.98
0.97
0.95
0.93
0.9
0.91
0.94
0.92
0.91
1.02
1.02
0.95
1.02
1.09
1.08
0.97
1.0
1.04
1.04
1.01
0.98
1.02
1.02
1.04
1.0
1.02
1.04
1.04
1.0
1.04
1.02
1.05
1.05
1.01
1.05
1.05
1.03
1.02
1.01
1.12
1.13
1.07
1.11
1.11
1.07
1.03
1.1
1.11
1.02
1.07
1.04
1.04
1.09
1.11
1.04
1.03
1.09
1.1
1.0
0.95
1.01
0.92
0.91
0.94
0.89
0.89
0.85
0.84
0.81
0.8
0.79
0.77
0.76
0.76
0.75
0.74
0.73
0.72
0.72
0.71
0.71
0.71
0.7
0.7
0.71
0.72
0.7
0.7
0.71
0.7
0.7
0.69
0.7
0.71
0.74
0.78
0.82
0.82
0.85
0.88
0.91
0.92
0.97
0.98
0.97
1.01
1.01
1.02
1.04
0.99
1.0
1.01
1.0
0.98
0.99
1.0
1.0
0.99
0.97
1.02
1.03
1.01
0.97
0.97
1.01
1.01
1.01
1.08
1.14
1.14
1.05
1.01
0.99
0.98
0.96
0.95
0.95
0.91
0.91
0.91
0.89
0.86
0.88
0.86
0.87
0.88
0.88
0.88
0.88
0.91
0.92
0.88
0.87
0.83
0.86
0.85
0.87
0.87
0.88
0.87
0.86
0.87
0.81
0.83
0.85
0.81
0.79
0.73
0.73
0.83
0.84
0.77
0.74
0.75
1.02
1.02
0.93
0.74
0.74
0.72
0.73
0.75
0.7
0.7
0.82
0.82
0.79
0.8
0.8
0.81
0.84
0.85
0.74
0.74
0.78
0.77
0.75
0.74
0.76
0.75
0.78
0.83
0.85
0.83
0.84
0.83
0.8
0.77
0.78
0.76
0.76
0.76
0.76
0.78
0.81
0.83
0.84
0.87
0.94
1.0
0.99
0.95
0.97
0.95
0.91
0.91
0.88
0.91
0.88
0.87
0.91
0.88
0.87
0.87
0.88
0.9
0.89
0.92
0.96
0.99
1.0
1.02
0.99
1.03
1.03
0.98
0.94
0.95
0.95
0.93
0.91
0.95
0.95
0.97
0.93
0.95
0.98
0.96
0.94
0.97
0.95
0.95
0.93
0.92
0.94
0.95
0.95
0.92
0.93
0.95
0.93
0.91
0.92
0.88
0.85
0.82
0.79
0.79
0.77
0.76
0.76
0.79
0.78
0.8
0.79
0.79
0.77
0.76
0.74
0.76
0.74
0.76
0.8
0.81
0.79
0.79
0.77
0.76
0.78
0.8
0.83
0.9
0.87
0.9
0.95
0.97
0.94
0.9
0.9
0.91
0.91
0.88
0.85
0.83
0.82
0.81
0.92
0.88
0.93
0.9
0.92
0.96
0.96
0.91
0.89
0.91
0.95
0.95
0.88
0.9
0.94
0.96
0.99
0.97
0.91
0.9
0.89
0.84
0.89
0.92
0.93
0.93
0.92
0.93
0.95
0.99
1.03
1.01
0.95
0.88
0.86
0.82
0.81
0.79
0.79
0.8
0.8
0.79
0.79
0.84
0.85
0.83
0.83
0.86
0.87
0.9
0.84
0.81
0.81
0.81
0.82
0.83
0.89
0.98
0.91
0.9
0.83
0.86
0.93
0.84
0.79
0.86
0.81
0.79
0.77
0.76
0.76
0.75
0.73
0.72
0.7
0.71
0.72
0.75
0.82
0.98
0.94
0.94
0.95
0.91
0.9
0.87
0.86
0.83
0.89
0.91
0.86
0.85
0.85
0.83
0.82
0.84
0.88
0.94
0.92
0.88
0.89
0.89
0.86
0.84
0.83
0.83
0.83
0.86
0.84
0.84
0.84
0.82
0.81
0.8
0.81
0.81
0.83
0.83
0.87
0.87
0.77
0.8
0.81
0.82
0.82
0.82
0.85
0.88
0.89
0.9
0.85
0.84
0.82
0.82
0.82
0.83
0.84
0.85
0.83
0.86
0.84
0.86
0.86
0.86
0.86
0.85
0.84
0.83
0.82
0.83
0.84
0.84
0.84
0.84
0.92
0.93
0.87
0.86
0.84
0.81
0.81
0.83
0.82
0.82
0.84
0.83
0.82
0.81
0.84
0.87
0.9
0.91
0.87
0.86
0.85
0.82
0.8
0.81
0.85
0.93
0.94
0.89
0.9
0.86
0.85
0.84
0.84
0.79
0.8
0.8
0.78
0.79
0.79
0.78
0.76
0.75
0.76
0.75
0.73
0.73
0.72
0.71
0.71
0.71
0.7
0.7
0.73
0.75
0.71
0.85
0.85
0.89
0.8
0.82
0.81
0.79
0.76
0.76
0.76
0.77
0.78
0.79
0.83
0.88
0.89
0.93
0.83
0.84
0.82
0.82
0.81
0.82
0.88
0.83
0.82
0.76
0.78
0.78
0.77
0.78
0.76
0.75
0.72
0.72
0.72
0.74
0.83
0.89
0.85
0.84
0.78
0.8
0.84
0.81
0.76
0.77
0.75
0.75
0.77
0.79
0.87
0.86
0.87
0.88
0.88
0.88
0.82
0.83
0.77
0.79
0.78
0.79
0.8
0.83
0.82
0.84
0.8
0.81
0.81
0.8
0.81
0.83
0.86
0.97
0.99
0.97
0.92
0.88
0.87
0.87
0.85
0.85
0.78
0.79
0.75
0.75
0.73
0.75
0.73
0.72
0.72
0.71
0.72
0.7
0.71
0.71
0.71
0.72
0.73
0.74
0.75
0.76
0.76
0.76
0.73
0.76
0.74
0.74
0.74
0.75
0.76
0.76
0.75
0.79
0.78
0.78
0.8
0.81
0.79
0.79
0.81
0.8
0.79
0.81
0.82
0.81
0.82
0.81
0.8
0.81
0.81
0.81
0.81
0.8
0.8
0.8
0.8
0.8
0.8
0.81
0.8
0.8
0.79
0.79
0.79
0.8
0.79
0.81
0.79
0.78
0.78
0.78
0.76
0.76
0.75
0.74
0.75
0.74
0.75
0.76
0.76
0.76
0.75
0.76
0.76
0.76
0.78
0.77
0.76
0.75
0.74
0.73
0.73
0.72
0.74
0.76
0.8
0.8
0.78
0.77
0.78
0.76
0.75
0.74
0.73
0.73
0.72
0.72
0.71
0.72
0.71
0.73
0.72
0.73
0.74
0.74
0.75
0.75
0.76
0.77
0.74
0.73
0.72
0.71
0.71
0.7
0.71
0.71
0.72
0.74
0.74
0.74
0.75
0.75
0.74
0.74
0.74
0.73
0.72
0.72
0.73
0.73
0.73
0.74
0.74
0.75
0.73
0.74
0.74
0.75
0.77
0.77
0.77
0.76
0.74
0.73
0.71
0.71
0.69
0.7
0.67
0.68
0.68
0.68
0.66
0.67
0.66
0.67
0.66
0.68
0.67
0.67
0.67
0.68
0.7
0.7
0.72
0.74
0.78
0.81
0.83
0.82
0.81
0.79
0.78
0.78
0.78
0.8
0.79
0.78
0.79
0.78
0.76
0.78
0.77
