sample,time_sec
116,1.16
203,2.03
289,2.89
375,3.75
463,4.63
548,5.48
635,6.35
720,7.2
802,8.02
881,8.81
955,9.55
1028,10.28
1100,11.0
1195,11.95
1286,12.86
1385,13.85
1469,14.69
1554,15.54
1646,16.46
1738,17.38
1819,18.19
1896,18.96
1972,19.72
2049,20.49
2127,21.27
2212,22.12
2302,23.02
2392,23.92
2484,24.84
2573,25.73
2660,26.6
2743,27.43
2823,28.23
2904,29.04
2983,29.83
3063,30.63
3143,31.43
3226,32.26
3311,33.11
3392,33.92
3471,34.71
3549,35.49
3626,36.26
3707,37.07
3784,37.84
3860,38.6
3936,39.36
4014,40.14
4091,40.91
4168,41.68
4252,42.52
4336,43.36
4419,44.19
4500,45.0
4579,45.79
4658,46.58
4740,47.4
4823,48.23
4907,49.07
4992,49.92
5084,50.84
5179,51.79
5272,52.72
5364,53.64
5453,54.53
5539,55.39
5625,56.25
5712,57.12
5801,58.01
5888,58.88
5972,59.72
6051,60.51
6129,61.29
6213,62.13
6303,63.03
6394,63.94
6484,64.84
6576,65.76
6670,66.7
6765,67.65
6858,68.58
6938,69.38
7015,70.15
7094,70.94
7171,71.71
7248,72.48
7343,73.43
7432,74.32
7516,75.16
7594,75.94
7669,76.69
7745,77.45
7824,78.24
7904,79.04
7987,79.87
8069,80.69
8157,81.57
8243,82.43
8329,83.29
8411,84.11
8494,84.94
8577,85.77
8662,86.62
8748,87.48
8834,88.34
8919,89.19
9001,90.01
9082,90.82
9162,91.62
9243,92.43
9321,93.21
9398,93.98
9476,94.76
9554,95.54
9636,96.36
9718,97.18
9798,97.98
9883,98.83
9974,99.74
10064,100.64
10155,101.55
10252,102.52
10353,103.53
10455,104.55
10543,105.43
10622,106.22
10703,107.03
10780,107.8
10851,108.51
10919,109.19
11002,110.02
11084,110.84
11160,111.6
11235,112.35
11312,113.12
11390,113.9
11471,114.71
11550,115.5
11620,116.2
11694,116.94
11767,117.67
11843,118.43
11919,119.19
12000,120.0
12089,120.89
12173,121.73
12258,122.58
12345,123.45
12431,124.31
12520,125.2
12607,126.07
12694,126.94
12779,127.79
12865,128.65
12951,129.51
13038,130.38
13123,131.23
13207,132.07
13291,132.91
13373,133.73
13454,134.54
13532,135.32
13607,136.07
13680,136.8
13753,137.53
13826,138.26
13903,139.03
13981,139.81
14061,140.61
14141,141.41
14222,142.22
14310,143.1
14401,144.01
14494,144.94
14580,145.8
14663,146.63
14747,147.47
14827,148.27
14906,149.06
14985,149.85
15064,150.64
15145,151.45
15229,152.29
15320,153.2
15416,154.16
15509,155.09
15597,155.97
15684,156.84
15772,157.72
15864,158.64
15955,159.55
16048,160.48
16141,161.41
16233,162.33
16326,163.26
16419,164.19
16512,165.12
16605,166.05
16695,166.95
16784,167.84
16866,168.66
16943,169.43
17018,170.18
17093,170.93
17169,171.69
17250,172.5
17329,173.29
17411,174.11
17504,175.04
17598,175.98
17689,176.89
17775,177.75
17857,178.57
17940,179.4
18024,180.24
18110,181.1
18197,181.97
18282,182.82
18369,183.69
18459,184.59
18547,185.47
18633,186.33
18718,187.18
18802,188.02
18889,188.89
18979,189.79
19068,190.68
19155,191.55
19236,192.36
19316,193.16
19392,193.92
19464,194.64
19535,195.35
19605,196.05
19678,196.78
19759,197.59
19849,198.49
19938,199.38
20020,200.2
20107,201.07
20189,201.89
20266,202.66
20341,203.41
20415,204.15
20491,204.91
20571,205.71
20653,206.53
20738,207.38
20823,208.23
20910,209.1
20998,209.98
21089,210.89
21179,211.79
21268,212.68
21363,213.63
21461,214.61
21555,215.55
21643,216.43
21731,217.31
21816,218.16
21899,218.99
21982,219.82
22062,220.62
22139,221.39
22213,222.13
22288,222.88
22367,223.67
22449,224.49
22531,225.31
22618,226.18
22709,227.09
22803,228.03
22897,228.97
22985,229.85
23068,230.68
23149,231.49
23226,232.26
23301,233.01
23375,233.75
23446,234.46
23519,235.19
23597,235.97
23682,236.82
23770,237.7
23861,238.61
23952,239.52
24043,240.43
24134,241.34
24226,242.26
24315,243.15
24399,243.99
24484,244.84
24579,245.79
24673,246.73
24763,247.63
24849,248.49
24931,249.31
25011,250.11
25094,250.94
25177,251.77
25258,252.58
25340,253.4
25419,254.19
25500,255.0
25590,255.9
25682,256.82
25775,257.75
25866,258.66
25954,259.54
26043,260.43
26133,261.33
26222,262.22
26310,263.1
26397,263.97
26486,264.86
26575,265.75
26665,266.65
26755,267.55
26842,268.42
26929,269.29
27016,270.16
27106,271.06
27197,271.97
27288,272.88
27373,273.73
27460,274.6
27548,275.48
27629,276.29
27711,277.11
27799,277.99
27889,278.89
27971,279.71
28058,280.58
28141,281.41
28223,282.23
28305,283.05
28389,283.89
28473,284.73
28564,285.64
28656,286.56
28748,287.48
28838,288.38
28925,289.25
29014,290.14
29103,291.03
29192,291.92
29278,292.78
29362,293.62
29449,294.49
29538,295.38
29624,296.24
29712,297.12
29800,298.0
29887,298.87
29971,299.71
30052,300.52
30132,301.32
30207,302.07
30281,302.81
30356,303.56
30438,304.38
30537,305.37
30639,306.39
30734,307.34
30820,308.2
30901,309.01
30987,309.87
31070,310.7
31151,311.51
31231,312.31
31310,313.1
31395,313.95
31481,314.81
31571,315.71
31666,316.66
31765,317.65
31862,318.62
31957,319.57
32050,320.5
32141,321.41
32228,322.28
32315,323.15
32401,324.01
32487,324.87
32574,325.74
32658,326.58
32742,327.42
32826,328.26
32907,329.07
32985,329.85
33061,330.61
33136,331.36
33213,332.13
33293,332.93
33377,333.77
33456,334.56
33537,335.37
33614,336.14
33688,336.88
33761,337.61
33833,338.33
33905,339.05
33978,339.78
34054,340.54
34133,341.33
34216,342.16
34303,343.03
34391,343.91
34478,344.78
34566,345.66
34656,346.56
34743,347.43
34830,348.3
34915,349.15
34998,349.98
35082,350.82
35167,351.67
35253,352.53
35340,353.4
35428,354.28
35515,355.15
35599,355.99
35680,356.8
35761,357.61
35843,358.43
35921,359.21
36000,360.0
36079,360.79
36156,361.56
36232,362.32
36309,363.09
36384,363.84
36459,364.59
36534,365.34
36608,366.08
36683,366.83
36757,367.57
36832,368.32
36906,369.06
36981,369.81
37057,370.57
37133,371.33
37211,372.11
37288,372.88
37366,373.66
37445,374.45
37521,375.21
37599,375.99
37674,376.74
37749,377.49
37825,378.25
37898,378.98
37972,379.72
38047,380.47
38123,381.23
38197,381.97
38272,382.72
38349,383.49
38424,384.24
38498,384.98
38573,385.73
38646,386.46
38721,387.21
38794,387.94
38867,388.67
38940,389.4
39013,390.13
39087,390.87
39160,391.6
39233,392.33
39306,393.06
39379,393.79
39452,394.52
39523,395.23
39596,395.96
39668,396.68
39740,397.4
39812,398.12
39883,398.83
39954,399.54
40025,400.25
40096,400.96
40166,401.66
40235,402.35
40304,403.04
40373,403.73
40443,404.43
40512,405.12
40582,405.82
40652,406.52
40721,407.21
40792,407.92
40862,408.62
40933,409.33
41003,410.03
41074,410.74
41146,411.46
41217,412.17
41288,412.88
41358,413.58
41428,414.28
41499,414.99
41569,415.69
41639,416.39
41708,417.08
41777,417.77
41848,418.48
41920,419.2
41994,419.94
42069,420.69
42142,421.42
42215,422.15
42289,422.89
42362,423.62
42436,424.36
42510,425.1
42583,425.83
42657,426.57
42731,427.31
42806,428.06
42879,428.79
42951,429.51
43024,430.24
43097,430.97
43169,431.69
43240,432.4
43313,433.13
43388,433.88
43464,434.64
43540,435.4
43615,436.15
43690,436.9
43767,437.67
43844,438.44
43921,439.21
43997,439.97
44072,440.72
44147,441.47
44223,442.23
44301,443.01
44380,443.8
44459,444.59
44537,445.37
44615,446.15
44694,446.94
44775,447.75
44855,448.55
44934,449.34
45013,450.13
45092,450.92
45172,451.72
45253,452.53
45331,453.31
45407,454.07
45481,454.81
45556,455.56
45629,456.29
45700,457.0
45772,457.72
45843,458.43
45914,459.14
45984,459.84
46053,460.53
46123,461.23
46193,461.93
46262,462.62
46331,463.31
46402,464.02
46473,464.73
46544,465.44
46615,466.15
46684,466.84
46752,467.52
46819,468.19
46885,468.85
46950,469.5
47013,470.13
47075,470.75
47137,471.37
47198,471.98
47260,472.6
47322,473.22
47383,473.83
47445,474.45
47507,475.07
47570,475.7
47633,476.33
47696,476.96
47760,477.6
47825,478.25
47888,478.88
47954,479.54
48018,480.18
48081,480.81
48144,481.44
48206,482.06
48268,482.68
48331,483.31
48395,483.95
48458,484.58
48521,485.21
48583,485.83
48646,486.46
48710,487.1
48773,487.73
48837,488.37
48901,489.01
48966,489.66
49030,490.3
49095,490.95
49159,491.59
49225,492.25
49289,492.89
49355,493.55
49419,494.19
49483,494.83
49549,495.49
49617,496.17
49685,496.85
49751,497.51
49818,498.18
49889,498.89
49957,499.57
50024,500.24
50089,500.89
50155,501.55
50224,502.24
50292,502.92
50361,503.61
50429,504.29
50503,505.03
50576,505.76
50650,506.5
50724,507.24
50796,507.96
50870,508.7
50945,509.45
51020,510.2
51095,510.95
51170,511.7
51246,512.46
51321,513.21
51397,513.97
51473,514.73
51551,515.51
51629,516.29
51709,517.09
51788,517.88
51867,518.67
51945,519.45
52024,520.24
52103,521.03
52180,521.8
52255,522.55
52333,523.33
52408,524.08
52483,524.83
52557,525.57
52631,526.31
52707,527.07
52784,527.84
52860,528.6
52937,529.37
53015,530.15
53095,530.95
53175,531.75
53254,532.54
53332,533.32
53410,534.1
53488,534.88
53567,535.67
53645,536.45
53721,537.21
53796,537.96
53873,538.73
53950,539.5
54029,540.29
54106,541.06
54183,541.83
54261,542.61
54340,543.4
54419,544.19
54498,544.98
54576,545.76
54656,546.56
54739,547.39
54820,548.2
54899,548.99
54978,549.78
55060,550.6
55142,551.42
55221,552.21
55300,553.0
55380,553.8
55463,554.63
55546,555.46
55628,556.28
55707,557.07
55788,557.88
55870,558.7
55949,559.49
56024,560.24
56099,560.99
56175,561.75
56248,562.48
56319,563.19
56392,563.92
56464,564.64
56536,565.36
56609,566.09
56683,566.83
56758,567.58
56837,568.37
56916,569.16
56993,569.93
57070,570.7
57150,571.5
57231,572.31
57313,573.13
57394,573.94
57480,574.8
57564,575.64
57646,576.46
57728,577.28
57812,578.12
57896,578.96
57978,579.78
58062,580.62
58148,581.48
58232,582.32
58313,583.13
58398,583.98
58482,584.82
58565,585.65
58648,586.48
58731,587.31
58815,588.15
58896,588.96
58978,589.78
59062,590.62
59145,591.45
59229,592.29
59315,593.15
59402,594.02
59486,594.86
59569,595.69
59654,596.54
59740,597.4
59824,598.24
59907,599.07
59991,599.91
60077,600.77
60160,601.6
60242,602.42
60323,603.23
60407,604.07
60492,604.92
60572,605.72
60653,606.53
60735,607.35
60817,608.17
60894,608.94
60971,609.71
61048,610.48
61127,611.27
61204,612.04
61282,612.82
61362,613.62
61444,614.44
61526,615.26
61609,616.09
61694,616.94
61779,617.79
61862,618.62
61944,619.44
62027,620.27
62112,621.12
62197,621.97
62278,622.78
62359,623.59
62442,624.42
62522,625.22
62601,626.01
62680,626.8
62761,627.61
62844,628.44
62926,629.26
63007,630.07
63091,630.91
63177,631.77
63262,632.62
63345,633.45
63427,634.27
63511,635.11
63596,635.96
63678,636.78
63759,637.59
63841,638.41
63924,639.24
64008,640.08
64090,640.9
64172,641.72
64253,642.53
64332,643.32
64410,644.1
64486,644.86
64562,645.62
64638,646.38
64713,647.13
64786,647.86
64859,648.59
64933,649.33
65009,650.09
65083,650.83
65158,651.58
65234,652.34
65313,653.13
65394,653.94
65477,654.77
65558,655.58
65639,656.39
65722,657.22
65805,658.05
65887,658.87
65970,659.7
66052,660.52
66135,661.35
66222,662.22
66309,663.09
66397,663.97
66482,664.82
66566,665.66
66651,666.51
66732,667.32
66814,668.14
66892,668.92
66970,669.7
67048,670.48
67126,671.26
67205,672.05
67281,672.81
67357,673.57
67435,674.35
67511,675.11
67587,675.87
67665,676.65
67744,677.44
67821,678.21
67898,678.98
67974,679.74
68048,680.48
68120,681.2
68193,681.93
68265,682.65
68335,683.35
68404,684.04
68474,684.74
68543,685.43
68612,686.12
68681,686.81
68751,687.51
68820,688.2
68891,688.91
68961,689.61
69031,690.31
69102,691.02
69174,691.74
69245,692.45
69315,693.15
69386,693.86
69456,694.56
69528,695.28
69603,696.03
69679,696.79
69758,697.58
69836,698.36
69915,699.15
69997,699.97
70080,700.8
70158,701.58
70237,702.37
70318,703.18
70401,704.01
70483,704.83
70565,705.65
70648,706.48
70733,707.33
70814,708.14
70896,708.96
70981,709.81
71067,710.67
71149,711.49
71232,712.32
71318,713.18
71404,714.04
71486,714.86
71567,715.67
71647,716.47
71728,717.28
71810,718.1
71890,718.9
71970,719.7
72050,720.5
72132,721.32
72212,722.12
72291,722.91
72372,723.72
72454,724.54
72535,725.35
72616,726.16
72700,727.0
72786,727.86
72871,728.71
72955,729.55
73042,730.42
73126,731.26
73206,732.06
73285,732.85
73364,733.64
73441,734.41
73521,735.21
73601,736.01
73684,736.84
73763,737.63
73845,738.45
73928,739.28
74010,740.1
74093,740.93
74177,741.77
74260,742.6
74346,743.46
74435,744.35
74523,745.23
74611,746.11
74700,747.0
74790,747.9
74882,748.82
74973,749.73
75065,750.65
75156,751.56
75250,752.5
75344,753.44
75437,754.37
75528,755.28
75620,756.2
75707,757.07
75798,757.98
75889,758.89
75976,759.76
76060,760.6
76143,761.43
76225,762.25
76305,763.05
76386,763.86
76465,764.65
76542,765.42
76619,766.19
76696,766.96
76776,767.76
76858,768.58
76940,769.4
77028,770.28
77121,771.21
77209,772.09
77299,772.99
77393,773.93
77476,774.76
77560,775.6
77649,776.49
77737,777.37
77822,778.22
77906,779.06
77994,779.94
78082,780.82
78171,781.71
78260,782.6
78350,783.5
78438,784.38
78522,785.22
78607,786.07
78697,786.97
78787,787.87
78876,788.76
78966,789.66
79057,790.57
79147,791.47
79239,792.39
79333,793.33
79427,794.27
79520,795.2
79613,796.13
79710,797.1
79807,798.07
79898,798.98
79986,799.86
80075,800.75
80162,801.62
80247,802.47
80335,803.35
80428,804.28
80518,805.18
80602,806.02
80687,806.87
80772,807.72
80859,808.59
80945,809.45
81030,810.3
81117,811.17
81207,812.07
81295,812.95
81387,813.87
81480,814.8
81568,815.68
81652,816.52
81737,817.37
81823,818.23
81912,819.12
82000,820.0
82089,820.89
82180,821.8
82268,822.68
82353,823.53
82440,824.4
82528,825.28
82615,826.15
82701,827.01
82786,827.86
82874,828.74
82962,829.62
83048,830.48
83131,831.31
83215,832.15
83303,833.03
83391,833.91
83476,834.76
83563,835.63
83649,836.49
83740,837.4
83827,838.27
83912,839.12
83999,839.99
84084,840.84
84168,841.68
84253,842.53
84337,843.37
84418,844.18
84500,845.0
84582,845.82
84664,846.64
84750,847.5
84836,848.36
84924,849.24
85010,850.1
85096,850.96
85181,851.81
85263,852.63
85347,853.47
85433,854.33
85518,855.18
85599,855.99
85679,856.79
85760,857.6
85841,858.41
85921,859.21
86003,860.03
86084,860.84
86165,861.65
86246,862.46
86331,863.31
86417,864.17
86498,864.98
86576,865.76
86655,866.55
86733,867.33
86812,868.12
86891,868.91
86965,869.65
87041,870.41
87117,871.17
87192,871.92
87268,872.68
87346,873.46
87428,874.28
87508,875.08
87587,875.87
87666,876.66
87747,877.47
87830,878.3
87910,879.1
87989,879.89
88072,880.72
88159,881.59
88244,882.44
88326,883.26
88407,884.07
88490,884.9
88575,885.75
88659,886.59
88747,887.47
88835,888.35
88921,889.21
89003,890.03
89084,890.84
89166,891.66
89250,892.5
89333,893.33
89416,894.16
89496,894.96
89577,895.77
89662,896.62
89746,897.46
89828,898.28
89907,899.07
89984,899.84
90060,900.6
90135,901.35
90214,902.14
90290,902.9
90366,903.66
90443,904.43
90522,905.22
90598,905.98
90673,906.73
90749,907.49
90827,908.27
90907,909.07
90987,909.87
91066,910.66
91146,911.46
91228,912.28
91313,913.13
91394,913.94
91474,914.74
91556,915.56
91641,916.41
91726,917.26
91808,918.08
91891,918.91
91975,919.75
92059,920.59
92142,921.42
92227,922.27
92314,923.14
92399,923.99
92483,924.83
92566,925.66
92654,926.54
92741,927.41
92826,928.26
92905,929.05
92983,929.83
93061,930.61
93138,931.38
93215,932.15
93292,932.92
93370,933.7
93454,934.54
93536,935.36
93619,936.19
93702,937.02
93787,937.87
93871,938.71
93954,939.54
94040,940.4
94128,941.28
94215,942.15
94300,943.0
94383,943.83
94466,944.66
94551,945.51
94637,946.37
94720,947.2
94802,948.02
94887,948.87
94973,949.73
95056,950.56
95136,951.36
95218,952.18
95300,953.0
95381,953.81
95462,954.62
95546,955.46
95630,956.3
95715,957.15
95801,958.01
95884,958.84
95970,959.7
96058,960.58
96142,961.42
96223,962.23
96300,963.0
96374,963.74
96447,964.47
96519,965.19
96592,965.92
96665,966.65
96738,967.38
96813,968.13
96892,968.92
96974,969.74
97054,970.54
97133,971.33
97212,972.12
97294,972.94
97372,973.72
97447,974.47
97525,975.25
97605,976.05
97684,976.84
97761,977.61
97840,978.4
97920,979.2
98003,980.03
98083,980.83
98164,981.64
98247,982.47
98330,983.3
98413,984.13
98495,984.95
98577,985.77
98662,986.62
98748,987.48
98831,988.31
98913,989.13
98994,989.94
99077,990.77
99161,991.61
99242,992.42
99321,993.21
99404,994.04
99486,994.86
99567,995.67
99650,996.5
99737,997.37
99825,998.25
99911,999.11
99997,999.97
100083,1000.83
100171,1001.71
100256,1002.56
100339,1003.39
100424,1004.24
100503,1005.03
100581,1005.81
100658,1006.58
100736,1007.36
100814,1008.14
100891,1008.91
100971,1009.71
101051,1010.51
101131,1011.31
101209,1012.09
101288,1012.88
101370,1013.7
101453,1014.53
101535,1015.35
101617,1016.17
101701,1017.01
101786,1017.86
101873,1018.73
101958,1019.58
102042,1020.42
102130,1021.3
102219,1022.19
102304,1023.04
102387,1023.87
102471,1024.71
102556,1025.56
102642,1026.42
102724,1027.24
102802,1028.02
102882,1028.82
102964,1029.64
103045,1030.45
103123,1031.23
103198,1031.98
103273,1032.73
103350,1033.5
103429,1034.29
103508,1035.08
103584,1035.84
103662,1036.62
103739,1037.39
103818,1038.18
103900,1039.0
103981,1039.81
104059,1040.59
104137,1041.37
104216,1042.16
104294,1042.94
104372,1043.72
104454,1044.54
104539,1045.39
104625,1046.25
104707,1047.07
104789,1047.89
104870,1048.7
104953,1049.53
105038,1050.38
105124,1051.24
105206,1052.06
105286,1052.86
105367,1053.67
105451,1054.51
105536,1055.36
105621,1056.21
105705,1057.05
105789,1057.89
105877,1058.77
105966,1059.66
106055,1060.55
106139,1061.39
106221,1062.21
106301,1063.01
106383,1063.83
106466,1064.66
106549,1065.49
106630,1066.3
106711,1067.11
106791,1067.91
106871,1068.71
106950,1069.5
107027,1070.27
107103,1071.03
107179,1071.79
107256,1072.56
107336,1073.36
107413,1074.13
107492,1074.92
107570,1075.7
107649,1076.49
107729,1077.29
107810,1078.1
107889,1078.89
107966,1079.66
108043,1080.43
108121,1081.21
108202,1082.02
108284,1082.84
108365,1083.65
108446,1084.46
108523,1085.23
108601,1086.01
108681,1086.81
108761,1087.61
108840,1088.4
108919,1089.19
108998,1089.98
109074,1090.74
109149,1091.49
109223,1092.23
109295,1092.95
109367,1093.67
109437,1094.37
109506,1095.06
109575,1095.75
109643,1096.43
109710,1097.1
109778,1097.78
109845,1098.45
109913,1099.13
109981,1099.81
110049,1100.49
110118,1101.18
110187,1101.87
110257,1102.57
110327,1103.27
110397,1103.97
110467,1104.67
110536,1105.36
110605,1106.05
110674,1106.74
110743,1107.43
110812,1108.12
110880,1108.8
110945,1109.45
111011,1110.11
111079,1110.79
111148,1111.48
111220,1112.2
111288,1112.88
111361,1113.61
111434,1114.34
111509,1115.09
111587,1115.87
111665,1116.65
111742,1117.42
111824,1118.24
111904,1119.04
111985,1119.85
112065,1120.65
112142,1121.42
112221,1122.21
112300,1123.0
112379,1123.79
112456,1124.56
112533,1125.33
112611,1126.11
112688,1126.88
112765,1127.65
112840,1128.4
112916,1129.16
112991,1129.91
113065,1130.65
113138,1131.38
113210,1132.1
113283,1132.83
113356,1133.56
113427,1134.27
113498,1134.98
113571,1135.71
113645,1136.45
113717,1137.17
113790,1137.9
113864,1138.64
113938,1139.38
114011,1140.11
114083,1140.83
114153,1141.53
114223,1142.23
114292,1142.92
114363,1143.63
114434,1144.34
114505,1145.05
114577,1145.77
114652,1146.52
114729,1147.29
114805,1148.05
114883,1148.83
114962,1149.62
115043,1150.43
115126,1151.26
115205,1152.05
115284,1152.84
115364,1153.64
115446,1154.46
115524,1155.24
115603,1156.03
115684,1156.84
115766,1157.66
115848,1158.48
115928,1159.28
116007,1160.07
116089,1160.89
116172,1161.72
116255,1162.55
116336,1163.36
116416,1164.16
116495,1164.95
116575,1165.75
116655,1166.55
116737,1167.37
116820,1168.2
116901,1169.01
116981,1169.81
117061,1170.61
117142,1171.42
117224,1172.24
117307,1173.07
117388,1173.88
117467,1174.67
117546,1175.46
117628,1176.28
117711,1177.11
117794,1177.94
117875,1178.75
117956,1179.56
118040,1180.4
118125,1181.25
118209,1182.09
118290,1182.9
118372,1183.72
118453,1184.53
118535,1185.35
118622,1186.22
118708,1187.08
118793,1187.93
118877,1188.77
118959,1189.59
119041,1190.41
119124,1191.24
119207,1192.07
119289,1192.89
119370,1193.7
119456,1194.56
119546,1195.46
119632,1196.32
119716,1197.16
119797,1197.97
119881,1198.81
119965,1199.65
120044,1200.44
120132,1201.32
120220,1202.2
120309,1203.09
120399,1203.99
120481,1204.81
120562,1205.62
120647,1206.47
120731,1207.31
120814,1208.14
120895,1208.95
120976,1209.76
121058,1210.58
121143,1211.43
121231,1212.31
121319,1213.19
121405,1214.05
121492,1214.92
121577,1215.77
121663,1216.63
121747,1217.47
121832,1218.32
121918,1219.18
122001,1220.01
122087,1220.87
122174,1221.74
122259,1222.59
122345,1223.45
122428,1224.28
122510,1225.1
122593,1225.93
122673,1226.73
122753,1227.53
122836,1228.36
122918,1229.18
123000,1230.0
123085,1230.85
123168,1231.68
123251,1232.51
123335,1233.35
123416,1234.16
123497,1234.97
123578,1235.78
123657,1236.57
123735,1237.35
123814,1238.14
123893,1238.93
123975,1239.75
124056,1240.56
124137,1241.37
124217,1242.17
124299,1242.99
124380,1243.8
124461,1244.61
124541,1245.41
124620,1246.2
124701,1247.01
124784,1247.84
124866,1248.66
124946,1249.46
125025,1250.25
125107,1251.07
125191,1251.91
125275,1252.75
125358,1253.58
125442,1254.42
125528,1255.28
125615,1256.15
125697,1256.97
125778,1257.78
125858,1258.58
125935,1259.35
126011,1260.11
126085,1260.85
126160,1261.6
126236,1262.36
126311,1263.11
126394,1263.94
126475,1264.75
126559,1265.59
126643,1266.43
126724,1267.24
126807,1268.07
126890,1268.9
126975,1269.75
127057,1270.57
127137,1271.37
127219,1272.19
127300,1273.0
127381,1273.81
127461,1274.61
127541,1275.41
127623,1276.23
127706,1277.06
127790,1277.9
127874,1278.74
127959,1279.59
128043,1280.43
128128,1281.28
128214,1282.14
128300,1283.0
128384,1283.84
128466,1284.66
128548,1285.48
128629,1286.29
128713,1287.13
128799,1287.99
128887,1288.87
128973,1289.73
129058,1290.58
129145,1291.45
129234,1292.34
129321,1293.21
129405,1294.05
129488,1294.88
129570,1295.7
129655,1296.55
129741,1297.41
129825,1298.25
129909,1299.09
129996,1299.96
130083,1300.83
130168,1301.68
130252,1302.52
130337,1303.37
130426,1304.26
130514,1305.14
130604,1306.04
130691,1306.91
130778,1307.78
130867,1308.67
130957,1309.57
131040,1310.4
131121,1311.21
131202,1312.02
131279,1312.79
131355,1313.55
131429,1314.29
131503,1315.03
131576,1315.76
131651,1316.51
131727,1317.27
131803,1318.03
131879,1318.79
131959,1319.59
132040,1320.4
132123,1321.23
132207,1322.07
132290,1322.9
132373,1323.73
132459,1324.59
132546,1325.46
132633,1326.33
132715,1327.15
132798,1327.98
132881,1328.81
132966,1329.66
133051,1330.51
133136,1331.36
133222,1332.22
133306,1333.06
133390,1333.9
133473,1334.73
133558,1335.58
133645,1336.45
133730,1337.3
133814,1338.14
133896,1338.96
133981,1339.81
134066,1340.66
134149,1341.49
134231,1342.31
134315,1343.15
134401,1344.01
134487,1344.87
134570,1345.7
134652,1346.52
134735,1347.35
134817,1348.17
134899,1348.99
134978,1349.78
135058,1350.58
135137,1351.37
135217,1352.17
135296,1352.96
135374,1353.74
135454,1354.54
135537,1355.37
135623,1356.23
135710,1357.1
135796,1357.96
135882,1358.82
135970,1359.7
136059,1360.59
136149,1361.49
136234,1362.34
136313,1363.13
136396,1363.96
136481,1364.81
136568,1365.68
136657,1366.57
136750,1367.5
136843,1368.43
136927,1369.27
137012,1370.12
137100,1371.0
137188,1371.88
137276,1372.76
137362,1373.62
137447,1374.47
137535,1375.35
137625,1376.25
137719,1377.19
137815,1378.15
137909,1379.09
138002,1380.02
138097,1380.97
138188,1381.88
138278,1382.78
138368,1383.68
138458,1384.58
138546,1385.46
138635,1386.35
138724,1387.24
138816,1388.16
138908,1389.08
138996,1389.96
139079,1390.79
139163,1391.63
139252,1392.52
139341,1393.41
139423,1394.23
139503,1395.03
139585,1395.85
139667,1396.67
139750,1397.5
139832,1398.32
139915,1399.15
140004,1400.04
140094,1400.94
140187,1401.87
140277,1402.77
140363,1403.63
140449,1404.49
140536,1405.36
140622,1406.22
140707,1407.07
140790,1407.9
140872,1408.72
140958,1409.58
141043,1410.43
141127,1411.27
141215,1412.15
141304,1413.04
141396,1413.96
141490,1414.9
141586,1415.86
141676,1416.76
141761,1417.61
141846,1418.46
141936,1419.36
142023,1420.23
142113,1421.13
142204,1422.04
142291,1422.91
142373,1423.73
142454,1424.54
142540,1425.4
142629,1426.29
142720,1427.2
142813,1428.13
142904,1429.04
142998,1429.98
143093,1430.93
143186,1431.86
143280,1432.8
143374,1433.74
143465,1434.65
143557,1435.57
143646,1436.46
143735,1437.35
143825,1438.25
143913,1439.13
144005,1440.05
144097,1440.97
144188,1441.88
144273,1442.73
144353,1443.53
144436,1444.36
144525,1445.25
144612,1446.12
144694,1446.94
144780,1447.8
144869,1448.69
144961,1449.61
145048,1450.48
145132,1451.32
145219,1452.19
145311,1453.11
145402,1454.02
145493,1454.93
145583,1455.83
145672,1456.72
145760,1457.6
145846,1458.46
145932,1459.32
146015,1460.15
146101,1461.01
146189,1461.89
146277,1462.77
146368,1463.68
146459,1464.59
146546,1465.46
146634,1466.34
146721,1467.21
146809,1468.09
146896,1468.96
146985,1469.85
147070,1470.7
147152,1471.52
147236,1472.36
147315,1473.15
147395,1473.95
147484,1474.84
147573,1475.73
147658,1476.58
147744,1477.44
147830,1478.3
147911,1479.11
147987,1479.87
148062,1480.62
148135,1481.35
148207,1482.07
148281,1482.81
148357,1483.57
148439,1484.39
148529,1485.29
148621,1486.21
148713,1487.13
148804,1488.04
148894,1488.94
148985,1489.85
149077,1490.77
149168,1491.68
149259,1492.59
149348,1493.48
149434,1494.34
149522,1495.22
149611,1496.11
149702,1497.02
149794,1497.94
149887,1498.87
149970,1499.7
150053,1500.53
150140,1501.4
150229,1502.29
150313,1503.13
150395,1503.95
150486,1504.86
150579,1505.79
150672,1506.72
150762,1507.62
150852,1508.52
150943,1509.43
151034,1510.34
151128,1511.28
151218,1512.18
151309,1513.09
151399,1513.99
151490,1514.9
151581,1515.81
151669,1516.69
151756,1517.56
151844,1518.44
151933,1519.33
152024,1520.24
152113,1521.13
152202,1522.02
152290,1522.9
152372,1523.72
152451,1524.51
152530,1525.3
152616,1526.16
152706,1527.06
152789,1527.89
152869,1528.69
152951,1529.51
153033,1530.33
153117,1531.17
153205,1532.05
153300,1533.0
153401,1534.01
153503,1535.03
153603,1536.03
153703,1537.03
153800,1538.0
153896,1538.96
153994,1539.94
154091,1540.91
154186,1541.86
154280,1542.8
154372,1543.72
154463,1544.63
154553,1545.53
154640,1546.4
154729,1547.29
154818,1548.18
154904,1549.04
154991,1549.91
155079,1550.79
155170,1551.7
155262,1552.62
155355,1553.55
155442,1554.42
155532,1555.32
155628,1556.28
155722,1557.22
155807,1558.07
155891,1558.91
156000,1560.0
156103,1561.03
156201,1562.01
156288,1562.88
156369,1563.69
156450,1564.5
156530,1565.3
156607,1566.07
156685,1566.85
156768,1567.68
156856,1568.56
156948,1569.48
157042,1570.42
157137,1571.37
157228,1572.28
157316,1573.16
157402,1574.02
157488,1574.88
157572,1575.72
157658,1576.58
157744,1577.44
157831,1578.31
157916,1579.16
158000,1580.0
158085,1580.85
158173,1581.73
158264,1582.64
158357,1583.57
158450,1584.5
158536,1585.36
158616,1586.16
158703,1587.03
158789,1587.89
158871,1588.71
158970,1589.7
159066,1590.66
159156,1591.56
159245,1592.45
159344,1593.44
159440,1594.4
159537,1595.37
159629,1596.29
159715,1597.15
159796,1597.96
159873,1598.73
159952,1599.52
160031,1600.31
160114,1601.14
160201,1602.01
160291,1602.91
160384,1603.84
160480,1604.8
160577,1605.77
160672,1606.72
160769,1607.69
160863,1608.63
160957,1609.57
161050,1610.5
161142,1611.42
161235,1612.35
161325,1613.25
161414,1614.14
161501,1615.01
161590,1615.9
161676,1616.76
161757,1617.57
161836,1618.36
161913,1619.13
161992,1619.92
162076,1620.76
162166,1621.66
162252,1622.52
162338,1623.38
162431,1624.31
162517,1625.17
162600,1626.0
162679,1626.79
162758,1627.58
162839,1628.39
162922,1629.22
163007,1630.07
163092,1630.92
163177,1631.77
163267,1632.67
163356,1633.56
163442,1634.42
163524,1635.24
163607,1636.07
163689,1636.89
163773,1637.73
163861,1638.61
163950,1639.5
164038,1640.38
164126,1641.26
164217,1642.17
164308,1643.08
164398,1643.98
164487,1644.87
164574,1645.74
164661,1646.61
164758,1647.58
164858,1648.58
164957,1649.57
165047,1650.47
165130,1651.3
165211,1652.11
165291,1652.91
165366,1653.66
165442,1654.42
165543,1655.43
165645,1656.45
165739,1657.39
165829,1658.29
165911,1659.11
165993,1659.93
166076,1660.76
166159,1661.59
166243,1662.43
166325,1663.25
166407,1664.07
166490,1664.9
166572,1665.72
166656,1666.56
166741,1667.41
166825,1668.25
166908,1669.08
166994,1669.94
167081,1670.81
167163,1671.63
167243,1672.43
167323,1673.23
167402,1674.02
167480,1674.8
167557,1675.57
167632,1676.32
167708,1677.08
167783,1677.83
167858,1678.58
167931,1679.31
168005,1680.05
168079,1680.79
168152,1681.52
168224,1682.24
168298,1682.98
168373,1683.73
168449,1684.49
168526,1685.26
168604,1686.04
168683,1686.83
168761,1687.61
168839,1688.39
168917,1689.17
168994,1689.94
169071,1690.71
169146,1691.46
169222,1692.22
169297,1692.97
169373,1693.73
169450,1694.5
169528,1695.28
169609,1696.09
169688,1696.88
169769,1697.69
169850,1698.5
169929,1699.29
170010,1700.1
170089,1700.89
170170,1701.7
170248,1702.48
170327,1703.27
170408,1704.08
170489,1704.89
170568,1705.68
170648,1706.48
170727,1707.27
170807,1708.07
170885,1708.85
170964,1709.64
171042,1710.42
171121,1711.21
171199,1711.99
171277,1712.77
171356,1713.56
171436,1714.36
171514,1715.14
171593,1715.93
171674,1716.74
171753,1717.53
171832,1718.32
171913,1719.13
171994,1719.94
172073,1720.73
172153,1721.53
172232,1722.32
172309,1723.09
172388,1723.88
172465,1724.65
172543,1725.43
172620,1726.2
172696,1726.96
172774,1727.74
172851,1728.51
172927,1729.27
173004,1730.04
173082,1730.82
173159,1731.59
173238,1732.38
173317,1733.17
173396,1733.96
173474,1734.74
173549,1735.49
173625,1736.25
173701,1737.01
173778,1737.78
173854,1738.54
173931,1739.31
174006,1740.06
174083,1740.83
174160,1741.6
174235,1742.35
174310,1743.1
174382,1743.82
174455,1744.55
174528,1745.28
174601,1746.01
174674,1746.74
174747,1747.47
174821,1748.21
174897,1748.97
174974,1749.74
175051,1750.51
175129,1751.29
175206,1752.06
175285,1752.85
175365,1753.65
175446,1754.46
175528,1755.28
175612,1756.12
175698,1756.98
175785,1757.85
175872,1758.72
175957,1759.57
176041,1760.41
176125,1761.25
176210,1762.1
176295,1762.95
176379,1763.79
176462,1764.62
176547,1765.47
176633,1766.33
176721,1767.21
176805,1768.05
176889,1768.89
176974,1769.74
177060,1770.6
177145,1771.45
177229,1772.29
177314,1773.14
177398,1773.98
177481,1774.81
177562,1775.62
177642,1776.42
177724,1777.24
177805,1778.05
177886,1778.86
177967,1779.67
178051,1780.51
178137,1781.37
178221,1782.21
178305,1783.05
178393,1783.93
178481,1784.81
178567,1785.67
178652,1786.52
178738,1787.38
178822,1788.22
178908,1789.08
178991,1789.91
179072,1790.72
179153,1791.53
179234,1792.34
179313,1793.13
179393,1793.93
179472,1794.72
179551,1795.51
179629,1796.29
179706,1797.06
179783,1797.83
179852,1798.52
179921,1799.21
180000,1800.0
180079,1800.79
180153,1801.53
180228,1802.28
180302,1803.02
180377,1803.77
180452,1804.52
180528,1805.28
180605,1806.05
180680,1806.8
180756,1807.56
180833,1808.33
180912,1809.12
180992,1809.92
181077,1810.77
181164,1811.64
181253,1812.53
181336,1813.36
181419,1814.19
181503,1815.03
181588,1815.88
181673,1816.73
181754,1817.54
181835,1818.35
181916,1819.16
181998,1819.98
182081,1820.81
182164,1821.64
182246,1822.46
182326,1823.26
182406,1824.06
182488,1824.88
182569,1825.69
182649,1826.49
182729,1827.29
182811,1828.11
182894,1828.94
182975,1829.75
183055,1830.55
183133,1831.33
183211,1832.11
183290,1832.9
183370,1833.7
183452,1834.52
183533,1835.33
183615,1836.15
183699,1836.99
183784,1837.84
183868,1838.68
183954,1839.54
184039,1840.39
184120,1841.2
184200,1842.0
184280,1842.8
184361,1843.61
184446,1844.46
184531,1845.31
184616,1846.16
184698,1846.98
184778,1847.78
184860,1848.6
184940,1849.4
185019,1850.19
185097,1850.97
185175,1851.75
185257,1852.57
185338,1853.38
185419,1854.19
185499,1854.99
185579,1855.79
185661,1856.61
185744,1857.44
185827,1858.27
185910,1859.1
185988,1859.88
186067,1860.67
186145,1861.45
186225,1862.25
186305,1863.05
186384,1863.84
186462,1864.62
186540,1865.4
186620,1866.2
186702,1867.02
186785,1867.85
186867,1868.67
186949,1869.49
187032,1870.32
187114,1871.14
187195,1871.95
187274,1872.74
187352,1873.52
187430,1874.3
187508,1875.08
187587,1875.87
187664,1876.64
187741,1877.41
187817,1878.17
187895,1878.95
187972,1879.72
188047,1880.47
188122,1881.22
188199,1881.99
188276,1882.76
188355,1883.55
188434,1884.34
188514,1885.14
188598,1885.98
188683,1886.83
188770,1887.7
188860,1888.6
188951,1889.51
189041,1890.41
189129,1891.29
189214,1892.14
189299,1892.99
189384,1893.84
189470,1894.7
189557,1895.57
189646,1896.46
189733,1897.33
189819,1898.19
189903,1899.03
189986,1899.86
190064,1900.64
190142,1901.42
190223,1902.23
190311,1903.11
190397,1903.97
190485,1904.85
190572,1905.72
190659,1906.59
190748,1907.48
190838,1908.38
190925,1909.25
191011,1910.11
191098,1910.98
191186,1911.86
191271,1912.71
191358,1913.58
191444,1914.44
191533,1915.33
191621,1916.21
191705,1917.05
191787,1917.87
191868,1918.68
191949,1919.49
192030,1920.3
192112,1921.12
192194,1921.94
192274,1922.74
192353,1923.53
192435,1924.35
192520,1925.2
192605,1926.05
192688,1926.88
192778,1927.78
192869,1928.69
192960,1929.6
193049,1930.49
193136,1931.36
193224,1932.24
193312,1933.12
193402,1934.02
193489,1934.89
193575,1935.75
193664,1936.64
193755,1937.55
193843,1938.43
193928,1939.28
194011,1940.11
194096,1940.96
194181,1941.81
194265,1942.65
194348,1943.48
194428,1944.28
194513,1945.13
194601,1946.01
194685,1946.85
194766,1947.66
194850,1948.5
194940,1949.4
195028,1950.28
195114,1951.14
195198,1951.98
195281,1952.81
195366,1953.66
195451,1954.51
195537,1955.37
195623,1956.23
195714,1957.14
195804,1958.04
195893,1958.93
195981,1959.81
196067,1960.67
196151,1961.51
196234,1962.34
196316,1963.16
196397,1963.97
196479,1964.79
196560,1965.6
196643,1966.43
196727,1967.27
196809,1968.09
196888,1968.88
196973,1969.73
197066,1970.66
197160,1971.6
197247,1972.47
197327,1973.27
197408,1974.08
197489,1974.89
197568,1975.68
197648,1976.48
197729,1977.29
197812,1978.12
197896,1978.96
197980,1979.8
198063,1980.63
198145,1981.45
198225,1982.25
198305,1983.05
198384,1983.84
198461,1984.61
198538,1985.38
198611,1986.11
198684,1986.84
198757,1987.57
198831,1988.31
198905,1989.05
198983,1989.83
199063,1990.63
199146,1991.46
199228,1992.28
199313,1993.13
199403,1994.03
199494,1994.94
199586,1995.86
199673,1996.73
199756,1997.56
199834,1998.34
199911,1999.11
199987,1999.87
200063,2000.63
200137,2001.37
200213,2002.13
200289,2002.89
200365,2003.65
200443,2004.43
200522,2005.22
200605,2006.05
200690,2006.9
200774,2007.74
200858,2008.58
200942,2009.42
201029,2010.29
201119,2011.19
201209,2012.09
201298,2012.98
201387,2013.87
201476,2014.76
201567,2015.67
201660,2016.6
201750,2017.5
201838,2018.38
201926,2019.26
202015,2020.15
202104,2021.04
202192,2021.92
202277,2022.77
202360,2023.6
202441,2024.41
202520,2025.2
202606,2026.06
202695,2026.95
202787,2027.87
202872,2028.72
202958,2029.58
203046,2030.46
203135,2031.35
203223,2032.23
203310,2033.1
203396,2033.96
203485,2034.85
203575,2035.75
203662,2036.62
203748,2037.48
203835,2038.35
203925,2039.25
204021,2040.21
204118,2041.18
204217,2042.17
204313,2043.13
204404,2044.04
204492,2044.92
204578,2045.78
204667,2046.67
204755,2047.55
204845,2048.45
204938,2049.38
205029,2050.29
205120,2051.2
205209,2052.09
205298,2052.98
205381,2053.81
205460,2054.6
205540,2055.4
205642,2056.42
205744,2057.44
205837,2058.37
205925,2059.25
206012,2060.12
206102,2061.02
206192,2061.92
206281,2062.81
206369,2063.69
206465,2064.65
206561,2065.61
206659,2066.59
206756,2067.56
206854,2068.54
206949,2069.49
207044,2070.44
207134,2071.34
207221,2072.21
207304,2073.04
207385,2073.85
207466,2074.66
207550,2075.5
207635,2076.35
207724,2077.24
207812,2078.12
207903,2079.03
208000,2080.0
208096,2080.96
208198,2081.98
208284,2082.84
208367,2083.67
208452,2084.52
208531,2085.31
208613,2086.13
208704,2087.04
208795,2087.95
208877,2088.77
208953,2089.53
209031,2090.31
209108,2091.08
209185,2091.85
209263,2092.63
209345,2093.45
209433,2094.33
209527,2095.27
209620,2096.2
209712,2097.12
209802,2098.02
209893,2098.93
209984,2099.84
210072,2100.72
210157,2101.57
210243,2102.43
210331,2103.31
210415,2104.15
210496,2104.96
210576,2105.76
210657,2106.57
210737,2107.37
210818,2108.18
210899,2108.99
210989,2109.89
211084,2110.84
211179,2111.79
211274,2112.74
211368,2113.68
211457,2114.57
211549,2115.49
211640,2116.4
211731,2117.31
211827,2118.27
211923,2119.23
212012,2120.12
212099,2120.99
212183,2121.83
212268,2122.68
212352,2123.52
212436,2124.36
212517,2125.17
212599,2125.99
212680,2126.8
212760,2127.6
212840,2128.4
212919,2129.19
213012,2130.12
213107,2131.07
213199,2131.99
213286,2132.86
213370,2133.7
213455,2134.55
213539,2135.39
213622,2136.22
213704,2137.04
213787,2137.87
213871,2138.71
213956,2139.56
214038,2140.38
214122,2141.22
214207,2142.07
214296,2142.96
214386,2143.86
214472,2144.72
214554,2145.54
214635,2146.35
214713,2147.13
214792,2147.92
214871,2148.71
214953,2149.53
215037,2150.37
215126,2151.26
215218,2152.18
215309,2153.09
215400,2154.0
215487,2154.87
215570,2155.7
215654,2156.54
215736,2157.36
215813,2158.13
215889,2158.89
215968,2159.68
216048,2160.48
216127,2161.27
216204,2162.04
216286,2162.86
216369,2163.69
216455,2164.55
216542,2165.42
216627,2166.27
216714,2167.14
216800,2168.0
216886,2168.86
216975,2169.75
217063,2170.63
217151,2171.51
217239,2172.39
217328,2173.28
217413,2174.13
217498,2174.98
217585,2175.85
217671,2176.71
217758,2177.58
217845,2178.45
217932,2179.32
218014,2180.14
218095,2180.95
218174,2181.74
218252,2182.52
218329,2183.29
218406,2184.06
218498,2184.98
218596,2185.96
218694,2186.94
218785,2187.85
218877,2188.77
218966,2189.66
219053,2190.53
219137,2191.37
219220,2192.2
219302,2193.02
219385,2193.85
219468,2194.68
219552,2195.52
219632,2196.32
219711,2197.11
219789,2197.89
219866,2198.66
219945,2199.45
220020,2200.2
220096,2200.96
220170,2201.7
220244,2202.44
220317,2203.17
220389,2203.89
220462,2204.62
220537,2205.37
220615,2206.15
220693,2206.93
220774,2207.74
220860,2208.6
220957,2209.57
221054,2210.54
221138,2211.38
221226,2212.26
221320,2213.2
221411,2214.11
221496,2214.96
221584,2215.84
221673,2216.73
221764,2217.64
221859,2218.59
221952,2219.52
222051,2220.51
222156,2221.56
222260,2222.6
222364,2223.64
222465,2224.65
222565,2225.65
222661,2226.61
222758,2227.58
222854,2228.54
222948,2229.48
223041,2230.41
223133,2231.33
223221,2232.21
223307,2233.07
223393,2233.93
223478,2234.78
223563,2235.63
223649,2236.49
223739,2237.39
223830,2238.3
223924,2239.24
224014,2240.14
224103,2241.03
224190,2241.9
224282,2242.82
224375,2243.75
224466,2244.66
224557,2245.57
224647,2246.47
224736,2247.36
224828,2248.28
224916,2249.16
224997,2249.97
225083,2250.83
225172,2251.72
225278,2252.78
225381,2253.81
225484,2254.84
225588,2255.88
225680,2256.8
225772,2257.72
225861,2258.61
225947,2259.47
226028,2260.28
226109,2261.09
226192,2261.92
226278,2262.78
226365,2263.65
226450,2264.5
226535,2265.35
226618,2266.18
226703,2267.03
226788,2267.88
226876,2268.76
226963,2269.63
227050,2270.5
227140,2271.4
227231,2272.31
227322,2273.22
227414,2274.14
227509,2275.09
227600,2276.0
227691,2276.91
227782,2277.82
227870,2278.7
227957,2279.57
228045,2280.45
228133,2281.33
228220,2282.2
228308,2283.08
228395,2283.95
228480,2284.8
228561,2285.61
228640,2286.4
228718,2287.18
228801,2288.01
228887,2288.87
228970,2289.7
229054,2290.54
229151,2291.51
229247,2292.47
229341,2293.41
229433,2294.33
229525,2295.25
229617,2296.17
229707,2297.07
229796,2297.96
229881,2298.81
229971,2299.71
230064,2300.64
230158,2301.58
230255,2302.55
230349,2303.49
230441,2304.41
230534,2305.34
230627,2306.27
230715,2307.15
230802,2308.02
230893,2308.93
230982,2309.82
231066,2310.66
231147,2311.47
231226,2312.26
231304,2313.04
231379,2313.79
231460,2314.6
231546,2315.46
231631,2316.31
231712,2317.12
231796,2317.96
231877,2318.77
231955,2319.55
232031,2320.31
232106,2321.06
232183,2321.83
232262,2322.62
232342,2323.42
232425,2324.25
232507,2325.07
232594,2325.94
232683,2326.83
232774,2327.74
232866,2328.66
232956,2329.56
233046,2330.46
233138,2331.38
233233,2332.33
233331,2333.31
233426,2334.26
233519,2335.19
233611,2336.11
233701,2337.01
233796,2337.96
233892,2338.92
233989,2339.89
234088,2340.88
234182,2341.82
234273,2342.73
234357,2343.57
234436,2344.36
234515,2345.15
234605,2346.05
234697,2346.97
234784,2347.84
234872,2348.72
234967,2349.67
235063,2350.63
235163,2351.63
235262,2352.62
235359,2353.59
235452,2354.52
235540,2355.4
235628,2356.28
235717,2357.17
235806,2358.06
235897,2358.97
235987,2359.87
236078,2360.78
236170,2361.7
236260,2362.6
236351,2363.51
236441,2364.41
236533,2365.33
236622,2366.22
236713,2367.13
236801,2368.01
236881,2368.81
236961,2369.61
237042,2370.42
237123,2371.23
237203,2372.03
237285,2372.85
237370,2373.7
237465,2374.65
237559,2375.59
237653,2376.53
237749,2377.49
237833,2378.33
237915,2379.15
237994,2379.94
238070,2380.7
238146,2381.46
238223,2382.23
238300,2383.0
238376,2383.76
238453,2384.53
238528,2385.28
238601,2386.01
238676,2386.76
238751,2387.51
238825,2388.25
238899,2388.99
238974,2389.74
239050,2390.5
239129,2391.29
239210,2392.1
239294,2392.94
239380,2393.8
239467,2394.67
239556,2395.56
239647,2396.47
239736,2397.36
239826,2398.26
239912,2399.12
239998,2399.98
240083,2400.83
240168,2401.68
240255,2402.55
240345,2403.45
240434,2404.34
240518,2405.18
240601,2406.01
240684,2406.84
240768,2407.68
240861,2408.61
240959,2409.59
241060,2410.6
241160,2411.6
241259,2412.59
241346,2413.46
241431,2414.31
241509,2415.09
241589,2415.89
241682,2416.82
241775,2417.75
241854,2418.54
241930,2419.3
242005,2420.05
242084,2420.84
242165,2421.65
242247,2422.47
242329,2423.29
242408,2424.08
242488,2424.88
242571,2425.71
242656,2426.56
242742,2427.42
242832,2428.32
242921,2429.21
243009,2430.09
243098,2430.98
243185,2431.85
243271,2432.71
243355,2433.55
243438,2434.38
243520,2435.2
243600,2436.0
243680,2436.8
243758,2437.58
243837,2438.37
243916,2439.16
243996,2439.96
244080,2440.8
244163,2441.63
244261,2442.61
244365,2443.65
244467,2444.67
244569,2445.69
244661,2446.61
244745,2447.45
244825,2448.25
244902,2449.02
244974,2449.74
245053,2450.53
245145,2451.45
245232,2452.32
245313,2453.13
245392,2453.92
245484,2454.84
245574,2455.74
245665,2456.65
245755,2457.55
245844,2458.44
245934,2459.34
246020,2460.2
246111,2461.11
246204,2462.04
246297,2462.97
246394,2463.94
246490,2464.9
246582,2465.82
246672,2466.72
246763,2467.63
246855,2468.55
246947,2469.47
247044,2470.44
247136,2471.36
247221,2472.21
247302,2473.02
247383,2473.83
247465,2474.65
247548,2475.48
247635,2476.35
247733,2477.33
247831,2478.31
247929,2479.29
248025,2480.25
248118,2481.18
248203,2482.03
248282,2482.82
248369,2483.69
248464,2484.64
248557,2485.57
248645,2486.45
248734,2487.34
248828,2488.28
248918,2489.18
249007,2490.07
249092,2490.92
249179,2491.79
249272,2492.72
249365,2493.65
249457,2494.57
249547,2495.47
249641,2496.41
249733,2497.33
249825,2498.25
249920,2499.2
250015,2500.15
250107,2501.07
250200,2502.0
250297,2502.97
250387,2503.87
250470,2504.7
250551,2505.51
250630,2506.3
250708,2507.08
250785,2507.85
250860,2508.6
250934,2509.34
251009,2510.09
251085,2510.85
251160,2511.6
251235,2512.35
251314,2513.14
251392,2513.92
251470,2514.7
251550,2515.5
251629,2516.29
251710,2517.1
251796,2517.96
251885,2518.85
251975,2519.75
252062,2520.62
252150,2521.5
252239,2522.39
252330,2523.3
252421,2524.21
252510,2525.1
252598,2525.98
252683,2526.83
252768,2527.68
252853,2528.53
252938,2529.38
253022,2530.22
253105,2531.05
253191,2531.91
253289,2532.89
253382,2533.82
253471,2534.71
253553,2535.53
253636,2536.36
253714,2537.14
253795,2537.95
253885,2538.85
253975,2539.75
254065,2540.65
254155,2541.55
254250,2542.5
254340,2543.4
254423,2544.23
254505,2545.05
254588,2545.88
254670,2546.7
254751,2547.51
254833,2548.33
254918,2549.18
255005,2550.05
255091,2550.91
255173,2551.73
255255,2552.55
255341,2553.41
255428,2554.28
255521,2555.21
255617,2556.17
255712,2557.12
255805,2558.05
255897,2558.97
255987,2559.87
256078,2560.78
256166,2561.66
256249,2562.49
256328,2563.28
256405,2564.05
256480,2564.8
256555,2565.55
256632,2566.32
256710,2567.1
256791,2567.91
256872,2568.72
256955,2569.55
257042,2570.42
257133,2571.33
257225,2572.25
257317,2573.17
257407,2574.07
257495,2574.95
257586,2575.86
257674,2576.74
257759,2577.59
257843,2578.43
257926,2579.26
258011,2580.11
258093,2580.93
258171,2581.71
258248,2582.48
258330,2583.3
258411,2584.11
258489,2584.89
258565,2585.65
258644,2586.44
258727,2587.27
258812,2588.12
258900,2589.0
258986,2589.86
259072,2590.72
259162,2591.62
259252,2592.52
259340,2593.4
259427,2594.27
259516,2595.16
259605,2596.05
259694,2596.94
259783,2597.83
259875,2598.75
259971,2599.71
260064,2600.64
260162,2601.62
260257,2602.57
260344,2603.44
260428,2604.28
260511,2605.11
260593,2605.93
260675,2606.75
260757,2607.57
260836,2608.36
260916,2609.16
260998,2609.98
261084,2610.84
261173,2611.73
261261,2612.61
261350,2613.5
261442,2614.42
261533,2615.33
261620,2616.2
261710,2617.1
261801,2618.01
261894,2618.94
261984,2619.84
262074,2620.74
262169,2621.69
262265,2622.65
262362,2623.62
262458,2624.58
262562,2625.62
262662,2626.62
262758,2627.58
262855,2628.55
262943,2629.43
263025,2630.25
263106,2631.06
263184,2631.84
263260,2632.6
263337,2633.37
263413,2634.13
263488,2634.88
263562,2635.62
263639,2636.39
263715,2637.15
263790,2637.9
263862,2638.62
263935,2639.35
264007,2640.07
264079,2640.79
264150,2641.5
264221,2642.21
264293,2642.93
264366,2643.66
264442,2644.42
264518,2645.18
264596,2645.96
264677,2646.77
264759,2647.59
264842,2648.42
264926,2649.26
265012,2650.12
265093,2650.93
265170,2651.7
265248,2652.48
265327,2653.27
265408,2654.08
265490,2654.9
265572,2655.72
265655,2656.55
265746,2657.46
265840,2658.4
265930,2659.3
266016,2660.16
266096,2660.96
266172,2661.72
266248,2662.48
266321,2663.21
266396,2663.96
266477,2664.77
266562,2665.62
266647,2666.47
266728,2667.28
266804,2668.04
266879,2668.79
266953,2669.53
267027,2670.27
267102,2671.02
267177,2671.77
267250,2672.5
267325,2673.25
267399,2673.99
267474,2674.74
267548,2675.48
267622,2676.22
267696,2676.96
267769,2677.69
267842,2678.42
267914,2679.14
267984,2679.84
268054,2680.54
268123,2681.23
268191,2681.91
268257,2682.57
268322,2683.22
268385,2683.85
268446,2684.46
268506,2685.06
268566,2685.66
268627,2686.27
268688,2686.88
268750,2687.5
268809,2688.09
268869,2688.69
268930,2689.3
268992,2689.92
269055,2690.55
269117,2691.17
269179,2691.79
269242,2692.42
269308,2693.08
269373,2693.73
269440,2694.4
269507,2695.07
269575,2695.75
269642,2696.42
269708,2697.08
269773,2697.73
269837,2698.37
269901,2699.01
269965,2699.65
270029,2700.29
270093,2700.93
270156,2701.56
270220,2702.2
270284,2702.84
270347,2703.47
270411,2704.11
270475,2704.75
270538,2705.38
270601,2706.01
270664,2706.64
270730,2707.3
270796,2707.96
270860,2708.6
270927,2709.27
270995,2709.95
271062,2710.62
271129,2711.29
271194,2711.94
271260,2712.6
271327,2713.27
271396,2713.96
271470,2714.7
271544,2715.44
271617,2716.17
271689,2716.89
271762,2717.62
271837,2718.37
271913,2719.13
271989,2719.89
272063,2720.63
272136,2721.36
272211,2722.11
272286,2722.86
272360,2723.6
272434,2724.34
272506,2725.06
272579,2725.79
272651,2726.51
272725,2727.25
272800,2728.0
272874,2728.74
272948,2729.48
273021,2730.21
273097,2730.97
273173,2731.73
273249,2732.49
273321,2733.21
273394,2733.94
273468,2734.68
273542,2735.42
273616,2736.16
273688,2736.88
273759,2737.59
273829,2738.29
273899,2738.99
273969,2739.69
274039,2740.39
274108,2741.08
274178,2741.78
274248,2742.48
274321,2743.21
274394,2743.94
274469,2744.69
274542,2745.42
274617,2746.17
274694,2746.94
274771,2747.71
274848,2748.48
274922,2749.22
274997,2749.97
275071,2750.71
275146,2751.46
275221,2752.21
275295,2752.95
275368,2753.68
275442,2754.42
275516,2755.16
275591,2755.91
275663,2756.63
275736,2757.36
275809,2758.09
275883,2758.83
275957,2759.57
276030,2760.3
276101,2761.01
276172,2761.72
276244,2762.44
276318,2763.18
276394,2763.94
276472,2764.72
276550,2765.5
276632,2766.32
276717,2767.17
276802,2768.02
276888,2768.88
276969,2769.69
277051,2770.51
277134,2771.34
277218,2772.18
277307,2773.07
277396,2773.96
277479,2774.79
277563,2775.63
277648,2776.48
277733,2777.33
277815,2778.15
277898,2778.98
277987,2779.87
278076,2780.76
278162,2781.62
278245,2782.45
278322,2783.22
278398,2783.98
278472,2784.72
278544,2785.44
278616,2786.16
278690,2786.9
278766,2787.66
278843,2788.43
278921,2789.21
279001,2790.01
279084,2790.84
279169,2791.69
279255,2792.55
279341,2793.41
279426,2794.26
279508,2795.08
279585,2795.85
279660,2796.6
279734,2797.34
279810,2798.1
279885,2798.85
279962,2799.62
280040,2800.4
280117,2801.17
280197,2801.97
280278,2802.78
280358,2803.58
280437,2804.37
280518,2805.18
280601,2806.01
280682,2806.82
280760,2807.6
280838,2808.38
280916,2809.16
280992,2809.92
281068,2810.68
281143,2811.43
281217,2812.17
281292,2812.92
281369,2813.69
281448,2814.48
281528,2815.28
281609,2816.09
281690,2816.9
281770,2817.7
281851,2818.51
281931,2819.31
282003,2820.03
282076,2820.76
282153,2821.53
282224,2822.24
282298,2822.98
282368,2823.68
282438,2824.38
282506,2825.06
282574,2825.74
282641,2826.41
282709,2827.09
282777,2827.77
282844,2828.44
282912,2829.12
282978,2829.78
283045,2830.45
283112,2831.12
283180,2831.8
283247,2832.47
283316,2833.16
283384,2833.84
283453,2834.53
283523,2835.23
283592,2835.92
283661,2836.61
283731,2837.31
283802,2838.02
283875,2838.75
283950,2839.5
284025,2840.25
284102,2841.02
284178,2841.78
284256,2842.56
284335,2843.35
284414,2844.14
284495,2844.95
284577,2845.77
284658,2846.58
284737,2847.37
284816,2848.16
284900,2849.0
284983,2849.83
285065,2850.65
285148,2851.48
285228,2852.28
285308,2853.08
285390,2853.9
285473,2854.73
285554,2855.54
285631,2856.31
285707,2857.07
285783,2857.83
285857,2858.57
285930,2859.3
286003,2860.03
286075,2860.75
286148,2861.48
286222,2862.22
286298,2862.98
286372,2863.72
286447,2864.47
286523,2865.23
286600,2866.0
286678,2866.78
286754,2867.54
286831,2868.31
286908,2869.08
286984,2869.84
287062,2870.62
287140,2871.4
287217,2872.17
287293,2872.93
287370,2873.7
287448,2874.48
287527,2875.27
287604,2876.04
287681,2876.81
287758,2877.58
287836,2878.36
287916,2879.16
287996,2879.96
288075,2880.75
288152,2881.52
288229,2882.29
288307,2883.07
288387,2883.87
288467,2884.67
288546,2885.46
288625,2886.25
288703,2887.03
288782,2887.82
288862,2888.62
288942,2889.42
289020,2890.2
289096,2890.96
289170,2891.7
289245,2892.45
289322,2893.22
289398,2893.98
289475,2894.75
289552,2895.52
289628,2896.28
289705,2897.05
289783,2897.83
289863,2898.63
289941,2899.41
290017,2900.17
290093,2900.93
290169,2901.69
290245,2902.45
290322,2903.22
290398,2903.98
290472,2904.72
290547,2905.47
290622,2906.22
290698,2906.98
290774,2907.74
290847,2908.47
290919,2909.19
290991,2909.91
291062,2910.62
291131,2911.31
291200,2912.0
291267,2912.67
291335,2913.35
291403,2914.03
291471,2914.71
291540,2915.4
291609,2916.09
291677,2916.77
291745,2917.45
291814,2918.14
291882,2918.82
291951,2919.51
292021,2920.21
292093,2920.93
292165,2921.65
292238,2922.38
292315,2923.15
292399,2923.99
292481,2924.81
292565,2925.65
292656,2926.56
292745,2927.45
292835,2928.35
292925,2929.25
293015,2930.15
293098,2930.98
293181,2931.81
293265,2932.65
293349,2933.49
293427,2934.27
293505,2935.05
293582,2935.82
293661,2936.61
293734,2937.34
293808,2938.08
293880,2938.8
293951,2939.51
294021,2940.21
294090,2940.9
294157,2941.57
294224,2942.24
294291,2942.91
294357,2943.57
294422,2944.22
294488,2944.88
294554,2945.54
294619,2946.19
294685,2946.85
294751,2947.51
294815,2948.15
294881,2948.81
294947,2949.47
295013,2950.13
295078,2950.78
295143,2951.43
295209,2952.09
295276,2952.76
295345,2953.45
295414,2954.14
295485,2954.85
295556,2955.56
295628,2956.28
295704,2957.04
295781,2957.81
295860,2958.6
295939,2959.39
296015,2960.15
296091,2960.91
296166,2961.66
296243,2962.43
296320,2963.2
296397,2963.97
296475,2964.75
296549,2965.49
296623,2966.23
296699,2966.99
296776,2967.76
296855,2968.55
296933,2969.33
297013,2970.13
297091,2970.91
297167,2971.67
297244,2972.44
297322,2973.22
297401,2974.01
297480,2974.8
297560,2975.6
297640,2976.4
297720,2977.2
297801,2978.01
297884,2978.84
297966,2979.66
298045,2980.45
298125,2981.25
298205,2982.05
298288,2982.88
298371,2983.71
298446,2984.46
298521,2985.21
298598,2985.98
298675,2986.75
298746,2987.46
298817,2988.17
298889,2988.89
298965,2989.65
299047,2990.47
299133,2991.33
299223,2992.23
299312,2993.12
299404,2994.04
299497,2994.97
299588,2995.88
299678,2996.78
299768,2997.68
299859,2998.59
299952,2999.52
300044,3000.44
300134,3001.34
300224,3002.24
300315,3003.15
300405,3004.05
300495,3004.95
300582,3005.82
300666,3006.66
300752,3007.52
300836,3008.36
300919,3009.19
301001,3010.01
301079,3010.79
301158,3011.58
301238,3012.38
301320,3013.2
301402,3014.02
301480,3014.8
301557,3015.57
301635,3016.35
301714,3017.14
301797,3017.97
301878,3018.78
301960,3019.6
302042,3020.42
302123,3021.23
302204,3022.04
302287,3022.87
302373,3023.73
302462,3024.62
302551,3025.51
302636,3026.36
302715,3027.15
302793,3027.93
302868,3028.68
302941,3029.41
303015,3030.15
303089,3030.89
303164,3031.64
303242,3032.42
303324,3033.24
303407,3034.07
303489,3034.89
303570,3035.7
303655,3036.55
303739,3037.39
303823,3038.23
303906,3039.06
303986,3039.86
304065,3040.65
304147,3041.47
304230,3042.3
304314,3043.14
304399,3043.99
304482,3044.82
304567,3045.67
304654,3046.54
304741,3047.41
304827,3048.27
304909,3049.09
304991,3049.91
305079,3050.79
305164,3051.64
305243,3052.43
305319,3053.19
305397,3053.97
305477,3054.77
305565,3055.65
305647,3056.47
305725,3057.25
305804,3058.04
305883,3058.83
305966,3059.66
306049,3060.49
306134,3061.34
306216,3062.16
306294,3062.94
306369,3063.69
306445,3064.45
306523,3065.23
306601,3066.01
306680,3066.8
306763,3067.63
306850,3068.5
306941,3069.41
307034,3070.34
307125,3071.25
307213,3072.13
307297,3072.97
307378,3073.78
307459,3074.59
307540,3075.4
307619,3076.19
307699,3076.99
307779,3077.79
307859,3078.59
307940,3079.4
308026,3080.26
308112,3081.12
308196,3081.96
308280,3082.8
308360,3083.6
308445,3084.45
308542,3085.42
308639,3086.39
308721,3087.21
308804,3088.04
308889,3088.89
308975,3089.75
309066,3090.66
309160,3091.6
309257,3092.57
309353,3093.53
309445,3094.45
309535,3095.35
309621,3096.21
309706,3097.06
309792,3097.92
309879,3098.79
309968,3099.68
310057,3100.57
310148,3101.48
310238,3102.38
310330,3103.3
310417,3104.17
310503,3105.03
310589,3105.89
310673,3106.73
310752,3107.52
310830,3108.3
310907,3109.07
310983,3109.83
311060,3110.6
311144,3111.44
311244,3112.44
311344,3113.44
311435,3114.35
311518,3115.18
311603,3116.03
311689,3116.89
311777,3117.77
311866,3118.66
311952,3119.52
312037,3120.37
312124,3121.24
312211,3122.11
312297,3122.97
312380,3123.8
312463,3124.63
312550,3125.5
312636,3126.36
312723,3127.23
312807,3128.07
312889,3128.89
312972,3129.72
313053,3130.53
313134,3131.34
313215,3132.15
313299,3132.99
313381,3133.81
313460,3134.6
313547,3135.47
313641,3136.41
313736,3137.36
313821,3138.21
313901,3139.01
313985,3139.85
314071,3140.71
314157,3141.57
314241,3142.41
314321,3143.21
314401,3144.01
314479,3144.79
314555,3145.55
314631,3146.31
314707,3147.07
314782,3147.82
314860,3148.6
314946,3149.46
315037,3150.37
315130,3151.3
315222,3152.22
315308,3153.08
315391,3153.91
315473,3154.73
315556,3155.56
315637,3156.37
315717,3157.17
315799,3157.99
315884,3158.84
315969,3159.69
316055,3160.55
316144,3161.44
316243,3162.43
316342,3163.42
316432,3164.32
316511,3165.11
316593,3165.93
316676,3166.76
316760,3167.6
316841,3168.41
316928,3169.28
317016,3170.16
317098,3170.98
317174,3171.74
317249,3172.49
317323,3173.23
317397,3173.97
317474,3174.74
317559,3175.59
317653,3176.53
317749,3177.49
317847,3178.47
317942,3179.42
318032,3180.32
318119,3181.19
318209,3182.09
318298,3182.98
318390,3183.9
318481,3184.81
318573,3185.73
318663,3186.63
318751,3187.51
318837,3188.37
318923,3189.23
319008,3190.08
319097,3190.97
319186,3191.86
319276,3192.76
319362,3193.62
319447,3194.47
319530,3195.3
319611,3196.11
319689,3196.89
319769,3197.69
319864,3198.64
319965,3199.65
320064,3200.64
320154,3201.54
320240,3202.4
320331,3203.31
320421,3204.21
320510,3205.1
320597,3205.97
320683,3206.83
320772,3207.72
320861,3208.61
320949,3209.49
321035,3210.35
321123,3211.23
321215,3212.15
321304,3213.04
321391,3213.91
321476,3214.76
321560,3215.6
321643,3216.43
321726,3217.26
321809,3218.09
321892,3218.92
321973,3219.73
322055,3220.55
322145,3221.45
322233,3222.33
322316,3223.16
322396,3223.96
322470,3224.7
322542,3225.42
322616,3226.16
322697,3226.97
322783,3227.83
322867,3228.67
322945,3229.45
323022,3230.22
323098,3230.98
323174,3231.74
323248,3232.48
323320,3233.2
323393,3233.93
323467,3234.67
323541,3235.41
323614,3236.14
323688,3236.88
323765,3237.65
323849,3238.49
323940,3239.4
324031,3240.31
324122,3241.22
324209,3242.09
324293,3242.93
324377,3243.77
324460,3244.6
324544,3245.44
324626,3246.26
324705,3247.05
324784,3247.84
324865,3248.65
324950,3249.5
325038,3250.38
325127,3251.27
325217,3252.17
325308,3253.08
325406,3254.06
325501,3255.01
325584,3255.84
325668,3256.68
325767,3257.67
325866,3258.66
325957,3259.57
326040,3260.4
326118,3261.18
326193,3261.93
326266,3262.66
326335,3263.35
326406,3264.06
326478,3264.78
326567,3265.67
326662,3266.62
326758,3267.58
326857,3268.57
326950,3269.5
327044,3270.44
327139,3271.39
327232,3272.32
327324,3273.24
327415,3274.15
327501,3275.01
327587,3275.87
327673,3276.73
327761,3277.61
327851,3278.51
327935,3279.35
328018,3280.18
328100,3281.0
328187,3281.87
328278,3282.78
328369,3283.69
328454,3284.54
328537,3285.37
328616,3286.16
328691,3286.91
328766,3287.66
328844,3288.44
328923,3289.23
329002,3290.02
329079,3290.79
329159,3291.59
329238,3292.38
329318,3293.18
329398,3293.98
329480,3294.8
329562,3295.62
329650,3296.5
329742,3297.42
329832,3298.32
329919,3299.19
330004,3300.04
330090,3300.9
330178,3301.78
330265,3302.65
330348,3303.48
330430,3304.3
330516,3305.16
330602,3306.02
330691,3306.91
330780,3307.8
330867,3308.67
330952,3309.52
331037,3310.37
331126,3311.26
331215,3312.15
331306,3313.06
331395,3313.95
331488,3314.88
331569,3315.69
331647,3316.47
331725,3317.25
331806,3318.06
331882,3318.82
331965,3319.65
332048,3320.48
332126,3321.26
332202,3322.02
332274,3322.74
332345,3323.45
332414,3324.14
332481,3324.81
332551,3325.51
332626,3326.26
332715,3327.15
332804,3328.04
332893,3328.93
332987,3329.87
333078,3330.78
333171,3331.71
333260,3332.6
333346,3333.46
333432,3334.32
333514,3335.14
333594,3335.94
333673,3336.73
333754,3337.54
333836,3338.36
333920,3339.2
334003,3340.03
334085,3340.85
334169,3341.69
334256,3342.56
334347,3343.47
334435,3344.35
334518,3345.18
334597,3345.97
334673,3346.73
334749,3347.49
334826,3348.26
334900,3349.0
334975,3349.75
335049,3350.49
335126,3351.26
335201,3352.01
335275,3352.75
335347,3353.47
335421,3354.21
335493,3354.93
335565,3355.65
335639,3356.39
335717,3357.17
335800,3358.0
335886,3358.86
335972,3359.72
336056,3360.56
336143,3361.43
336231,3362.31
336319,3363.19
336405,3364.05
336488,3364.88
336576,3365.76
336663,3366.63
336750,3367.5
336835,3368.35
336919,3369.19
337002,3370.02
337085,3370.85
337170,3371.7
337258,3372.58
337346,3373.46
337432,3374.32
337518,3375.18
337605,3376.05
337695,3376.95
337785,3377.85
337865,3378.65
337945,3379.45
338037,3380.37
338129,3381.29
338214,3382.14
338300,3383.0
338389,3383.89
338466,3384.66
338541,3385.41
338617,3386.17
338696,3386.96
338778,3387.78
338861,3388.61
338944,3389.44
339029,3390.29
339122,3391.22
339218,3392.18
339320,3393.2
339422,3394.22
339519,3395.19
339610,3396.1
339700,3397.0
339790,3397.9
339881,3398.81
339970,3399.7
340059,3400.59
340149,3401.49
340237,3402.37
340324,3403.24
340410,3404.1
340495,3404.95
340576,3405.76
340657,3406.57
340735,3407.35
340812,3408.12
340889,3408.89
340972,3409.72
341059,3410.59
341148,3411.48
341240,3412.4
341333,3413.33
341433,3414.33
341533,3415.33
341630,3416.3
341723,3417.23
341814,3418.14
341911,3419.11
342010,3420.1
342102,3421.02
342185,3421.85
342269,3422.69
342349,3423.49
342423,3424.23
342500,3425.0
342580,3425.8
342659,3426.59
342729,3427.29
342798,3427.98
342864,3428.64
342930,3429.3
342999,3429.99
343067,3430.67
343138,3431.38
343210,3432.1
343282,3432.82
343360,3433.6
343456,3434.56
343547,3435.47
343636,3436.36
343727,3437.27
343816,3438.16
343904,3439.04
343992,3439.92
344082,3440.82
344173,3441.73
344261,3442.61
344349,3443.49
344436,3444.36
344521,3445.21
344605,3446.05
344691,3446.91
344778,3447.78
344865,3448.65
344950,3449.5
345036,3450.36
345123,3451.23
345217,3452.17
345315,3453.15
345414,3454.14
345515,3455.15
345611,3456.11
345704,3457.04
345784,3457.84
345864,3458.64
345952,3459.52
346040,3460.4
346117,3461.17
346191,3461.91
346265,3462.65
346336,3463.36
346406,3464.06
346476,3464.76
346544,3465.44
346613,3466.13
346681,3466.81
346751,3467.51
346826,3468.26
346904,3469.04
346994,3469.94
347079,3470.79
347168,3471.68
347254,3472.54
347342,3473.42
347432,3474.32
347522,3475.22
347613,3476.13
347703,3477.03
347791,3477.91
347878,3478.78
347965,3479.65
348051,3480.51
348135,3481.35
348218,3482.18
348301,3483.01
348383,3483.83
348465,3484.65
348546,3485.46
348631,3486.31
348717,3487.17
348805,3488.05
348893,3488.93
348976,3489.76
349054,3490.54
349130,3491.3
349205,3492.05
349279,3492.79
349353,3493.53
349430,3494.3
349509,3495.09
349585,3495.85
349661,3496.61
349738,3497.38
349814,3498.14
349888,3498.88
349961,3499.61
350035,3500.35
350109,3501.09
350181,3501.81
350254,3502.54
350326,3503.26
350398,3503.98
350473,3504.73
350552,3505.52
350635,3506.35
350718,3507.18
350804,3508.04
350893,3508.93
350985,3509.85
351074,3510.74
351159,3511.59
351246,3512.46
351331,3513.31
351415,3514.15
351497,3514.97
351578,3515.78
351660,3516.6
351741,3517.41
351828,3518.28
351918,3519.18
352007,3520.07
352097,3520.97
352179,3521.79
352256,3522.56
352333,3523.33
352410,3524.1
352485,3524.85
352559,3525.59
352638,3526.38
352717,3527.17
352797,3527.97
352873,3528.73
352947,3529.47
353021,3530.21
353098,3530.98
353176,3531.76
353256,3532.56
353337,3533.37
353418,3534.18
353505,3535.05
353593,3535.93
353679,3536.79
353765,3537.65
353850,3538.5
353932,3539.32
354014,3540.14
354094,3540.94
354175,3541.75
354257,3542.57
354341,3543.41
354426,3544.26
354513,3545.13
354599,3545.99
354682,3546.82
354764,3547.64
354844,3548.44
354927,3549.27
355012,3550.12
355095,3550.95
355174,3551.74
355256,3552.56
355337,3553.37
355416,3554.16
355502,3555.02
355586,3555.86
355664,3556.64
355742,3557.42
355825,3558.25
355909,3559.09
355991,3559.91
356071,3560.71
356151,3561.51
356233,3562.33
356317,3563.17
356404,3564.04
356489,3564.89
356573,3565.73
356662,3566.62
356753,3567.53
356840,3568.4
356926,3569.26
357010,3570.1
357091,3570.91
357176,3571.76
357265,3572.65
357359,3573.59
357452,3574.52
357539,3575.39
357622,3576.22
357708,3577.08
357806,3578.06
357903,3579.03
357996,3579.96
358084,3580.84
358163,3581.63
358241,3582.41
358319,3583.19
358395,3583.95
358470,3584.7
358551,3585.51
358636,3586.36
358724,3587.24
358805,3588.05
358884,3588.84
358963,3589.63
359046,3590.46
359131,3591.31
359221,3592.21
359312,3593.12
359399,3593.99
359485,3594.85
359573,3595.73
359664,3596.64
359753,3597.53
359843,3598.43
359933,3599.33
360019,3600.19
360103,3601.03
360187,3601.87
360273,3602.73
360359,3603.59
360443,3604.43
360525,3605.25
360609,3606.09
360695,3606.95
360783,3607.83
360867,3608.67
360952,3609.52
361035,3610.35
361122,3611.22
361212,3612.12
361301,3613.01
361387,3613.87
361468,3614.68
361545,3615.45
361620,3616.2
361700,3617.0
361784,3617.84
361869,3618.69
361956,3619.56
362036,3620.36
362117,3621.17
362207,3622.07
362298,3622.98
362381,3623.81
362461,3624.61
362544,3625.44
362630,3626.3
362715,3627.15
362802,3628.02
362895,3628.95
362991,3629.91
363086,3630.86
363183,3631.83
363280,3632.8
363377,3633.77
363474,3634.74
363570,3635.7
363663,3636.63
363755,3637.55
363846,3638.46
363934,3639.34
364022,3640.22
364109,3641.09
364194,3641.94
364286,3642.86
364377,3643.77
364468,3644.68
364560,3645.6
364650,3646.5
364749,3647.49
364854,3648.54
364953,3649.53
365043,3650.43
365123,3651.23
365202,3652.02
365277,3652.77
365355,3653.55
365432,3654.32
365512,3655.12
365590,3655.9
365666,3656.66
365745,3657.45
365832,3658.32
365920,3659.2
366006,3660.06
366087,3660.87
366165,3661.65
366246,3662.46
366326,3663.26
366408,3664.08
366495,3664.95
366588,3665.88
366683,3666.83
366779,3667.79
366873,3668.73
366965,3669.65
367056,3670.56
367141,3671.41
367225,3672.25
367307,3673.07
367391,3673.91
367475,3674.75
367560,3675.6
367644,3676.44
367727,3677.27
367808,3678.08
367889,3678.89
367972,3679.72
368060,3680.6
368149,3681.49
368240,3682.4
368333,3683.33
368435,3684.35
368535,3685.35
368635,3686.35
368724,3687.24
368803,3688.03
368885,3688.85
368964,3689.64
369040,3690.4
369117,3691.17
369219,3692.19
369315,3693.15
369407,3694.07
369490,3694.9
369570,3695.7
369651,3696.51
369734,3697.34
369817,3698.17
369902,3699.02
369984,3699.84
370073,3700.73
370167,3701.67
370258,3702.58
370350,3703.5
370441,3704.41
370530,3705.3
370619,3706.19
370708,3707.08
370802,3708.02
370897,3708.97
370991,3709.91
371082,3710.82
371170,3711.7
371255,3712.55
371344,3713.44
371436,3714.36
371523,3715.23
371607,3716.07
371690,3716.9
371775,3717.75
371879,3718.79
371983,3719.83
372079,3720.79
372164,3721.64
372244,3722.44
372322,3723.22
372397,3723.97
372469,3724.69
372548,3725.48
372638,3726.38
372723,3727.23
372807,3728.07
372883,3728.83
372957,3729.57
373030,3730.3
373106,3731.06
373189,3731.89
373274,3732.74
373355,3733.55
373438,3734.38
373523,3735.23
373608,3736.08
373693,3736.93
373779,3737.79
373863,3738.63
373946,3739.46
374031,3740.31
374116,3741.16
374201,3742.01
374288,3742.88
374376,3743.76
374459,3744.59
374541,3745.41
374622,3746.22
374704,3747.04
374787,3747.87
374874,3748.74
374962,3749.62
375049,3750.49
375135,3751.35
375222,3752.22
375318,3753.18
375414,3754.14
375501,3755.01
375580,3755.8
375656,3756.56
375733,3757.33
375809,3758.09
375882,3758.82
375960,3759.6
376041,3760.41
376126,3761.26
376211,3762.11
376286,3762.86
376361,3763.61
376436,3764.36
376518,3765.18
376603,3766.03
376689,3766.89
376773,3767.73
376863,3768.63
376956,3769.56
377051,3770.51
377145,3771.45
377238,3772.38
377330,3773.3
377420,3774.2
377506,3775.06
377591,3775.91
377676,3776.76
377759,3777.59
377839,3778.39
377919,3779.19
378000,3780.0
378083,3780.83
378169,3781.69
378253,3782.53
378338,3783.38
378422,3784.22
378504,3785.04
378593,3785.93
378683,3786.83
378764,3787.64
378845,3788.45
378924,3789.24
379001,3790.01
379075,3790.75
379149,3791.49
379223,3792.23
379295,3792.95
379368,3793.68
379440,3794.4
379508,3795.08
379577,3795.77
379647,3796.47
379717,3797.17
379787,3797.87
379856,3798.56
379928,3799.28
380005,3800.05
380093,3800.93
380182,3801.82
380266,3802.66
380352,3803.52
380441,3804.41
380532,3805.32
380623,3806.23
380714,3807.14
380803,3808.03
380888,3808.88
380973,3809.73
381058,3810.58
381144,3811.44
381229,3812.29
381314,3813.14
381397,3813.97
381479,3814.79
381560,3815.6
381649,3816.49
381744,3817.44
381837,3818.37
381925,3819.25
382010,3820.1
382094,3820.94
382179,3821.79
382261,3822.61
382340,3823.4
382416,3824.16
382497,3824.97
382579,3825.79
382658,3826.58
382738,3827.38
382816,3828.16
382896,3828.96
382972,3829.72
383045,3830.45
383116,3831.16
383184,3831.84
383251,3832.51
383319,3833.19
383395,3833.95
383480,3834.8
383566,3835.66
383654,3836.54
383740,3837.4
383829,3838.29
383920,3839.2
384012,3840.12
384105,3841.05
384198,3841.98
384287,3842.87
384372,3843.72
384457,3844.57
384542,3845.42
384627,3846.27
384710,3847.1
384790,3847.9
384871,3848.71
384951,3849.51
385037,3850.37
385131,3851.31
385223,3852.23
385313,3853.13
385404,3854.04
385496,3854.96
385590,3855.9
385682,3856.82
385768,3857.68
385850,3858.5
385927,3859.27
386002,3860.02
386079,3860.79
386153,3861.53
386226,3862.26
386310,3863.1
386398,3863.98
386484,3864.84
386567,3865.67
386647,3866.47
386729,3867.29
386811,3868.11
386895,3868.95
386976,3869.76
387059,3870.59
387150,3871.5
387243,3872.43
387335,3873.35
387424,3874.24
387509,3875.09
387596,3875.96
387686,3876.86
387777,3877.77
387870,3878.7
387966,3879.66
388057,3880.57
388148,3881.48
388238,3882.38
388328,3883.28
388417,3884.17
388503,3885.03
388585,3885.85
388665,3886.65
388744,3887.44
388825,3888.25
388906,3889.06
388990,3889.9
389073,3890.73
389158,3891.58
389243,3892.43
389340,3893.4
389441,3894.41
389541,3895.41
389639,3896.39
389732,3897.32
389826,3898.26
389910,3899.1
389984,3899.84
390059,3900.59
390147,3901.47
390230,3902.3
390307,3903.07
390380,3903.8
390456,3904.56
390531,3905.31
390605,3906.05
390674,3906.74
390744,3907.44
390815,3908.15
390902,3909.02
390986,3909.86
391076,3910.76
391166,3911.66
391256,3912.56
391344,3913.44
391435,3914.35
391527,3915.27
391621,3916.21
391711,3917.11
391799,3917.99
391889,3918.89
391977,3919.77
392064,3920.64
392150,3921.5
392235,3922.35
392320,3923.2
392404,3924.04
392487,3924.87
392572,3925.72
392654,3926.54
392735,3927.35
392815,3928.15
392896,3928.96
392980,3929.8
393066,3930.66
393154,3931.54
393239,3932.39
393321,3933.21
393404,3934.04
393498,3934.98
393592,3935.92
393678,3936.78
393758,3937.58
393833,3938.33
393909,3939.09
393987,3939.87
394064,3940.64
394142,3941.42
394224,3942.24
394309,3943.09
394398,3943.98
394482,3944.82
394565,3945.65
394652,3946.52
394742,3947.42
394833,3948.33
394923,3949.23
395007,3950.07
395095,3950.95
395186,3951.86
395277,3952.77
395368,3953.68
395454,3954.54
395541,3955.41
395629,3956.29
395721,3957.21
395811,3958.11
395898,3958.98
395984,3959.84
396073,3960.73
396162,3961.62
396248,3962.48
396333,3963.33
396418,3964.18
396509,3965.09
396611,3966.11
396714,3967.14
396807,3968.07
396896,3968.96
396985,3969.85
397081,3970.81
397178,3971.78
397261,3972.61
397340,3973.4
397417,3974.17
397491,3974.91
397567,3975.67
397644,3976.44
397719,3977.19
397788,3977.88
397859,3978.59
397928,3979.28
398015,3980.15
398098,3980.98
398188,3981.88
398272,3982.72
398357,3983.57
398438,3984.38
398519,3985.19
398601,3986.01
398686,3986.86
398773,3987.73
398862,3988.62
398952,3989.52
399038,3990.38
399125,3991.25
399211,3992.11
399296,3992.96
399379,3993.79
399462,3994.62
399544,3995.44
399627,3996.27
399708,3997.08
399789,3997.89
399868,3998.68
399945,3999.45
400023,4000.23
400101,4001.01
400180,4001.8
400259,4002.59
400340,4003.4
400421,4004.21
400506,4005.06
400598,4005.98
400696,4006.96
400793,4007.93
400885,4008.85
400980,4009.8
401081,4010.81
401182,4011.82
401277,4012.77
401360,4013.6
401440,4014.4
401521,4015.21
401598,4015.98
401672,4016.72
401768,4017.68
401863,4018.63
401951,4019.51
402031,4020.31
402113,4021.13
402196,4021.96
402279,4022.79
402361,4023.61
402441,4024.41
402526,4025.26
402616,4026.16
402706,4027.06
402795,4027.95
402880,4028.8
402964,4029.64
403053,4030.53
403147,4031.47
403241,4032.41
403333,4033.33
403427,4034.27
403520,4035.2
403608,4036.08
403692,4036.92
403774,4037.74
403854,4038.54
403935,4039.35
404018,4040.18
404101,4041.01
404186,4041.86
404273,4042.73
404363,4043.63
404452,4044.52
404543,4045.43
404638,4046.38
404731,4047.31
404822,4048.22
404915,4049.15
405016,4050.16
405117,4051.17
405203,4052.03
405281,4052.81
405358,4053.58
405434,4054.34
405507,4055.07
405577,4055.77
405669,4056.69
405764,4057.64
405853,4058.53
405941,4059.41
406025,4060.25
406107,4061.07
406183,4061.83
406258,4062.58
406336,4063.36
406419,4064.19
406506,4065.06
406596,4065.96
406682,4066.82
406768,4067.68
406857,4068.57
406950,4069.5
407044,4070.44
407138,4071.38
407228,4072.28
407316,4073.16
407401,4074.01
407483,4074.83
407565,4075.65
407647,4076.47
407730,4077.3
407815,4078.15
407905,4079.05
407993,4079.93
408077,4080.77
408161,4081.61
408245,4082.45
408337,4083.37
408430,4084.3
408518,4085.18
408602,4086.02
408688,4086.88
408765,4087.65
408839,4088.39
408916,4089.16
408994,4089.94
409072,4090.72
409147,4091.47
409229,4092.29
409312,4093.12
409388,4093.88
409463,4094.63
409539,4095.39
409615,4096.15
409692,4096.92
409768,4097.68
409844,4098.44
409928,4099.28
410016,4100.16
410107,4101.07
410200,4102.0
410289,4102.89
410374,4103.74
410460,4104.6
410549,4105.49
410637,4106.37
410723,4107.23
410807,4108.07
410892,4108.92
410975,4109.75
411060,4110.6
411144,4111.44
411231,4112.31
411316,4113.16
411400,4114.0
411484,4114.84
411567,4115.67
411656,4116.56
411745,4117.45
411838,4118.38
411929,4119.29
412018,4120.18
412112,4121.12
412213,4122.13
412311,4123.11
412407,4124.07
412493,4124.93
412575,4125.75
412653,4126.53
412725,4127.25
412801,4128.01
412884,4128.84
412974,4129.74
413056,4130.56
413133,4131.33
413213,4132.13
413292,4132.92
413372,4133.72
413449,4134.49
413529,4135.29
413617,4136.17
413706,4137.06
413801,4138.01
413898,4138.98
413992,4139.92
414085,4140.85
414179,4141.79
414270,4142.7
414361,4143.61
414452,4144.52
414538,4145.38
414624,4146.24
414710,4147.1
414800,4148.0
414889,4148.89
414979,4149.79
415067,4150.67
415150,4151.5
415233,4152.33
415312,4153.12
415397,4153.97
415482,4154.82
415567,4155.67
415649,4156.49
415730,4157.3
415811,4158.11
415897,4158.97
415986,4159.86
416072,4160.72
416154,4161.54
416230,4162.3
416306,4163.06
416381,4163.81
416455,4164.55
416530,4165.3
416614,4166.14
416706,4167.06
416792,4167.92
416874,4168.74
416955,4169.55
417036,4170.36
417118,4171.18
417197,4171.97
417276,4172.76
417362,4173.62
417449,4174.49
417535,4175.35
417624,4176.24
417711,4177.11
417798,4177.98
417887,4178.87
417976,4179.76
418068,4180.68
418160,4181.6
418248,4182.48
418335,4183.35
418422,4184.22
418514,4185.14
418606,4186.06
418692,4186.92
418775,4187.75
418858,4188.58
418945,4189.45
419034,4190.34
419120,4191.2
419205,4192.05
419294,4192.94
419383,4193.83
419487,4194.87
419592,4195.92
419686,4196.86
419767,4197.67
419847,4198.47
419924,4199.24
420000,4200.0
420074,4200.74
420144,4201.44
420223,4202.23
420312,4203.12
420394,4203.94
420472,4204.72
420549,4205.49
420633,4206.33
420719,4207.19
420808,4208.08
420896,4208.96
420984,4209.84
421078,4210.78
421176,4211.76
421269,4212.69
421363,4213.63
421456,4214.56
421549,4215.49
421641,4216.41
421731,4217.31
421817,4218.17
421903,4219.03
421991,4219.91
422079,4220.79
422166,4221.66
422249,4222.49
422330,4223.3
422410,4224.1
422491,4224.91
422576,4225.76
422663,4226.63
422751,4227.51
422840,4228.4
422929,4229.29
423026,4230.26
423122,4231.22
423217,4232.17
423320,4233.2
423410,4234.1
423495,4234.95
423572,4235.72
423645,4236.45
423720,4237.2
423799,4237.99
423896,4238.96
423984,4239.84
424063,4240.63
424145,4241.45
424226,4242.26
424306,4243.06
424385,4243.85
424468,4244.68
424557,4245.57
424647,4246.47
424731,4247.31
424815,4248.15
424903,4249.03
424998,4249.98
425095,4250.95
425194,4251.94
425288,4252.88
425380,4253.8
425472,4254.72
425563,4255.63
425653,4256.53
425740,4257.4
425823,4258.23
425904,4259.04
425985,4259.85
426068,4260.68
426151,4261.51
426234,4262.34
426314,4263.14
426396,4263.96
426477,4264.77
426567,4265.67
426663,4266.63
426756,4267.56
426845,4268.45
426938,4269.38
427037,4270.37
427138,4271.38
427224,4272.24
427302,4273.02
427379,4273.79
427452,4274.52
427520,4275.2
427592,4275.92
427667,4276.67
427738,4277.38
427808,4278.08
427877,4278.77
427954,4279.54
428028,4280.28
428101,4281.01
428170,4281.7
428239,4282.39
428310,4283.1
428381,4283.81
428453,4284.53
428527,4285.27
428598,4285.98
428671,4286.71
428748,4287.48
428828,4288.28
428916,4289.16
429004,4290.04
429092,4290.92
429178,4291.78
429265,4292.65
429352,4293.52
429438,4294.38
429524,4295.24
429610,4296.1
429695,4296.95
429778,4297.78
429859,4298.59
429943,4299.43
430027,4300.27
430111,4301.11
430192,4301.92
430273,4302.73
430352,4303.52
430436,4304.36
430529,4305.29
430627,4306.27
430725,4307.25
430823,4308.23
430922,4309.22
431009,4310.09
431086,4310.86
431160,4311.6
431233,4312.33
431305,4313.05
431380,4313.8
431449,4314.49
431543,4315.43
431637,4316.37
431719,4317.19
431796,4317.96
431878,4318.78
431961,4319.61
432044,4320.44
432127,4321.27
432210,4322.1
432297,4322.97
432383,4323.83
432467,4324.67
432551,4325.51
432636,4326.36
432721,4327.21
432806,4328.06
432892,4328.92
432976,4329.76
433062,4330.62
433150,4331.5
433236,4332.36
433322,4333.22
433409,4334.09
433494,4334.94
433579,4335.79
433669,4336.69
433758,4337.58
433843,4338.43
433931,4339.31
434020,4340.2
434104,4341.04
434185,4341.85
434266,4342.66
434345,4343.45
434427,4344.27
434512,4345.12
434596,4345.96
434676,4346.76
434752,4347.52
434826,4348.26
434914,4349.14
435009,4350.09
435105,4351.05
435187,4351.87
435268,4352.68
435348,4353.48
435428,4354.28
435505,4355.05
435583,4355.83
435664,4356.64
435750,4357.5
435835,4358.35
435920,4359.2
436014,4360.14
436109,4361.09
436198,4361.98
436284,4362.84
436366,4363.66
436448,4364.48
436535,4365.35
436624,4366.24
436714,4367.14
436803,4368.03
436890,4368.9
436975,4369.75
437060,4370.6
437148,4371.48
437235,4372.35
437320,4373.2
437403,4374.03
437487,4374.87
437573,4375.73
437664,4376.64
437747,4377.47
437824,4378.24
437897,4378.97
437970,4379.7
438040,4380.4
438110,4381.1
438183,4381.83
438252,4382.52
438321,4383.21
438390,4383.9
438479,4384.79
438568,4385.68
438649,4386.49
438727,4387.27
438806,4388.06
438890,4388.9
438977,4389.77
439065,4390.65
439155,4391.55
439241,4392.41
439325,4393.25
439411,4394.11
439498,4394.98
439584,4395.84
439669,4396.69
439756,4397.56
439844,4398.44
439932,4399.32
440022,4400.22
440116,4401.16
440206,4402.06
440294,4402.94
440382,4403.82
440472,4404.72
440566,4405.66
440657,4406.57
440745,4407.45
440835,4408.35
440924,4409.24
441021,4410.21
441118,4411.18
441203,4412.03
441280,4412.8
441355,4413.55
441430,4414.3
441508,4415.08
441590,4415.9
441668,4416.68
441744,4417.44
441832,4418.32
441916,4419.16
441996,4419.96
442074,4420.74
442153,4421.53
442234,4422.34
442317,4423.17
442400,4424.0
442479,4424.79
442562,4425.62
442650,4426.5
442739,4427.39
442830,4428.3
442922,4429.22
443014,4430.14
443101,4431.01
443190,4431.9
443281,4432.81
443374,4433.74
443465,4434.65
443551,4435.51
443635,4436.35
443719,4437.19
443805,4438.05
443894,4438.94
443980,4439.8
444063,4440.63
444147,4441.47
444235,4442.35
444334,4443.34
444432,4444.32
444535,4445.35
444636,4446.36
444738,4447.38
444823,4448.23
444900,4449.0
444976,4449.76
445051,4450.51
445121,4451.21
445194,4451.94
445290,4452.9
445387,4453.87
445468,4454.68
445551,4455.51
445637,4456.37
445721,4457.21
445803,4458.03
445885,4458.85
445969,4459.69
446054,4460.54
446139,4461.39
446222,4462.22
446309,4463.09
446400,4464.0
446494,4464.94
446588,4465.88
446678,4466.78
446767,4467.67
446853,4468.53
446942,4469.42
447032,4470.32
447124,4471.24
447217,4472.17
447306,4473.06
447395,4473.95
447484,4474.84
447572,4475.72
447657,4476.57
447740,4477.4
447826,4478.26
447915,4479.15
448007,4480.07
448098,4480.98
448186,4481.86
448272,4482.72
448362,4483.62
448448,4484.48
448529,4485.29
448606,4486.06
448679,4486.79
448753,4487.53
448837,4488.37
448934,4489.34
449032,4490.32
449123,4491.23
449214,4492.14
449311,4493.11
449398,4493.98
449481,4494.81
449564,4495.64
449649,4496.49
449735,4497.35
449820,4498.2
449911,4499.11
450005,4500.05
450100,4501.0
450195,4501.95
450287,4502.87
450381,4503.81
450475,4504.75
450568,4505.68
450661,4506.61
450751,4507.51
450836,4508.36
450925,4509.25
451013,4510.13
451102,4511.02
451186,4511.86
451272,4512.72
451356,4513.56
451449,4514.49
451540,4515.4
451629,4516.29
451719,4517.19
451800,4518.0
451879,4518.79
451953,4519.53
452026,4520.26
452100,4521.0
452184,4521.84
452273,4522.73
452355,4523.55
452436,4524.36
452517,4525.17
452601,4526.01
452688,4526.88
452769,4527.69
452847,4528.47
452927,4529.27
453013,4530.13
453101,4531.01
453188,4531.88
453272,4532.72
453357,4533.57
453446,4534.46
453539,4535.39
453634,4536.34
453722,4537.22
453808,4538.08
453895,4538.95
453983,4539.83
454073,4540.73
454162,4541.62
454247,4542.47
454333,4543.33
454419,4544.19
454503,4545.03
454586,4545.86
454667,4546.67
454748,4547.48
454832,4548.32
454924,4549.24
455017,4550.17
455105,4551.05
455189,4551.89
455269,4552.69
455342,4553.42
455413,4554.13
455482,4554.82
455552,4555.52
455623,4556.23
455693,4556.93
455766,4557.66
455836,4558.36
455930,4559.3
456022,4560.22
456110,4561.1
456195,4561.95
456276,4562.76
456359,4563.59
456442,4564.42
456530,4565.3
456616,4566.16
456699,4566.99
456783,4567.83
456872,4568.72
456963,4569.63
457054,4570.54
457145,4571.45
457232,4572.32
457319,4573.19
457407,4574.07
457498,4574.98
457586,4575.86
457669,4576.69
457751,4577.51
457835,4578.35
457923,4579.23
458016,4580.16
458105,4581.05
458196,4581.96
458282,4582.82
458362,4583.62
458440,4584.4
458513,4585.13
458584,4585.84
458654,4586.54
458743,4587.43
458836,4588.36
458921,4589.21
459003,4590.03
459090,4590.9
459179,4591.79
459268,4592.68
459355,4593.55
459440,4594.4
459527,4595.27
459616,4596.16
459704,4597.04
459789,4597.89
459872,4598.72
459957,4599.57
460048,4600.48
460142,4601.42
460235,4602.35
460324,4603.24
460412,4604.12
460499,4604.99
460588,4605.88
460678,4606.78
460764,4607.64
460849,4608.49
460929,4609.29
461012,4610.12
461096,4610.96
461178,4611.78
461260,4612.6
461342,4613.42
461429,4614.29
461518,4615.18
461606,4616.06
461686,4616.86
461761,4617.61
461836,4618.36
461934,4619.34
462033,4620.33
462130,4621.3
462216,4622.16
462308,4623.08
462396,4623.96
462481,4624.81
462561,4625.61
462640,4626.4
462724,4627.24
462817,4628.17
462914,4629.14
463008,4630.08
463096,4630.96
463191,4631.91
463284,4632.84
463378,4633.78
463474,4634.74
463565,4635.65
463650,4636.5
463738,4637.38
463826,4638.26
463912,4639.12
464000,4640.0
464085,4640.85
464166,4641.66
464245,4642.45
464326,4643.26
464408,4644.08
464493,4644.93
464577,4645.77
464662,4646.62
464746,4647.46
464845,4648.45
464947,4649.47
465048,4650.48
465145,4651.45
465237,4652.37
465322,4653.22
465398,4653.98
465470,4654.7
465543,4655.43
465619,4656.19
465693,4656.93
465765,4657.65
465835,4658.35
465937,4659.37
466032,4660.32
466124,4661.24
466212,4662.12
466299,4662.99
466391,4663.91
466482,4664.82
466573,4665.73
466660,4666.6
466751,4667.51
466844,4668.44
466936,4669.36
467030,4670.3
467124,4671.24
467220,4672.2
467312,4673.12
467401,4674.01
467490,4674.9
467576,4675.76
467660,4676.6
467744,4677.44
467826,4678.26
467909,4679.09
467995,4679.95
468079,4680.79
468166,4681.66
468254,4682.54
468348,4683.48
468445,4684.45
468539,4685.39
468632,4686.32
468715,4687.15
468795,4687.95
468871,4688.71
468944,4689.44
469019,4690.19
469102,4691.02
469189,4691.89
469273,4692.73
469352,4693.52
469425,4694.25
469496,4694.96
469569,4695.69
469653,4696.53
469742,4697.42
469826,4698.26
469911,4699.11
470009,4700.09
470110,4701.1
470208,4702.08
470302,4703.02
470396,4703.96
470488,4704.88
470584,4705.84
470679,4706.79
470767,4707.67
470851,4708.51
470934,4709.34
471019,4710.19
471105,4711.05
471193,4711.93
471279,4712.79
471363,4713.63
471447,4714.47
471534,4715.34
471628,4716.28
471719,4717.19
471811,4718.11
471905,4719.05
472003,4720.03
472101,4721.01
472190,4721.9
472269,4722.69
472346,4723.46
472420,4724.2
472489,4724.89
472556,4725.56
472647,4726.47
472732,4727.32
472823,4728.23
472915,4729.15
473001,4730.01
473088,4730.88
473172,4731.72
473251,4732.51
473329,4733.29
473414,4734.14
473504,4735.04
473593,4735.93
473679,4736.79
473765,4737.65
473854,4738.54
473943,4739.43
474034,4740.34
474125,4741.25
474217,4742.17
474303,4743.03
474388,4743.88
474473,4744.73
474559,4745.59
474641,4746.41
474723,4747.23
474803,4748.03
474888,4748.88
474974,4749.74
475061,4750.61
475143,4751.43
475222,4752.22
475301,4753.01
475383,4753.83
475470,4754.7
475557,4755.57
475650,4756.5
475744,4757.44
475840,4758.4
475941,4759.41
476029,4760.29
476107,4761.07
476179,4761.79
476250,4762.5
476315,4763.15
476380,4763.8
476447,4764.47
476515,4765.15
476581,4765.81
476648,4766.48
476714,4767.14
476783,4767.83
476852,4768.52
476924,4769.24
476992,4769.92
477061,4770.61
477133,4771.33
477223,4772.23
477313,4773.13
477397,4773.97
477482,4774.82
477570,4775.7
477661,4776.61
477751,4777.51
477840,4778.4
477931,4779.31
478021,4780.21
478112,4781.12
478199,4781.99
478285,4782.85
478371,4783.71
478456,4784.56
478541,4785.41
478626,4786.26
478709,4787.09
478790,4787.9
478873,4788.73
478958,4789.58
479042,4790.42
479124,4791.24
479209,4792.09
479292,4792.92
479375,4793.75
479454,4794.54
479530,4795.3
479604,4796.04
479682,4796.82
479759,4797.59
479836,4798.36
479918,4799.18
479998,4799.98
480076,4800.76
480151,4801.51
480227,4802.27
480307,4803.07
480389,4803.89
480472,4804.72
480556,4805.56
480639,4806.39
480727,4807.27
480818,4808.18
480913,4809.13
481010,4810.1
481102,4811.02
481193,4811.93
481288,4812.88
481379,4813.79
481471,4814.71
481561,4815.61
481650,4816.5
481737,4817.37
481827,4818.27
481917,4819.17
482011,4820.11
482100,4821.0
482188,4821.88
482275,4822.75
482364,4823.64
482452,4824.52
482530,4825.3
482605,4826.05
482677,4826.77
482752,4827.52
482828,4828.28
482908,4829.08
482986,4829.86
483066,4830.66
483151,4831.51
483249,4832.49
483345,4833.45
483441,4834.41
483530,4835.3
483617,4836.17
483705,4837.05
483794,4837.94
483882,4838.82
483975,4839.75
484063,4840.63
484150,4841.5
484239,4842.39
484332,4843.32
484426,4844.26
484516,4845.16
484604,4846.04
484692,4846.92
484781,4847.81
484872,4848.72
484964,4849.64
485048,4850.48
485129,4851.29
485208,4852.08
485289,4852.89
485372,4853.72
485455,4854.55
485537,4855.37
485623,4856.23
485705,4857.05
485787,4857.87
485868,4858.68
485944,4859.44
486018,4860.18
486089,4860.89
486161,4861.61
486244,4862.44
486334,4863.34
486426,4864.26
486510,4865.1
486590,4865.9
486673,4866.73
486755,4867.55
486838,4868.38
486919,4869.19
486997,4869.97
487083,4870.83
487170,4871.7
487256,4872.56
487338,4873.38
487422,4874.22
487509,4875.09
487597,4875.97
487686,4876.86
487778,4877.78
487870,4878.7
487957,4879.57
488044,4880.44
488134,4881.34
488221,4882.21
488311,4883.11
488398,4883.98
488481,4884.81
488564,4885.64
488652,4886.52
488742,4887.42
488828,4888.28
488907,4889.07
488984,4889.84
489059,4890.59
489132,4891.32
489203,4892.03
489271,4892.71
489337,4893.37
489409,4894.09
489484,4894.84
489574,4895.74
489664,4896.64
489745,4897.45
489827,4898.27
489912,4899.12
490000,4900.0
490083,4900.83
490167,4901.67
490256,4902.56
490346,4903.46
490438,4904.38
490530,4905.3
490621,4906.21
490708,4907.08
490799,4907.99
490894,4908.94
490985,4909.85
491073,4910.73
491157,4911.57
491240,4912.4
491323,4913.23
491409,4914.09
491497,4914.97
491582,4915.82
491665,4916.65
491749,4917.49
491836,4918.36
491924,4919.24
492010,4920.1
492101,4921.01
492193,4921.93
492282,4922.82
492371,4923.71
492453,4924.53
492532,4925.32
492606,4926.06
492678,4926.78
492752,4927.52
492822,4928.22
492891,4928.91
492962,4929.62
493033,4930.33
493107,4931.07
493178,4931.78
493252,4932.52
493325,4933.25
493397,4933.97
493465,4934.65
493535,4935.35
493606,4936.06
493696,4936.96
493781,4937.81
493873,4938.73
493965,4939.65
494056,4940.56
494149,4941.49
494243,4942.43
494331,4943.31
494419,4944.19
494508,4945.08
494598,4945.98
494689,4946.89
494776,4947.76
494860,4948.6
494943,4949.43
495030,4950.3
495123,4951.23
495214,4952.14
495298,4952.98
495379,4953.79
495458,4954.58
495538,4955.38
495624,4956.24
495709,4957.09
495793,4957.93
495875,4958.75
495974,4959.74
496073,4960.73
496166,4961.66
496249,4962.49
496329,4963.29
496405,4964.05
496474,4964.74
496540,4965.4
496605,4966.05
496668,4966.68
496731,4967.31
496793,4967.93
496857,4968.57
496923,4969.23
496991,4969.91
497059,4970.59
497126,4971.26
497196,4971.96
497264,4972.64
497337,4973.37
497410,4974.1
497486,4974.86
497559,4975.59
497629,4976.29
497701,4977.01
497773,4977.73
497865,4978.65
497950,4979.5
498033,4980.33
498116,4981.16
498201,4982.01
498285,4982.85
498367,4983.67
498449,4984.49
498533,4985.33
498618,4986.18
498704,4987.04
498789,4987.89
498871,4988.71
498952,4989.52
499032,4990.32
499114,4991.14
499200,4992.0
499286,4992.86
499371,4993.71
499457,4994.57
499539,4995.39
499626,4996.26
499718,4997.18
499808,4998.08
499895,4998.95
499980,4999.8
500069,5000.69
500158,5001.58
500237,5002.37
500311,5003.11
500383,5003.83
500456,5004.56
500530,5005.3
500607,5006.07
500684,5006.84
500762,5007.62
500849,5008.49
500939,5009.39
501029,5010.29
501115,5011.15
501195,5011.95
501276,5012.76
501360,5013.6
501444,5014.44
501525,5015.25
501607,5016.07
501693,5016.93
501782,5017.82
501869,5018.69
501955,5019.55
502038,5020.38
502122,5021.22
502210,5022.1
502298,5022.98
502385,5023.85
502470,5024.7
502555,5025.55
502636,5026.36
502722,5027.22
502812,5028.12
502898,5028.98
502986,5029.86
503068,5030.68
503155,5031.55
503240,5032.4
503324,5033.24
503407,5034.07
503486,5034.86
503562,5035.62
503633,5036.33
503704,5037.04
503770,5037.7
503842,5038.42
503914,5039.14
503994,5039.94
504085,5040.85
504166,5041.66
504251,5042.51
504340,5043.4
504428,5044.28
504511,5045.11
504599,5045.99
504688,5046.88
504782,5047.82
504874,5048.74
504964,5049.64
505055,5050.55
505146,5051.46
505240,5052.4
505333,5053.33
505423,5054.23
505508,5055.08
505594,5055.94
505681,5056.81
505771,5057.71
505859,5058.59
505943,5059.43
506026,5060.26
506112,5061.12
506205,5062.05
506302,5063.02
506392,5063.92
506478,5064.78
506559,5065.59
506644,5066.44
506737,5067.37
506827,5068.27
506912,5069.12
506993,5069.93
507072,5070.72
507147,5071.47
507217,5072.17
507285,5072.85
507353,5073.53
507425,5074.25
507512,5075.12
507608,5076.08
507703,5077.03
507792,5077.92
507884,5078.84
507976,5079.76
508063,5080.63
508146,5081.46
508227,5082.27
508311,5083.11
508398,5083.98
508483,5084.83
508569,5085.69
508657,5086.57
508743,5087.43
508832,5088.32
508920,5089.2
509011,5090.11
509101,5091.01
509194,5091.94
509284,5092.84
509376,5093.76
509459,5094.59
509544,5095.44
509633,5096.33
509720,5097.2
509805,5098.05
509894,5098.94
509990,5099.9
510091,5100.91
510192,5101.92
510281,5102.81
510366,5103.66
510456,5104.56
510548,5105.48
510635,5106.35
510716,5107.16
510792,5107.92
510867,5108.67
510938,5109.38
511006,5110.06
511073,5110.73
511140,5111.4
511213,5112.13
511306,5113.06
511393,5113.93
511475,5114.75
511554,5115.54
511641,5116.41
511725,5117.25
511813,5118.13
511892,5118.92
511970,5119.7
512049,5120.49
512130,5121.3
512210,5122.1
512295,5122.95
512377,5123.77
512462,5124.62
512547,5125.47
512635,5126.35
512718,5127.18
512801,5128.01
512888,5128.88
512977,5129.77
513066,5130.66
513152,5131.52
513238,5132.38
513325,5133.25
513409,5134.09
513491,5134.91
513574,5135.74
513664,5136.64
513753,5137.53
513841,5138.41
513929,5139.29
514014,5140.14
514100,5141.0
514187,5141.87
514275,5142.75
514359,5143.59
514440,5144.4
514526,5145.26
514614,5146.14
514705,5147.05
514789,5147.89
514870,5148.7
514952,5149.52
515036,5150.36
515121,5151.21
515201,5152.01
515281,5152.81
515360,5153.6
515444,5154.44
515532,5155.32
515619,5156.19
515703,5157.03
515786,5157.86
515868,5158.68
515955,5159.55
516044,5160.44
516130,5161.3
516213,5162.13
516293,5162.93
516378,5163.78
516468,5164.68
516555,5165.55
516638,5166.38
516718,5167.18
516804,5168.04
516891,5168.91
516980,5169.8
517063,5170.63
517145,5171.45
517224,5172.24
517303,5173.03
517379,5173.79
517453,5174.53
517525,5175.25
517598,5175.98
517671,5176.71
517747,5177.47
517834,5178.34
517924,5179.24
518009,5180.09
518093,5180.93
518178,5181.78
518268,5182.68
518363,5183.63
518452,5184.52
518536,5185.36
518624,5186.24
518712,5187.12
518799,5187.99
518880,5188.8
518959,5189.59
519037,5190.37
519124,5191.24
519216,5192.16
519304,5193.04
519385,5193.85
519462,5194.62
519536,5195.36
519609,5196.09
519680,5196.8
519748,5197.48
519814,5198.14
519880,5198.8
519946,5199.46
520015,5200.15
520089,5200.89
520157,5201.57
520228,5202.28
520301,5203.01
520391,5203.91
520475,5204.75
520554,5205.54
520631,5206.31
520712,5207.12
520791,5207.91
520876,5208.76
520954,5209.54
521032,5210.32
521108,5211.08
521187,5211.87
521275,5212.75
521354,5213.54
521431,5214.31
521508,5215.08
521592,5215.92
521680,5216.8
521763,5217.63
521842,5218.42
521919,5219.19
522004,5220.04
522090,5220.9
522177,5221.77
522255,5222.55
522330,5223.3
522404,5224.04
522479,5224.79
522560,5225.6
522642,5226.42
522726,5227.26
522811,5228.11
522897,5228.97
522989,5229.89
523078,5230.78
523165,5231.65
523248,5232.48
523331,5233.31
523415,5234.15
523502,5235.02
523587,5235.87
523672,5236.72
523752,5237.52
523836,5238.36
523920,5239.2
524006,5240.06
524091,5240.91
524174,5241.74
524256,5242.56
524342,5243.42
524432,5244.32
524524,5245.24
524618,5246.18
524705,5247.05
524787,5247.87
524867,5248.67
524944,5249.44
525022,5250.22
525103,5251.03
525182,5251.82
525263,5252.63
525342,5253.42
525425,5254.25
525512,5255.12
525599,5255.99
525687,5256.87
525773,5257.73
525855,5258.55
525933,5259.33
526010,5260.1
526088,5260.88
526166,5261.66
526243,5262.43
526322,5263.22
526399,5263.99
526478,5264.78
526564,5265.64
526654,5266.54
526739,5267.39
526823,5268.23
526908,5269.08
526993,5269.93
527080,5270.8
527163,5271.63
527241,5272.41
527318,5273.18
527399,5273.99
527485,5274.85
527573,5275.73
527656,5276.56
527737,5277.37
527817,5278.17
527904,5279.04
527993,5279.93
528080,5280.8
528166,5281.66
528248,5282.48
528337,5283.37
528430,5284.3
528521,5285.21
528602,5286.02
528679,5286.79
528751,5287.51
528822,5288.22
528890,5288.9
528956,5289.56
529021,5290.21
529089,5290.89
529165,5291.65
529260,5292.6
529346,5293.46
529428,5294.28
529506,5295.06
529592,5295.92
529680,5296.8
529759,5297.59
529837,5298.37
529913,5299.13
529997,5299.97
530086,5300.86
530170,5301.7
530252,5302.52
530331,5303.31
530418,5304.18
530507,5305.07
530589,5305.89
530668,5306.68
530744,5307.44
530823,5308.23
530909,5309.09
530993,5309.93
531070,5310.7
531147,5311.47
531224,5312.24
531303,5313.03
531385,5313.85
531463,5314.63
531539,5315.39
531616,5316.16
531692,5316.92
531769,5317.69
531844,5318.44
531918,5319.18
531992,5319.92
532067,5320.67
532147,5321.47
532236,5322.36
532322,5323.22
532405,5324.05
532484,5324.84
532567,5325.67
532652,5326.52
532741,5327.41
532825,5328.25
532909,5329.09
532993,5329.93
533081,5330.81
533170,5331.7
533257,5332.57
533339,5333.39
533423,5334.23
533506,5335.06
533595,5335.95
533683,5336.83
533766,5337.66
533848,5338.48
533932,5339.32
534021,5340.21
534110,5341.1
534194,5341.94
534273,5342.73
534352,5343.52
534435,5344.35
534522,5345.22
534609,5346.09
534689,5346.89
534768,5347.68
534845,5348.45
534926,5349.26
535011,5350.11
535098,5350.98
535184,5351.84
535265,5352.65
535345,5353.45
535429,5354.29
535516,5355.16
535603,5356.03
535688,5356.88
535769,5357.69
535852,5358.52
535937,5359.37
536026,5360.26
536114,5361.14
536197,5361.97
536280,5362.8
536367,5363.67
536459,5364.59
536547,5365.47
536629,5366.29
536709,5367.09
536792,5367.92
536880,5368.8
536969,5369.69
537055,5370.55
537142,5371.42
537227,5372.27
537318,5373.18
537412,5374.12
537504,5375.04
537589,5375.89
537671,5376.71
537755,5377.55
537838,5378.38
537924,5379.24
538011,5380.11
538095,5380.95
538174,5381.74
538252,5382.52
538332,5383.32
538418,5384.18
538502,5385.02
538581,5385.81
538658,5386.58
538736,5387.36
538818,5388.18
538905,5389.05
539000,5390.0
539090,5390.9
539177,5391.77
539265,5392.65
539354,5393.54
539441,5394.41
539523,5395.23
539602,5396.02
539686,5396.86
539771,5397.71
539858,5398.58
539940,5399.4
540020,5400.2
540098,5400.98
540181,5401.81
540268,5402.68
540357,5403.57
540440,5404.4
540519,5405.19
540598,5405.98
540682,5406.82
540768,5407.68
540857,5408.57
540943,5409.43
541027,5410.27
541114,5411.14
541203,5412.03
541295,5412.95
541380,5413.8
541462,5414.62
541540,5415.4
541621,5416.21
541703,5417.03
541788,5417.88
541870,5418.7
541949,5419.49
542029,5420.29
542112,5421.12
542197,5421.97
542279,5422.79
542355,5423.55
542429,5424.29
542503,5425.03
542579,5425.79
542661,5426.61
542747,5427.47
542832,5428.32
542916,5429.16
542998,5429.98
543086,5430.86
543175,5431.75
543266,5432.66
543351,5433.51
543434,5434.34
543513,5435.13
543595,5435.95
543683,5436.83
543769,5437.69
543851,5438.51
543932,5439.32
544014,5440.14
544099,5440.99
544179,5441.79
544253,5442.53
544324,5443.24
544393,5443.93
544460,5444.6
544524,5445.24
544588,5445.88
544651,5446.51
544715,5447.15
544783,5447.83
544855,5448.55
544924,5449.24
544996,5449.96
545067,5450.67
545158,5451.58
545244,5452.44
545333,5453.33
545423,5454.23
545500,5455.0
545578,5455.78
545666,5456.66
545749,5457.49
545838,5458.38
545917,5459.17
545994,5459.94
546073,5460.73
546160,5461.6
546247,5462.47
546327,5463.27
546411,5464.11
546497,5464.97
546586,5465.86
546668,5466.68
546746,5467.46
546823,5468.23
546902,5469.02
546983,5469.83
547058,5470.58
547133,5471.33
547211,5472.11
547291,5472.91
547371,5473.71
547448,5474.48
547522,5475.22
547594,5475.94
547668,5476.68
547743,5477.43
547827,5478.27
547911,5479.11
547988,5479.88
548064,5480.64
548143,5481.43
548226,5482.26
548314,5483.14
548403,5484.03
548489,5484.89
548570,5485.7
548651,5486.51
548734,5487.34
548819,5488.19
548907,5489.07
548992,5489.92
549075,5490.75
549155,5491.55
549237,5492.37
549317,5493.17
549401,5494.01
549488,5494.88
549570,5495.7
549650,5496.5
549734,5497.34
549820,5498.2
549905,5499.05
549988,5499.88
550066,5500.66
550142,5501.42
550219,5502.19
550300,5503.0
550386,5503.86
550469,5504.69
550550,5505.5
550632,5506.32
550719,5507.19
550809,5508.09
550902,5509.02
550992,5509.92
551078,5510.78
551161,5511.61
551243,5512.43
551327,5513.27
551415,5514.15
551498,5514.98
551579,5515.79
551656,5516.56
551739,5517.39
551824,5518.24
551910,5519.1
551991,5519.91
552069,5520.69
552147,5521.47
552228,5522.28
552306,5523.06
552379,5523.79
552451,5524.51
552525,5525.25
552598,5525.98
552665,5526.65
552731,5527.31
552797,5527.97
552862,5528.62
552925,5529.25
552987,5529.87
553050,5530.5
553112,5531.12
553174,5531.74
553236,5532.36
553298,5532.98
553360,5533.6
553421,5534.21
553481,5534.81
553543,5535.43
553606,5536.06
553672,5536.72
553737,5537.37
553802,5538.02
553868,5538.68
553934,5539.34
554003,5540.03
554073,5540.73
554150,5541.5
554244,5542.44
554328,5543.28
554412,5544.12
554496,5544.96
554589,5545.89
554687,5546.87
554783,5547.83
554877,5548.77
554971,5549.71
555065,5550.65
555157,5551.57
555241,5552.41
555319,5553.19
555396,5553.96
555484,5554.84
555579,5555.79
555676,5556.76
555766,5557.66
555857,5558.57
555945,5559.45
556028,5560.28
556108,5561.08
556190,5561.9
556281,5562.81
556378,5563.78
556474,5564.74
556568,5565.68
556667,5566.67
556767,5567.67
556863,5568.63
556958,5569.58
557053,5570.53
557146,5571.46
557233,5572.33
557317,5573.17
557400,5574.0
557487,5574.87
557576,5575.76
557664,5576.64
557752,5577.52
557837,5578.37
557932,5579.32
558032,5580.32
558128,5581.28
558216,5582.16
558299,5582.99
558383,5583.83
558466,5584.66
558548,5585.48
558630,5586.3
558710,5587.1
558794,5587.94
558878,5588.78
558960,5589.6
559044,5590.44
559131,5591.31
559226,5592.26
559320,5593.2
559406,5594.06
559494,5594.94
559584,5595.84
559674,5596.74
559756,5597.56
559836,5598.36
559919,5599.19
560004,5600.04
560093,5600.93
560176,5601.76
560257,5602.57
560339,5603.39
560429,5604.29
560520,5605.2
560600,5606.0
560681,5606.81
560763,5607.63
560850,5608.5
560934,5609.34
561014,5610.14
561088,5610.88
561167,5611.67
561252,5612.52
561334,5613.34
561413,5614.13
561490,5614.9
561569,5615.69
561653,5616.53
561734,5617.34
561814,5618.14
561894,5618.94
561980,5619.8
562070,5620.7
562163,5621.63
562256,5622.56
562343,5623.43
562431,5624.31
562521,5625.21
562608,5626.08
562693,5626.93
562775,5627.75
562857,5628.57
562940,5629.4
563026,5630.26
563112,5631.12
563198,5631.98
563279,5632.79
563357,5633.57
563435,5634.35
563514,5635.14
563597,5635.97
563680,5636.8
563763,5637.63
563845,5638.45
563931,5639.31
564030,5640.3
564129,5641.29
564224,5642.24
564311,5643.11
564400,5644.0
564491,5644.91
564572,5645.72
564649,5646.49
564721,5647.21
564794,5647.94
564867,5648.67
564944,5649.44
565016,5650.16
565090,5650.9
565161,5651.61
565260,5652.6
565359,5653.59
565446,5654.46
565529,5655.29
565611,5656.11
565694,5656.94
565780,5657.8
565868,5658.68
565951,5659.51
566033,5660.33
566114,5661.14
566197,5661.97
566282,5662.82
566369,5663.69
566455,5664.55
566538,5665.38
566618,5666.18
566698,5666.98
566782,5667.82
566870,5668.7
566958,5669.58
567043,5670.43
567124,5671.24
567206,5672.06
567288,5672.88
567370,5673.7
567448,5674.48
567523,5675.23
567599,5675.99
567679,5676.79
567768,5677.68
567858,5678.58
567944,5679.44
568027,5680.27
568114,5681.14
568206,5682.06
568299,5682.99
568382,5683.82
568466,5684.66
568556,5685.56
568646,5686.46
568727,5687.27
568806,5688.06
568885,5688.85
568960,5689.6
569031,5690.31
569098,5690.98
569164,5691.64
569229,5692.29
569294,5692.94
569358,5693.58
569422,5694.22
569487,5694.87
569554,5695.54
569621,5696.21
569688,5696.88
569758,5697.58
569828,5698.28
569897,5698.97
569967,5699.67
570043,5700.43
570137,5701.37
570230,5702.3
570322,5703.22
570412,5704.12
570497,5704.97
570580,5705.8
570665,5706.65
570754,5707.54
570843,5708.43
570933,5709.33
571017,5710.17
571098,5710.98
571177,5711.77
571261,5712.61
571347,5713.47
571431,5714.31
571510,5715.1
571589,5715.89
571671,5716.71
571775,5717.75
571876,5718.76
571968,5719.68
572050,5720.5
572123,5721.23
572193,5721.93
572263,5722.63
572336,5723.36
572405,5724.05
572483,5724.83
572563,5725.63
572662,5726.62
572754,5727.54
572838,5728.38
572921,5729.21
573006,5730.06
573091,5730.91
573174,5731.74
573255,5732.55
573339,5733.39
573430,5734.3
573521,5735.21
573612,5736.12
573701,5737.01
573791,5737.91
573875,5738.75
573956,5739.56
574042,5740.42
574130,5741.3
574223,5742.23
574316,5743.16
574403,5744.03
574486,5744.86
574576,5745.76
574670,5746.7
574761,5747.61
574854,5748.54
574950,5749.5
575056,5750.56
575152,5751.52
575234,5752.34
575308,5753.08
575379,5753.79
575447,5754.47
575513,5755.13
575579,5755.79
575648,5756.48
575719,5757.19
575788,5757.88
575858,5758.58
575928,5759.28
576032,5760.32
576126,5761.26
576208,5762.08
576289,5762.89
576370,5763.7
576452,5764.52
576535,5765.35
576621,5766.21
576700,5767.0
576779,5767.79
576861,5768.61
576947,5769.47
577034,5770.34
577120,5771.2
577205,5772.05
577287,5772.87
577368,5773.68
577444,5774.44
577523,5775.23
577601,5776.01
577681,5776.81
577760,5777.6
577841,5778.41
577921,5779.21
578006,5780.06
578105,5781.05
578205,5782.05
578292,5782.92
578379,5783.79
578483,5784.83
578600,5786.0
578712,5787.12
578816,5788.16
578900,5789.0
578975,5789.75
579044,5790.44
579109,5791.09
579177,5791.77
579243,5792.43
579313,5793.13
579385,5793.85
579455,5794.55
579525,5795.25
579594,5795.94
579697,5796.97
579788,5797.88
579876,5798.76
579958,5799.58
580041,5800.41
580124,5801.24
580207,5802.07
580290,5802.9
580374,5803.74
580456,5804.56
580537,5805.37
580622,5806.22
580710,5807.1
580800,5808.0
580892,5808.92
580984,5809.84
581072,5810.72
581156,5811.56
581233,5812.33
581311,5813.11
581389,5813.89
581463,5814.63
581539,5815.39
581616,5816.16
581696,5816.96
581800,5818.0
581900,5819.0
581992,5819.92
582083,5820.83
582176,5821.76
582280,5822.8
582386,5823.86
582492,5824.92
582603,5826.03
582724,5827.24
582837,5828.37
582941,5829.41
583020,5830.2
583090,5830.9
583155,5831.55
583219,5832.19
583284,5832.84
583357,5833.57
583425,5834.25
583494,5834.94
583563,5835.63
583632,5836.32
583700,5837.0
583767,5837.67
583832,5838.32
583901,5839.01
583971,5839.71
584043,5840.43
584116,5841.16
584212,5842.12
584308,5843.08
584393,5843.93
584479,5844.79
584568,5845.68
584658,5846.58
584747,5847.47
584838,5848.38
584928,5849.28
585017,5850.17
585104,5851.04
585192,5851.92
585280,5852.8
585364,5853.64
585443,5854.43
585521,5855.21
585598,5855.98
585675,5856.75
585755,5857.55
585838,5858.38
585915,5859.15
585993,5859.93
586069,5860.69
586148,5861.48
586233,5862.33
586315,5863.15
586396,5863.96
586480,5864.8
586592,5865.92
586698,5866.98
586800,5868.0
586897,5868.97
586982,5869.82
587056,5870.56
587123,5871.23
587191,5871.91
587263,5872.63
587332,5873.32
587404,5874.04
587472,5874.72
587547,5875.47
587622,5876.22
587695,5876.95
587764,5877.64
587835,5878.35
587909,5879.09
588009,5880.09
588105,5881.05
588191,5881.91
588275,5882.75
588364,5883.64
588454,5884.54
588544,5885.44
588635,5886.35
588725,5887.25
588810,5888.1
588892,5888.92
588975,5889.75
589059,5890.59
589146,5891.46
589233,5892.33
589318,5893.18
589400,5894.0
589481,5894.81
589564,5895.64
589644,5896.44
589722,5897.22
589798,5897.98
589878,5898.78
589963,5899.63
590054,5900.54
590161,5901.61
590268,5902.68
590352,5903.52
590437,5904.37
590528,5905.28
590619,5906.19
590699,5906.99
590772,5907.72
590843,5908.43
590912,5909.12
590978,5909.78
591043,5910.43
591109,5911.09
591164,5911.64
591219,5912.19
591312,5913.12
591396,5913.96
591471,5914.71
591541,5915.41
591611,5916.11
591681,5916.81
591753,5917.53
591822,5918.22
591919,5919.19
592013,5920.13
592104,5921.04
592196,5921.96
592286,5922.86
592376,5923.76
592465,5924.65
592552,5925.52
592639,5926.39
592727,5927.27
592813,5928.13
592897,5928.97
592981,5929.81
593061,5930.61
593136,5931.36
593208,5932.08
593281,5932.81
593358,5933.58
593442,5934.42
593522,5935.22
593606,5936.06
593693,5936.93
593798,5937.98
593906,5939.06
594011,5940.11
594119,5941.19
594228,5942.28
594333,5943.33
594431,5944.31
594532,5945.32
594654,5946.54
594769,5947.69
594894,5948.94
595008,5950.08
595122,5951.22
595203,5952.03
595280,5952.8
595377,5953.77
595457,5954.57
595548,5955.48
595617,5956.17
595682,5956.82
595746,5957.46
595808,5958.08
595871,5958.71
595935,5959.35
596000,5960.0
596065,5960.65
596129,5961.29
596195,5961.95
596260,5962.6
596325,5963.25
596393,5963.93
596467,5964.67
596545,5965.45
596643,5966.43
596742,5967.42
596832,5968.32
596920,5969.2
597006,5970.06
597089,5970.89
597172,5971.72
597255,5972.55
597337,5973.37
597419,5974.19
597501,5975.01
597585,5975.85
597670,5976.7
597756,5977.56
597844,5978.44
597932,5979.32
598016,5980.16
598099,5980.99
598182,5981.82
598265,5982.65
598349,5983.49
598436,5984.36
598525,5985.25
598611,5986.11
598697,5986.97
598780,5987.8
598865,5988.65
598953,5989.53
599041,5990.41
599129,5991.29
599219,5992.19
599322,5993.22
599425,5994.25
599522,5995.22
599619,5996.19
599704,5997.04
599781,5997.81
599852,5998.52
599921,5999.21
599986,5999.86
600053,6000.53
600125,6001.25
600193,6001.93
600265,6002.65
600333,6003.33
600404,6004.04
600476,6004.76
600549,6005.49
600621,6006.21
600692,6006.92
600764,6007.64
600842,6008.42
600937,6009.37
601032,6010.32
601118,6011.18
601201,6012.01
601287,6012.87
601374,6013.74
601461,6014.61
601548,6015.48
601635,6016.35
601722,6017.22
601807,6018.07
601890,6018.9
601972,6019.72
602052,6020.52
602133,6021.33
602213,6022.13
602294,6022.94
602374,6023.74
602453,6024.53
602528,6025.28
602603,6026.03
602686,6026.86
602771,6027.71
602856,6028.56
602935,6029.35
603016,6030.16
603095,6030.95
603175,6031.75
603258,6032.58
603333,6033.33
603405,6034.05
603477,6034.77
603547,6035.47
603613,6036.13
603680,6036.8
603748,6037.48
603816,6038.16
603884,6038.84
603952,6039.52
604020,6040.2
604091,6040.91
604184,6041.84
604276,6042.76
604363,6043.63
604446,6044.46
604528,6045.28
604611,6046.11
604695,6046.95
604779,6047.79
604865,6048.65
604951,6049.51
605034,6050.34
605116,6051.16
605198,6051.98
605278,6052.78
605358,6053.58
605439,6054.39
605524,6055.24
605606,6056.06
605687,6056.87
605766,6057.66
605846,6058.46
605927,6059.27
606007,6060.07
606086,6060.86
606163,6061.63
606238,6062.38
606318,6063.18
606398,6063.98
606473,6064.73
606545,6065.45
606612,6066.12
606681,6066.81
606752,6067.52
606825,6068.25
606894,6068.94
606967,6069.67
607037,6070.37
607108,6071.08
607180,6071.8
607249,6072.49
607319,6073.19
607388,6073.88
607466,6074.66
607559,6075.59
607645,6076.45
607726,6077.26
607806,6078.06
607886,6078.86
607969,6079.69
608048,6080.48
608124,6081.24
608201,6082.01
608279,6082.79
608360,6083.6
608443,6084.43
608522,6085.22
608598,6085.98
608674,6086.74
608756,6087.56
608843,6088.43
608929,6089.29
609005,6090.05
609080,6090.8
609150,6091.5
609218,6092.18
609290,6092.9
609361,6093.61
609431,6094.31
609500,6095.0
609572,6095.72
609645,6096.45
609720,6097.2
609788,6097.88
609860,6098.6
609936,6099.36
610033,6100.33
610123,6101.23
610206,6102.06
610290,6102.9
610373,6103.73
610457,6104.57
610541,6105.41
610619,6106.19
610695,6106.95
610770,6107.7
610847,6108.47
610931,6109.31
611016,6110.16
611094,6110.94
611171,6111.71
611246,6112.46
611326,6113.26
611412,6114.12
611499,6114.99
611577,6115.77
611651,6116.51
611721,6117.21
611789,6117.89
611856,6118.56
611920,6119.2
611987,6119.87
612053,6120.53
612126,6121.26
612214,6122.14
612302,6123.02
612377,6123.77
612450,6124.5
612525,6125.25
612601,6126.01
612676,6126.76
612745,6127.45
612814,6128.14
612889,6128.89
612984,6129.84
613073,6130.73
613153,6131.53
613233,6132.33
613316,6133.16
613402,6134.02
613486,6134.86
613563,6135.63
613637,6136.37
613709,6137.09
613776,6137.76
613840,6138.4
613904,6139.04
613967,6139.67
614033,6140.33
614103,6141.03
614177,6141.77
614244,6142.44
614313,6143.13
614382,6143.82
614452,6144.52
614527,6145.27
614604,6146.04
614672,6146.72
614744,6147.44
614816,6148.16
614895,6148.95
614988,6149.88
615073,6150.73
615153,6151.53
615231,6152.31
615312,6153.12
615395,6153.95
615479,6154.79
615564,6155.64
615645,6156.45
615722,6157.22
615796,6157.96
615874,6158.74
615952,6159.52
616031,6160.31
616105,6161.05
616178,6161.78
616245,6162.45
616311,6163.11
616378,6163.78
616452,6164.52
616527,6165.27
616598,6165.98
616668,6166.68
616767,6167.67
616866,6168.66
616963,6169.63
617058,6170.58
617144,6171.44
617224,6172.24
617306,6173.06
617378,6173.78
617445,6174.45
617509,6175.09
617574,6175.74
617641,6176.41
617707,6177.07
617773,6177.73
617839,6178.39
617906,6179.06
617972,6179.72
618037,6180.37
618103,6181.03
618170,6181.7
618241,6182.41
618317,6183.17
618397,6183.97
618490,6184.9
618573,6185.73
618657,6186.57
618737,6187.37
618818,6188.18
618899,6188.99
618976,6189.76
619055,6190.55
619136,6191.36
619221,6192.21
619305,6193.05
619391,6193.91
619473,6194.73
619552,6195.52
619631,6196.31
619711,6197.11
619795,6197.95
619879,6198.79
619966,6199.66
620051,6200.51
620145,6201.45
620246,6202.46
620342,6203.42
620433,6204.33
620519,6205.19
620603,6206.03
620678,6206.78
620749,6207.49
620816,6208.16
620884,6208.84
620958,6209.58
621048,6210.48
621139,6211.39
621226,6212.26
621306,6213.06
621385,6213.85
621462,6214.62
621534,6215.34
621603,6216.03
621671,6216.71
621742,6217.42
621822,6218.22
621918,6219.18
622014,6220.14
622102,6221.02
622195,6221.95
622290,6222.9
622382,6223.82
622473,6224.73
622558,6225.58
622643,6226.43
622728,6227.28
622815,6228.15
622901,6229.01
622988,6229.88
623071,6230.71
623150,6231.5
623230,6232.3
623311,6233.11
623391,6233.91
623471,6234.71
623551,6235.51
623634,6236.34
623719,6237.19
623808,6238.08
623896,6238.96
623974,6239.74
624053,6240.53
624132,6241.32
624215,6242.15
624301,6243.01
624379,6243.79
624457,6244.57
624532,6245.32
624608,6246.08
624694,6246.94
624773,6247.73
624850,6248.5
624924,6249.24
624998,6249.98
625068,6250.68
625135,6251.35
625202,6252.02
625269,6252.69
625338,6253.38
625427,6254.27
625514,6255.14
625598,6255.98
625679,6256.79
625763,6257.63
625849,6258.49
625936,6259.36
626020,6260.2
626100,6261.0
626177,6261.77
626256,6262.56
626338,6263.38
626423,6264.23
626502,6265.02
626579,6265.79
626656,6266.56
626741,6267.41
626828,6268.28
626916,6269.16
626995,6269.95
627071,6270.71
627144,6271.44
627219,6272.19
627305,6273.05
627393,6273.93
627476,6274.76
627556,6275.56
627636,6276.36
627725,6277.25
627810,6278.1
627898,6278.98
627978,6279.78
628057,6280.57
628134,6281.34
628204,6282.04
628271,6282.71
628336,6283.36
628402,6284.02
628468,6284.68
628532,6285.32
628599,6285.99
628665,6286.65
628749,6287.49
628829,6288.29
628914,6289.14
628999,6289.99
629079,6290.79
629158,6291.58
629237,6292.37
629315,6293.15
629389,6293.89
629462,6294.62
629536,6295.36
629612,6296.12
629699,6296.99
629783,6297.83
629862,6298.62
629938,6299.38
630017,6300.17
630096,6300.96
630176,6301.76
630253,6302.53
630328,6303.28
630399,6303.99
630467,6304.67
630537,6305.37
630609,6306.09
630684,6306.84
630757,6307.57
630828,6308.28
630897,6308.97
630974,6309.74
631069,6310.69
631157,6311.57
631240,6312.4
631319,6313.19
631404,6314.04
631489,6314.89
631568,6315.68
631645,6316.45
631721,6317.21
631806,6318.06
631896,6318.96
631983,6319.83
632065,6320.65
632144,6321.44
632230,6322.3
632321,6323.21
632409,6324.09
632490,6324.9
632567,6325.67
632644,6326.44
632719,6327.19
632784,6327.84
632849,6328.49
632913,6329.13
632977,6329.77
633039,6330.39
633103,6331.03
633167,6331.67
633240,6332.4
633331,6333.31
633422,6334.22
633501,6335.01
633578,6335.78
633656,6336.56
633735,6337.35
633819,6338.19
633899,6338.99
633976,6339.76
634054,6340.54
634132,6341.32
634212,6342.12
634294,6342.94
634372,6343.72
634448,6344.48
634521,6345.21
634596,6345.96
634674,6346.74
634753,6347.53
634838,6348.38
634921,6349.21
635001,6350.01
635079,6350.79
635159,6351.59
635242,6352.42
635328,6353.28
635413,6354.13
635499,6354.99
635581,6355.81
635658,6356.58
635733,6357.33
635806,6358.06
635876,6358.76
635945,6359.45
636015,6360.15
636097,6360.97
636198,6361.98
636300,6363.0
636390,6363.9
636479,6364.79
636575,6365.75
636674,6366.74
636768,6367.68
636857,6368.57
636950,6369.5
637041,6370.41
637128,6371.28
637221,6372.21
637311,6373.11
637397,6373.97
637473,6374.73
637543,6375.43
637613,6376.13
637683,6376.83
637752,6377.52
637820,6378.2
637889,6378.89
637962,6379.62
638040,6380.4
638111,6381.11
638181,6381.81
638258,6382.58
638359,6383.59
638450,6384.5
638538,6385.38
638624,6386.24
638710,6387.1
638795,6387.95
638880,6388.8
638967,6389.67
639053,6390.53
639138,6391.38
639225,6392.25
639313,6393.13
639405,6394.05
639495,6394.95
639587,6395.87
639680,6396.8
639768,6397.68
639854,6398.54
639938,6399.38
640021,6400.21
640106,6401.06
640191,6401.91
640273,6402.73
640350,6403.5
640425,6404.25
640500,6405.0
640583,6405.83
640669,6406.69
640754,6407.54
640839,6408.39
640934,6409.34
641030,6410.3
641117,6411.17
641202,6412.02
641285,6412.85
641368,6413.68
641444,6414.44
641517,6415.17
641584,6415.84
641651,6416.51
641724,6417.24
641794,6417.94
641863,6418.63
641932,6419.32
642002,6420.02
642074,6420.74
642146,6421.46
642214,6422.14
642283,6422.83
642355,6423.55
642430,6424.3
642525,6425.25
642619,6426.19
642706,6427.06
642788,6427.88
642873,6428.73
642956,6429.56
643040,6430.4
643123,6431.23
643204,6432.04
643283,6432.83
643361,6433.61
643440,6434.4
643520,6435.2
643599,6435.99
643675,6436.75
643754,6437.54
643839,6438.39
643924,6439.24
644007,6440.07
644089,6440.89
644170,6441.7
644260,6442.6
644353,6443.53
644441,6444.41
644525,6445.25
644608,6446.08
644698,6446.98
644794,6447.94
644884,6448.84
644966,6449.66
645043,6450.43
645115,6451.15
645183,6451.83
645246,6452.46
645309,6453.09
645373,6453.73
645439,6454.39
645508,6455.08
645577,6455.77
645647,6456.47
645716,6457.16
645816,6458.16
645910,6459.1
645994,6459.94
646076,6460.76
646158,6461.58
646241,6462.41
646326,6463.26
646407,6464.07
646484,6464.84
646564,6465.64
646647,6466.47
646733,6467.33
646816,6468.16
646895,6468.95
646972,6469.72
647046,6470.46
647122,6471.22
647200,6472.0
647285,6472.85
647365,6473.65
647443,6474.43
647520,6475.2
647601,6476.01
647688,6476.88
647774,6477.74
647855,6478.55
647936,6479.36
648026,6480.26
648121,6481.21
648208,6482.08
648290,6482.9
648368,6483.68
648447,6484.47
648528,6485.28
648603,6486.03
648677,6486.77
648747,6487.47
648817,6488.17
648887,6488.87
648953,6489.53
649019,6490.19
649085,6490.85
649151,6491.51
649214,6492.14
649278,6492.78
649342,6493.42
649408,6494.08
649476,6494.76
649547,6495.47
649617,6496.17
649684,6496.84
649752,6497.52
649819,6498.19
649891,6498.91
649962,6499.62
650034,6500.34
650105,6501.05
650174,6501.74
650243,6502.43
650313,6503.13
650387,6503.87
650464,6504.64
650543,6505.43
650624,6506.24
650704,6507.04
650778,6507.78
650855,6508.55
650930,6509.3
651008,6510.08
651083,6510.83
651153,6511.53
651223,6512.23
651292,6512.92
651362,6513.62
651436,6514.36
651506,6515.06
651575,6515.75
651643,6516.43
651713,6517.13
651786,6517.86
651858,6518.58
651926,6519.26
651994,6519.94
652060,6520.6
652127,6521.27
652194,6521.94
652260,6522.6
652324,6523.24
652390,6523.9
652455,6524.55
652522,6525.22
652594,6525.94
652681,6526.81
652763,6527.63
652850,6528.5
652933,6529.33
653015,6530.15
653095,6530.95
653170,6531.7
653244,6532.44
653316,6533.16
653390,6533.9
653481,6534.81
653566,6535.66
653646,6536.46
653725,6537.25
653810,6538.1
653899,6538.99
653981,6539.81
654060,6540.6
654137,6541.37
654213,6542.13
654284,6542.84
654348,6543.48
654412,6544.12
654476,6544.76
654539,6545.39
654605,6546.05
654669,6546.69
654735,6547.35
654799,6547.99
654865,6548.65
654936,6549.36
655009,6550.09
655083,6550.83
655156,6551.56
655224,6552.24
655294,6552.94
655363,6553.63
655436,6554.36
655512,6555.12
655588,6555.88
655667,6556.67
655740,6557.4
655814,6558.14
655889,6558.89
655968,6559.68
656047,6560.47
656123,6561.23
656195,6561.95
656266,6562.66
656339,6563.39
656413,6564.13
656487,6564.87
656561,6565.61
656632,6566.32
656702,6567.02
656772,6567.72
656844,6568.44
656922,6569.22
657006,6570.06
657095,6570.95
657175,6571.75
657264,6572.64
657355,6573.55
657436,6574.36
657512,6575.12
657587,6575.87
657656,6576.56
657720,6577.2
657784,6577.84
657847,6578.47
657912,6579.12
657982,6579.82
658055,6580.55
658122,6581.22
658191,6581.91
658260,6582.6
658328,6583.28
658400,6584.0
658467,6584.67
658534,6585.34
658602,6586.02
658672,6586.72
658749,6587.49
658840,6588.4
658931,6589.31
659018,6590.18
659103,6591.03
659186,6591.86
659269,6592.69
659348,6593.48
659425,6594.25
659502,6595.02
659582,6595.82
659670,6596.7
659757,6597.57
659838,6598.38
659918,6599.18
659995,6599.95
660073,6600.73
660149,6601.49
660219,6602.19
660284,6602.84
660347,6603.47
660411,6604.11
660476,6604.76
660547,6605.47
660617,6606.17
660687,6606.87
660757,6607.57
660828,6608.28
660929,6609.29
661026,6610.26
661114,6611.14
661195,6611.95
661277,6612.77
661359,6613.59
661443,6614.43
661521,6615.21
661598,6615.98
661680,6616.8
661762,6617.62
661844,6618.44
661926,6619.26
662004,6620.04
662082,6620.82
662160,6621.6
662241,6622.41
662327,6623.27
662410,6624.1
662490,6624.9
662567,6625.67
662645,6626.45
662732,6627.32
662812,6628.12
662888,6628.88
662965,6629.65
663040,6630.4
663123,6631.23
663211,6632.11
663294,6632.94
663376,6633.76
663456,6634.56
663552,6635.52
663648,6636.48
663736,6637.36
663818,6638.18
663895,6638.95
663978,6639.78
664070,6640.7
664154,6641.54
664233,6642.33
664310,6643.1
664382,6643.82
664447,6644.47
664511,6645.11
664573,6645.73
664638,6646.38
664703,6647.03
664769,6647.69
664836,6648.36
664900,6649.0
664966,6649.66
665033,6650.33
665103,6651.03
665174,6651.74
665245,6652.45
665316,6653.16
665389,6653.89
665463,6654.63
665542,6655.42
665620,6656.2
665694,6656.94
665767,6657.67
665839,6658.39
665908,6659.08
665979,6659.79
666052,6660.52
666125,6661.25
666197,6661.97
666270,6662.7
666341,6663.41
666411,6664.11
666479,6664.79
666550,6665.5
666623,6666.23
666701,6667.01
666783,6667.83
666866,6668.66
666939,6669.39
667011,6670.11
667083,6670.83
667155,6671.55
667224,6672.24
667293,6672.93
667361,6673.61
667435,6674.35
667514,6675.14
667595,6675.95
667665,6676.65
667732,6677.32
667798,6677.98
667864,6678.64
667930,6679.3
667997,6679.97
668062,6680.62
668129,6681.29
668195,6681.95
668286,6682.86
668378,6683.78
668460,6684.6
668542,6685.42
668629,6686.29
668720,6687.2
668802,6688.02
668882,6688.82
668962,6689.62
669044,6690.44
669129,6691.29
669208,6692.08
669287,6692.87
669363,6693.63
669442,6694.42
669526,6695.26
669611,6696.11
669686,6696.86
669762,6697.62
669842,6698.42
669924,6699.24
670006,6700.06
670078,6700.78
670149,6701.49
670218,6702.18
670288,6702.88
670355,6703.55
670421,6704.21
670486,6704.86
670551,6705.51
670618,6706.18
670705,6707.05
670792,6707.92
670874,6708.74
670962,6709.62
671051,6710.51
671139,6711.39
671222,6712.22
671302,6713.02
671375,6713.75
671447,6714.47
671521,6715.21
671593,6715.93
671662,6716.62
671729,6717.29
671797,6717.97
671864,6718.64
671929,6719.29
671993,6719.93
672055,6720.55
672118,6721.18
672179,6721.79
672241,6722.41
672302,6723.02
672365,6723.65
672430,6724.3
672495,6724.95
672560,6725.6
672622,6726.22
672686,6726.86
672749,6727.49
672812,6728.12
672873,6728.73
672934,6729.34
672995,6729.95
673057,6730.57
673120,6731.2
673184,6731.84
673248,6732.48
673311,6733.11
673375,6733.75
673438,6734.38
673504,6735.04
673571,6735.71
673640,6736.4
673710,6737.1
673779,6737.79
673847,6738.47
673915,6739.15
673984,6739.84
674056,6740.56
674147,6741.47
674239,6742.39
674316,6743.16
674392,6743.92
674471,6744.71
674553,6745.53
674636,6746.36
674713,6747.13
674789,6747.89
674864,6748.64
674935,6749.35
675023,6750.23
675112,6751.12
675194,6751.94
675273,6752.73
675353,6753.53
675434,6754.34
675517,6755.17
675601,6756.01
675678,6756.78
675751,6757.51
675825,6758.25
675902,6759.02
675989,6759.89
676075,6760.75
676158,6761.58
676240,6762.4
676326,6763.26
676414,6764.14
676499,6764.99
676582,6765.82
676660,6766.6
676736,6767.36
676809,6768.09
676878,6768.78
676942,6769.42
677007,6770.07
677071,6770.71
677136,6771.36
677210,6772.1
677303,6773.03
677388,6773.88
677468,6774.68
677548,6775.48
677635,6776.35
