sample,time_sec
75,0.75
143,1.43
214,2.14
286,2.86
360,3.6
432,4.32
503,5.03
576,5.76
647,6.47
717,7.17
785,7.85
853,8.53
923,9.23
994,9.94
1065,10.65
1135,11.35
1204,12.04
1273,12.73
1343,13.43
1413,14.13
1482,14.82
1550,15.5
1620,16.2
1690,16.9
1759,17.59
1828,18.28
1898,18.98
1969,19.69
2039,20.39
2108,21.08
2177,21.77
2246,22.46
2315,23.15
2383,23.83
2451,24.51
2518,25.18
2587,25.87
2656,26.56
2725,27.25
2795,27.95
2867,28.67
2937,29.37
3007,30.07
3076,30.76
3146,31.46
3217,32.17
3289,32.89
3358,33.58
3426,34.26
3494,34.94
3562,35.62
3632,36.32
3702,37.02
3772,37.72
3841,38.41
3909,39.09
3979,39.79
4050,40.5
4120,41.2
4191,41.91
4260,42.6
4329,43.29
4398,43.98
4467,44.67
4536,45.36
4604,46.04
4672,46.72
4740,47.4
4809,48.09
4877,48.77
4945,49.45
5013,50.13
5082,50.82
5150,51.5
5218,52.18
5286,52.86
5354,53.54
5423,54.23
5493,54.93
5562,55.62
5631,56.31
5702,57.02
5773,57.73
5844,58.44
5913,59.13
5982,59.82
6052,60.52
6121,61.21
6191,61.91
6262,62.62
6334,63.34
6405,64.05
6476,64.76
6545,65.45
6617,66.17
6689,66.89
6760,67.6
6831,68.31
6906,69.06
6981,69.81
7054,70.54
7125,71.25
7198,71.98
7271,72.71
7344,73.44
7415,74.15
7484,74.84
7555,75.55
7626,76.26
7697,76.97
7766,77.66
7836,78.36
7907,79.07
7977,79.77
8046,80.46
8116,81.16
8186,81.86
8255,82.55
8324,83.24
8392,83.92
8462,84.62
8532,85.32
8601,86.01
8670,86.7
8740,87.4
8809,88.09
8879,88.79
8950,89.5
9021,90.21
9091,90.91
9162,91.62
9235,92.35
9308,93.08
9380,93.8
9449,94.49
9519,95.19
9591,95.91
9662,96.62
9733,97.33
9800,98.0
9869,98.69
9939,99.39
10010,100.1
10081,100.81
10155,101.55
10229,102.29
10301,103.01
10372,103.72
10443,104.43
10514,105.14
10584,105.84
10653,106.53
10723,107.23
10793,107.93
10863,108.63
10931,109.31
10998,109.98
11064,110.64
11130,111.3
11195,111.95
11261,112.61
11328,113.28
11394,113.94
11459,114.59
11522,115.22
11586,115.86
11648,116.48
11711,117.11
11774,117.74
11838,118.38
11903,119.03
11969,119.69
12035,120.35
12102,121.02
12172,121.72
12240,122.4
12309,123.09
12377,123.77
12446,124.46
12514,125.14
12580,125.8
12646,126.46
12715,127.15
12785,127.85
12855,128.55
12925,129.25
12994,129.94
13063,130.63
13134,131.34
13205,132.05
13273,132.73
13342,133.42
13412,134.12
13483,134.83
13553,135.53
13623,136.23
13693,136.93
13762,137.62
13830,138.3
13900,139.0
13971,139.71
14043,140.43
14115,141.15
14188,141.88
14258,142.58
14328,143.28
14398,143.98
14468,144.68
14537,145.37
14607,146.07
14679,146.79
14752,147.52
14823,148.23
14893,148.93
14963,149.63
15035,150.35
15109,151.09
15186,151.86
15264,152.64
15335,153.35
15406,154.06
15476,154.76
15547,155.47
15617,156.17
15688,156.88
15758,157.58
15828,158.28
15897,158.97
15966,159.66
16034,160.34
16102,161.02
16171,161.71
16239,162.39
16307,163.07
16376,163.76
16445,164.45
16516,165.16
16587,165.87
16656,166.56
16726,167.26
16796,167.96
16865,168.65
16934,169.34
17004,170.04
17074,170.74
17143,171.43
17213,172.13
17282,172.82
17352,173.52
17422,174.22
17493,174.93
17563,175.63
17632,176.32
17699,176.99
17767,177.67
17835,178.35
17904,179.04
17973,179.73
18042,180.42
18111,181.11
18181,181.81
18250,182.5
18319,183.19
18386,183.86
18454,184.54
18522,185.22
18591,185.91
18660,186.6
18728,187.28
18795,187.95
18864,188.64
18934,189.34
19005,190.05
19074,190.74
19142,191.42
19211,192.11
19281,192.81
19351,193.51
19421,194.21
19490,194.9
19559,195.59
19627,196.27
19695,196.95
19765,197.65
19835,198.35
19906,199.06
19975,199.75
20045,200.45
20117,201.17
20189,201.89
20260,202.6
20331,203.31
20401,204.01
20471,204.71
20542,205.42
20613,206.13
20685,206.85
20754,207.54
20823,208.23
20892,208.92
20961,209.61
21031,210.31
21100,211.0
21168,211.68
21236,212.36
21305,213.05
21376,213.76
21445,214.45
21514,215.14
21583,215.83
21652,216.52
21722,217.22
21792,217.92
21861,218.61
21930,219.3
21999,219.99
22069,220.69
22137,221.37
22206,222.06
22274,222.74
22343,223.43
22411,224.11
22479,224.79
22545,225.45
22611,226.11
22677,226.77
22745,227.45
22813,228.13
22881,228.81
22948,229.48
23016,230.16
23084,230.84
23152,231.52
23220,232.2
23287,232.87
23354,233.54
23422,234.22
23489,234.89
23556,235.56
23621,236.21
23686,236.86
23752,237.52
23818,238.18
23884,238.84
23949,239.49
24014,240.14
24080,240.8
24147,241.47
24213,242.13
24281,242.81
24349,243.49
24419,244.19
24488,244.88
24558,245.58
24628,246.28
24699,246.99
24769,247.69
24838,248.38
24907,249.07
24977,249.77
25045,250.45
25113,251.13
25181,251.81
25250,252.5
25319,253.19
25386,253.86
25452,254.52
25518,255.18
25585,255.85
25653,256.53
25720,257.2
25788,257.88
25857,258.57
25927,259.27
25998,259.98
26069,260.69
26139,261.39
26209,262.09
26278,262.78
26346,263.46
26414,264.14
26482,264.82
26552,265.52
26622,266.22
26692,266.92
26765,267.65
26838,268.38
26910,269.1
26982,269.82
27057,270.57
27130,271.3
27203,272.03
27277,272.77
27352,273.52
27428,274.28
27502,275.02
27575,275.75
27648,276.48
27720,277.2
27794,277.94
27869,278.69
27943,279.43
28017,280.17
28092,280.92
28167,281.67
28241,282.41
28313,283.13
28387,283.87
28462,284.62
28537,285.37
28608,286.08
28678,286.78
28750,287.5
28820,288.2
28891,288.91
28960,289.6
29030,290.3
29101,291.01
29170,291.7
29238,292.38
29306,293.06
29374,293.74
29441,294.41
29509,295.09
29578,295.78
29647,296.47
29715,297.15
29784,297.84
29852,298.52
29921,299.21
29990,299.9
30058,300.58
30126,301.26
30195,301.95
30264,302.64
30331,303.31
30400,304.0
30468,304.68
30537,305.37
30607,306.07
30677,306.77
30747,307.47
30818,308.18
30889,308.89
30957,309.57
31026,310.26
31095,310.95
31162,311.62
31229,312.29
31297,312.97
31364,313.64
31432,314.32
31499,314.99
31566,315.66
31633,316.33
31699,316.99
31766,317.66
31832,318.32
31899,318.99
31966,319.66
32033,320.33
32101,321.01
32169,321.69
32238,322.38
32306,323.06
32373,323.73
32440,324.4
32508,325.08
32576,325.76
32645,326.45
32713,327.13
32781,327.81
32846,328.46
32911,329.11
32975,329.75
33039,330.39
33104,331.04
33169,331.69
33236,332.36
33303,333.03
33372,333.72
33440,334.4
33511,335.11
33582,335.82
33654,336.54
33726,337.26
33799,337.99
33872,338.72
33945,339.45
34019,340.19
34094,340.94
34170,341.7
34247,342.47
34323,343.23
34397,343.97
34470,344.7
34542,345.42
34611,346.11
34679,346.79
34747,347.47
34816,348.16
34886,348.86
34955,349.55
35026,350.26
35097,350.97
35169,351.69
35240,352.4
35313,353.13
35385,353.85
35456,354.56
35526,355.26
35598,355.98
35672,356.72
35748,357.48
35824,358.24
35895,358.95
35967,359.67
36041,360.41
36115,361.15
36186,361.86
36257,362.57
36329,363.29
36401,364.01
36472,364.72
36541,365.41
36611,366.11
36679,366.79
36748,367.48
36817,368.17
36886,368.86
36954,369.54
37024,370.24
37096,370.96
37172,371.72
37248,372.48
37319,373.19
37390,373.9
37460,374.6
37532,375.32
37603,376.03
37674,376.74
37745,377.45
37815,378.15
37886,378.86
37959,379.59
38032,380.32
38104,381.04
38177,381.77
38247,382.47
38317,383.17
38387,383.87
38458,384.58
38531,385.31
38607,386.07
38681,386.81
38754,387.54
38825,388.25
38898,388.98
38971,389.71
39044,390.44
39116,391.16
39188,391.88
39258,392.58
39327,393.27
39396,393.96
39466,394.66
39536,395.36
39607,396.07
39677,396.77
39744,397.44
39812,398.12
39880,398.8
39949,399.49
40019,400.19
40090,400.9
40160,401.6
40229,402.29
40297,402.97
40366,403.66
40435,404.35
40505,405.05
40575,405.75
40646,406.46
40717,407.17
40786,407.86
40854,408.54
40921,409.21
40988,409.88
41056,410.56
41123,411.23
41190,411.9
41257,412.57
41323,413.23
41391,413.91
41458,414.58
41524,415.24
41593,415.93
41662,416.62
41732,417.32
41801,418.01
41869,418.69
41938,419.38
42006,420.06
42075,420.75
42144,421.44
42213,422.13
42283,422.83
42353,423.53
42424,424.24
42495,424.95
42566,425.66
42638,426.38
42709,427.09
42781,427.81
42851,428.51
42920,429.2
42989,429.89
43059,430.59
43125,431.25
43191,431.91
43269,432.69
43335,433.35
43409,434.09
43477,434.77
43546,435.46
43614,436.14
43682,436.82
43750,437.5
43818,438.18
43887,438.87
43956,439.56
44025,440.25
44093,440.93
44161,441.61
44228,442.28
44295,442.95
44363,443.63
44430,444.3
44496,444.96
44562,445.62
44629,446.29
44696,446.96
44763,447.63
44829,448.29
44897,448.97
44965,449.65
45033,450.33
45100,451.0
45167,451.67
45235,452.35
45304,453.04
45373,453.73
45442,454.42
45509,455.09
45576,455.76
45643,456.43
45710,457.1
45778,457.78
45846,458.46
45914,459.14
45983,459.83
46053,460.53
46124,461.24
46195,461.95
46266,462.66
46335,463.35
46403,464.03
46472,464.72
46543,465.43
46617,466.17
46691,466.91
46762,467.62
46832,468.32
46902,469.02
46973,469.73
47046,470.46
47119,471.19
47192,471.92
47263,472.63
47333,473.33
47402,474.02
47471,474.71
47541,475.41
47610,476.1
47680,476.8
47748,477.48
47815,478.15
47881,478.81
47948,479.48
48017,480.17
48086,480.86
48155,481.55
48224,482.24
48293,482.93
48362,483.62
48433,484.33
48504,485.04
48574,485.74
48643,486.43
48711,487.11
48781,487.81
48850,488.5
48921,489.21
48992,489.92
49062,490.62
49133,491.33
49203,492.03
49272,492.72
49340,493.4
49406,494.06
49474,494.74
49541,495.41
49607,496.07
49672,496.72
49737,497.37
49802,498.02
49869,498.69
49937,499.37
50005,500.05
50072,500.72
50138,501.38
50204,502.04
50270,502.7
50337,503.37
50404,504.04
50472,504.72
50540,505.4
50609,506.09
50677,506.77
50745,507.45
50813,508.13
50881,508.81
50949,509.49
51016,510.16
51083,510.83
51151,511.51
51217,512.17
51283,512.83
51349,513.49
51417,514.17
51485,514.85
51553,515.53
51620,516.2
51687,516.87
51754,517.54
51822,518.22
51890,518.9
51957,519.57
52024,520.24
52091,520.91
52159,521.59
52227,522.27
52294,522.94
52361,523.61
52428,524.28
52493,524.93
52559,525.59
52626,526.26
52695,526.95
52764,527.64
52833,528.33
52901,529.01
52971,529.71
53040,530.4
53110,531.1
53179,531.79
53247,532.47
53316,533.16
53385,533.85
53453,534.53
53520,535.2
53586,535.86
53652,536.52
53718,537.18
53783,537.83
53847,538.47
53910,539.1
53974,539.74
54038,540.38
54103,541.03
54170,541.7
54238,542.38
54305,543.05
54374,543.74
54445,544.45
54516,545.16
54586,545.86
54655,546.55
54726,547.26
54796,547.96
54864,548.64
54934,549.34
55005,550.05
55075,550.75
55146,551.46
55216,552.16
55286,552.86
55356,553.56
55425,554.25
55493,554.93
55563,555.63
55634,556.34
55707,557.07
55781,557.81
55854,558.54
55924,559.24
55993,559.93
56064,560.64
56135,561.35
56206,562.06
56277,562.77
56348,563.48
56421,564.21
56493,564.93
56565,565.65
56638,566.38
56711,567.11
56783,567.83
56856,568.56
56927,569.27
56997,569.97
57065,570.65
57131,571.31
57199,571.99
57268,572.68
57338,573.38
57407,574.07
57475,574.75
57542,575.42
57611,576.11
57680,576.8
57749,577.49
57819,578.19
57888,578.88
57959,579.59
58030,580.3
58101,581.01
58172,581.72
58243,582.43
58314,583.14
58385,583.85
58455,584.55
58524,585.24
58595,585.95
58664,586.64
58734,587.34
58803,588.03
58872,588.72
58941,589.41
59010,590.1
59079,590.79
59149,591.49
59218,592.18
59285,592.85
59351,593.51
59416,594.16
59482,594.82
59550,595.5
59617,596.17
59683,596.83
59751,597.51
59820,598.2
59892,598.92
59962,599.62
60033,600.33
60106,601.06
60179,601.79
60251,602.51
60323,603.23
60394,603.94
60464,604.64
60534,605.34
60604,606.04
60673,606.73
60742,607.42
60810,608.1
60879,608.79
60948,609.48
61016,610.16
61084,610.84
61152,611.52
61221,612.21
61290,612.9
61359,613.59
61427,614.27
61493,614.93
61560,615.6
61628,616.28
61695,616.95
61761,617.61
61829,618.29
61898,618.98
61966,619.66
62035,620.35
62106,621.06
62178,621.78
62249,622.49
62318,623.18
62387,623.87
62458,624.58
62529,625.29
62599,625.99
62669,626.69
62738,627.38
62809,628.09
62881,628.81
62952,629.52
63022,630.22
63091,630.91
63158,631.58
63224,632.24
63293,632.93
63362,633.62
63431,634.31
63502,635.02
63571,635.71
63639,636.39
63707,637.07
63776,637.76
63847,638.47
63918,639.18
63989,639.89
64061,640.61
64133,641.33
64206,642.06
64278,642.78
64349,643.49
64419,644.19
64489,644.89
64558,645.58
64628,646.28
64698,646.98
64767,647.67
64837,648.37
64910,649.1
64984,649.84
65060,650.6
65136,651.36
65213,652.13
65288,652.88
65361,653.61
65432,654.32
65504,655.04
65576,655.76
65647,656.47
65717,657.17
65786,657.86
65853,658.53
65920,659.2
65987,659.87
66054,660.54
66122,661.22
66188,661.88
66253,662.53
66316,663.16
66380,663.8
66445,664.45
66510,665.1
66575,665.75
66641,666.41
66708,667.08
66776,667.76
66845,668.45
66914,669.14
66981,669.81
67051,670.51
67122,671.22
67193,671.93
67263,672.63
67332,673.32
67401,674.01
67470,674.7
67539,675.39
67606,676.06
67674,676.74
67743,677.43
67812,678.12
67881,678.81
67950,679.5
68020,680.2
68093,680.93
68166,681.66
68242,682.42
68319,683.19
68393,683.93
68465,684.65
68537,685.37
68607,686.07
68675,686.75
68742,687.42
68812,688.12
68885,688.85
68956,689.56
69028,690.28
69098,690.98
69167,691.67
69236,692.36
69306,693.06
69377,693.77
69446,694.46
69516,695.16
69585,695.85
69656,696.56
69725,697.25
69793,697.93
69861,698.61
69930,699.3
69998,699.98
70066,700.66
70134,701.34
70203,702.03
70272,702.72
70341,703.41
70411,704.11
70479,704.79
70546,705.46
70612,706.12
70678,706.78
70744,707.44
70810,708.1
70876,708.76
70944,709.44
71012,710.12
71080,710.8
71149,711.49
71217,712.17
71287,712.87
71357,713.57
71427,714.27
71496,714.96
71566,715.66
71636,716.36
71705,717.05
71774,717.74
71844,718.44
71914,719.14
71985,719.85
72054,720.54
72122,721.22
72192,721.92
72263,722.63
72333,723.33
72403,724.03
72473,724.73
72543,725.43
72613,726.13
72684,726.84
72756,727.56
72829,728.29
72900,729.0
72973,729.73
73046,730.46
73119,731.19
73192,731.92
73265,732.65
73335,733.35
73406,734.06
73477,734.77
73548,735.48
73618,736.18
73685,736.85
73750,737.5
73816,738.16
73886,738.86
73960,739.6
74034,740.34
74106,741.06
74179,741.79
74258,742.58
74337,743.37
74408,744.08
74479,744.79
74551,745.51
74623,746.23
74694,746.94
74766,747.66
74837,748.37
74908,749.08
74979,749.79
75049,750.49
75119,751.19
75188,751.88
75257,752.57
75326,753.26
75395,753.95
75463,754.63
75530,755.3
75596,755.96
75663,756.63
75730,757.3
75796,757.96
75863,758.63
75930,759.3
75997,759.97
76065,760.65
76132,761.32
76201,762.01
76271,762.71
76340,763.4
76406,764.06
76472,764.72
76537,765.37
76602,766.02
76668,766.68
76734,767.34
76799,767.99
76866,768.66
76933,769.33
77001,770.01
77069,770.69
77137,771.37
77205,772.05
77273,772.73
77341,773.41
77408,774.08
77475,774.75
77544,775.44
77611,776.11
77676,776.76
77741,777.41
77805,778.05
77868,778.68
77932,779.32
77996,779.96
78058,780.58
78119,781.19
78180,781.8
78241,782.41
78302,783.02
78363,783.63
78424,784.24
78485,784.85
78546,785.46
78607,786.07
78669,786.69
78733,787.33
78799,787.99
78867,788.67
78937,789.37
79006,790.06
79075,790.75
79142,791.42
79208,792.08
79271,792.71
79334,793.34
79397,793.97
79460,794.6
79522,795.22
79583,795.83
79645,796.45
79707,797.07
79770,797.7
79836,798.36
79904,799.04
79976,799.76
80048,800.48
80119,801.19
80193,801.93
80276,802.76
80357,803.57
80433,804.33
80509,805.09
80585,805.85
80661,806.61
80736,807.36
80810,808.1
80885,808.85
80960,809.6
81036,810.36
81113,811.13
81190,811.9
81263,812.63
81336,813.36
81408,814.08
81481,814.81
81555,815.55
81627,816.27
81700,817.0
81775,817.75
81850,818.5
81923,819.23
81995,819.95
82069,820.69
82140,821.4
82211,822.11
82281,822.81
82349,823.49
82418,824.18
82488,824.88
82557,825.57
82626,826.26
82694,826.94
82762,827.62
82831,828.31
82899,828.99
82966,829.66
83034,830.34
83102,831.02
83171,831.71
83241,832.41
83310,833.1
83380,833.8
83450,834.5
83520,835.2
83590,835.9
83661,836.61
83730,837.3
83799,837.99
83869,838.69
83938,839.38
84005,840.05
84073,840.73
84141,841.41
84209,842.09
84279,842.79
84348,843.48
84417,844.17
84486,844.86
84555,845.55
84625,846.25
84695,846.95
84766,847.66
84836,848.36
84909,849.09
84983,849.83
85055,850.55
85126,851.26
85197,851.97
85269,852.69
85340,853.4
85411,854.11
85480,854.8
85548,855.48
85616,856.16
85684,856.84
85747,857.47
85810,858.1
85880,858.8
85951,859.51
86017,860.17
86083,860.83
86150,861.5
86217,862.17
86284,862.84
86352,863.52
86422,864.22
86494,864.94
86564,865.64
86633,866.33
86700,867.0
86766,867.66
86834,868.34
86902,869.02
86971,869.71
87041,870.41
87110,871.1
87178,871.78
87246,872.46
87314,873.14
87381,873.81
87447,874.47
87513,875.13
87579,875.79
87645,876.45
87712,877.12
87780,877.8
87848,878.48
87916,879.16
87983,879.83
88049,880.49
88114,881.14
88179,881.79
88245,882.45
88311,883.11
88376,883.76
88442,884.42
88509,885.09
88575,885.75
88642,886.42
88712,887.12
88783,887.83
88854,888.54
88925,889.25
88995,889.95
89066,890.66
89137,891.37
89206,892.06
89273,892.73
89341,893.41
89411,894.11
89480,894.8
89549,895.49
89618,896.18
89687,896.87
89756,897.56
89825,898.25
89893,898.93
89959,899.59
90026,900.26
90096,900.96
90168,901.68
90242,902.42
90313,903.13
90387,903.87
90461,904.61
90534,905.34
90604,906.04
90672,906.72
90737,907.37
90802,908.02
90867,908.67
90930,909.3
90994,909.94
91065,910.65
91137,911.37
91205,912.05
91275,912.75
91345,913.45
91414,914.14
91484,914.84
91554,915.54
91622,916.22
91690,916.9
91757,917.57
91823,918.23
91888,918.88
91953,919.53
92018,920.18
92085,920.85
92153,921.53
92223,922.23
92294,922.94
92366,923.66
92437,924.37
92508,925.08
92580,925.8
92652,926.52
92723,927.23
92793,927.93
92862,928.62
92932,929.32
93002,930.02
93072,930.72
93141,931.41
93210,932.1
93279,932.79
93350,933.5
93420,934.2
93490,934.9
93559,935.59
93628,936.28
93698,936.98
93769,937.69
93840,938.4
93909,939.09
93977,939.77
94045,940.45
94112,941.12
94179,941.79
94245,942.45
94306,943.06
94367,943.67
94434,944.34
94502,945.02
94565,945.65
94627,946.27
94689,946.89
94750,947.5
94812,948.12
94874,948.74
94935,949.35
94996,949.96
95057,950.57
95118,951.18
95180,951.8
95242,952.42
95306,953.06
95370,953.7
95435,954.35
95501,955.01
95569,955.69
95637,956.37
95706,957.06
95778,957.78
95848,958.48
95918,959.18
95990,959.9
96061,960.61
96132,961.32
96203,962.03
96273,962.73
96344,963.44
96413,964.13
96481,964.81
96549,965.49
96617,966.17
96684,966.84
96751,967.51
96817,968.17
96883,968.83
96949,969.49
97016,970.16
97083,970.83
97149,971.49
97216,972.16
97283,972.83
97350,973.5
97417,974.17
97484,974.84
97552,975.52
97618,976.18
97684,976.84
97750,977.5
97818,978.18
97887,978.87
97955,979.55
98023,980.23
98091,980.91
98160,981.6
98230,982.3
98298,982.98
98365,983.65
98432,984.32
98498,984.98
98563,985.63
98628,986.28
98692,986.92
98755,987.55
98813,988.13
98872,988.72
98934,989.34
98999,989.99
99065,990.65
99127,991.27
99187,991.87
99248,992.48
99308,993.08
99369,993.69
99429,994.29
99489,994.89
99550,995.5
99610,996.1
99670,996.7
99731,997.31
99791,997.91
99850,998.5
99909,999.09
99968,999.68
100028,1000.28
100088,1000.88
100149,1001.49
100212,1002.12
100277,1002.77
100341,1003.41
100406,1004.06
100471,1004.71
100537,1005.37
100604,1006.04
100671,1006.71
100738,1007.38
100806,1008.06
100873,1008.73
100940,1009.4
101005,1010.05
101068,1010.68
101131,1011.31
101194,1011.94
101257,1012.57
101320,1013.2
101383,1013.83
101447,1014.47
101512,1015.12
101579,1015.79
101647,1016.47
101715,1017.15
101784,1017.84
101851,1018.51
101917,1019.17
101984,1019.84
102054,1020.54
102125,1021.25
102196,1021.96
102266,1022.66
102336,1023.36
102405,1024.05
102473,1024.73
102542,1025.42
102609,1026.09
102676,1026.76
102742,1027.42
102808,1028.08
102873,1028.73
102937,1029.37
103000,1030.0
103065,1030.65
103130,1031.3
103197,1031.97
103266,1032.66
103336,1033.36
103405,1034.05
103473,1034.73
103543,1035.43
103616,1036.16
103690,1036.9
103764,1037.64
103837,1038.37
103908,1039.08
103978,1039.78
104049,1040.49
104117,1041.17
104185,1041.85
104252,1042.52
104317,1043.17
104383,1043.83
104451,1044.51
104520,1045.2
104591,1045.91
104664,1046.64
104735,1047.35
104806,1048.06
104875,1048.75
104945,1049.45
105017,1050.17
105087,1050.87
105157,1051.57
105226,1052.26
105295,1052.95
105368,1053.68
105440,1054.4
105512,1055.12
105584,1055.84
105655,1056.55
105727,1057.27
105798,1057.98
105867,1058.67
105936,1059.36
106002,1060.02
106067,1060.67
106132,1061.32
106199,1061.99
106265,1062.65
106331,1063.31
106397,1063.97
106461,1064.61
106526,1065.26
106591,1065.91
106656,1066.56
106724,1067.24
106795,1067.95
106865,1068.65
106935,1069.35
107004,1070.04
107075,1070.75
107146,1071.46
107216,1072.16
107286,1072.86
107356,1073.56
107424,1074.24
107493,1074.93
107560,1075.6
107628,1076.28
107697,1076.97
107766,1077.66
107835,1078.35
107903,1079.03
107971,1079.71
108039,1080.39
108109,1081.09
108178,1081.78
108247,1082.47
108314,1083.14
108380,1083.8
108447,1084.47
108515,1085.15
108584,1085.84
108653,1086.53
108722,1087.22
108790,1087.9
108859,1088.59
108928,1089.28
108997,1089.97
109065,1090.65
109132,1091.32
109199,1091.99
109268,1092.68
109338,1093.38
109408,1094.08
109478,1094.78
109546,1095.46
109614,1096.14
109681,1096.81
109749,1097.49
109818,1098.18
109888,1098.88
109958,1099.58
110028,1100.28
110097,1100.97
110165,1101.65
110234,1102.34
110302,1103.02
110368,1103.68
110436,1104.36
110506,1105.06
110576,1105.76
110647,1106.47
110718,1107.18
110789,1107.89
110860,1108.6
110931,1109.31
111001,1110.01
111071,1110.71
111140,1111.4
111207,1112.07
111276,1112.76
111345,1113.45
111416,1114.16
111486,1114.86
111555,1115.55
111624,1116.24
111693,1116.93
111763,1117.63
111832,1118.32
111900,1119.0
111966,1119.66
112032,1120.32
112099,1120.99
112165,1121.65
112232,1122.32
112299,1122.99
112366,1123.66
112433,1124.33
112499,1124.99
112564,1125.64
112631,1126.31
112697,1126.97
112763,1127.63
112827,1128.27
112891,1128.91
112953,1129.53
113016,1130.16
113078,1130.78
113141,1131.41
113206,1132.06
113271,1132.71
113337,1133.37
113403,1134.03
113468,1134.68
113534,1135.34
113601,1136.01
113669,1136.69
113737,1137.37
113806,1138.06
113874,1138.74
113942,1139.42
114008,1140.08
114075,1140.75
114147,1141.47
114219,1142.19
114289,1142.89
114358,1143.58
114425,1144.25
114492,1144.92
114559,1145.59
114627,1146.27
114690,1146.9
114753,1147.53
114823,1148.23
114894,1148.94
114958,1149.58
115023,1150.23
115088,1150.88
115155,1151.55
115223,1152.23
115291,1152.91
115359,1153.59
115426,1154.26
115494,1154.94
115562,1155.62
115630,1156.3
115699,1156.99
115768,1157.68
115837,1158.37
115904,1159.04
115971,1159.71
116039,1160.39
116108,1161.08
116176,1161.76
116243,1162.43
116309,1163.09
116373,1163.73
116438,1164.38
116502,1165.02
116567,1165.67
116631,1166.31
116695,1166.95
116759,1167.59
116823,1168.23
116887,1168.87
116950,1169.5
117012,1170.12
117074,1170.74
117136,1171.36
117199,1171.99
117265,1172.65
117329,1173.29
117394,1173.94
117459,1174.59
117524,1175.24
117587,1175.87
117651,1176.51
117716,1177.16
117781,1177.81
117848,1178.48
117916,1179.16
117985,1179.85
118058,1180.58
118131,1181.31
118202,1182.02
118272,1182.72
118339,1183.39
118405,1184.05
118470,1184.7
118535,1185.35
118600,1186.0
118665,1186.65
118729,1187.29
118793,1187.93
118860,1188.6
118926,1189.26
118994,1189.94
119061,1190.61
119129,1191.29
119196,1191.96
119264,1192.64
119333,1193.33
119401,1194.01
119469,1194.69
119537,1195.37
119605,1196.05
119675,1196.75
119745,1197.45
119816,1198.16
119885,1198.85
119953,1199.53
120021,1200.21
120089,1200.89
120155,1201.55
120221,1202.21
120287,1202.87
120353,1203.53
120419,1204.19
120487,1204.87
120556,1205.56
120623,1206.23
120690,1206.9
120755,1207.55
120821,1208.21
120886,1208.86
120952,1209.52
121017,1210.17
121082,1210.82
121146,1211.46
121210,1212.1
121274,1212.74
121338,1213.38
121403,1214.03
121471,1214.71
121539,1215.39
121607,1216.07
121675,1216.75
121745,1217.45
121814,1218.14
121885,1218.85
121953,1219.53
122021,1220.21
122089,1220.89
122158,1221.58
122227,1222.27
122296,1222.96
122364,1223.64
122433,1224.33
122500,1225.0
122568,1225.68
122638,1226.38
122707,1227.07
122775,1227.75
122844,1228.44
122911,1229.11
122979,1229.79
123049,1230.49
123119,1231.19
123190,1231.9
123259,1232.59
123328,1233.28
123397,1233.97
123466,1234.66
123537,1235.37
123605,1236.05
123673,1236.73
123740,1237.4
123807,1238.07
123874,1238.74
123941,1239.41
124009,1240.09
124075,1240.75
124142,1241.42
124210,1242.1
124278,1242.78
124348,1243.48
124419,1244.19
124489,1244.89
124557,1245.57
124626,1246.26
124694,1246.94
124763,1247.63
124833,1248.33
124903,1249.03
124973,1249.73
125042,1250.42
125111,1251.11
125182,1251.82
125251,1252.51
125319,1253.19
125385,1253.85
125453,1254.53
125522,1255.22
125591,1255.91
125663,1256.63
125735,1257.35
125806,1258.06
125876,1258.76
125946,1259.46
126018,1260.18
126090,1260.9
126160,1261.6
126229,1262.29
126297,1262.97
126364,1263.64
126432,1264.32
126499,1264.99
126566,1265.66
126632,1266.32
126696,1266.96
126761,1267.61
126826,1268.26
126891,1268.91
126957,1269.57
127023,1270.23
127089,1270.89
127155,1271.55
127221,1272.21
127286,1272.86
127353,1273.53
127420,1274.2
127488,1274.88
127554,1275.54
127620,1276.2
127686,1276.86
127753,1277.53
127820,1278.2
127888,1278.88
127958,1279.58
128028,1280.28
128098,1280.98
128167,1281.67
128236,1282.36
128305,1283.05
128373,1283.73
128440,1284.4
128506,1285.06
128571,1285.71
128636,1286.36
128700,1287.0
128765,1287.65
128832,1288.32
128898,1288.98
128965,1289.65
129032,1290.32
129100,1291.0
129167,1291.67
129234,1292.34
129302,1293.02
129369,1293.69
129435,1294.35
129502,1295.02
129570,1295.7
129641,1296.41
129710,1297.1
129779,1297.79
129847,1298.47
129916,1299.16
129987,1299.87
130060,1300.6
130130,1301.3
130201,1302.01
130270,1302.7
130339,1303.39
130409,1304.09
130480,1304.8
130551,1305.51
130625,1306.25
130698,1306.98
130770,1307.7
130840,1308.4
130909,1309.09
130980,1309.8
131051,1310.51
131123,1311.23
131195,1311.95
131268,1312.68
131338,1313.38
131407,1314.07
131474,1314.74
131541,1315.41
131609,1316.09
131679,1316.79
131751,1317.51
131824,1318.24
131895,1318.95
131966,1319.66
132035,1320.35
132104,1321.04
132171,1321.71
132238,1322.38
132305,1323.05
132372,1323.72
132438,1324.38
132505,1325.05
132572,1325.72
132639,1326.39
132707,1327.07
132774,1327.74
132839,1328.39
132904,1329.04
132970,1329.7
133036,1330.36
133102,1331.02
133168,1331.68
133233,1332.33
133299,1332.99
133365,1333.65
133430,1334.3
133496,1334.96
133562,1335.62
133627,1336.27
133693,1336.93
133759,1337.59
133824,1338.24
133890,1338.9
133957,1339.57
134023,1340.23
134089,1340.89
134154,1341.54
134221,1342.21
134289,1342.89
134357,1343.57
134425,1344.25
134492,1344.92
134559,1345.59
134625,1346.25
134692,1346.92
134759,1347.59
134826,1348.26
134892,1348.92
134958,1349.58
135025,1350.25
135092,1350.92
135159,1351.59
135225,1352.25
135290,1352.9
135355,1353.55
135421,1354.21
135487,1354.87
135552,1355.52
135617,1356.17
135683,1356.83
135749,1357.49
135816,1358.16
135882,1358.82
135948,1359.48
136015,1360.15
136082,1360.82
136150,1361.5
136217,1362.17
136284,1362.84
136350,1363.5
136417,1364.17
136484,1364.84
136552,1365.52
136620,1366.2
136689,1366.89
136758,1367.58
136829,1368.29
136901,1369.01
136973,1369.73
137042,1370.42
137113,1371.13
137184,1371.84
137254,1372.54
137323,1373.23
137392,1373.92
137461,1374.61
137535,1375.35
137610,1376.1
137685,1376.85
137758,1377.58
137828,1378.28
137897,1378.97
137964,1379.64
138031,1380.31
138099,1380.99
138167,1381.67
138237,1382.37
138308,1383.08
138381,1383.81
138453,1384.53
138524,1385.24
138594,1385.94
138663,1386.63
138731,1387.31
138798,1387.98
138866,1388.66
138934,1389.34
139003,1390.03
139072,1390.72
139142,1391.42
139211,1392.11
139281,1392.81
139350,1393.5
139417,1394.17
139483,1394.83
139548,1395.48
139614,1396.14
139679,1396.79
139745,1397.45
139810,1398.1
139875,1398.75
139940,1399.4
140006,1400.06
140072,1400.72
140139,1401.39
140205,1402.05
140273,1402.73
140341,1403.41
140408,1404.08
140475,1404.75
140542,1405.42
140610,1406.1
140677,1406.77
140744,1407.44
140811,1408.11
140879,1408.79
140946,1409.46
141013,1410.13
141081,1410.81
141148,1411.48
141215,1412.15
141283,1412.83
141349,1413.49
141416,1414.16
141483,1414.83
141551,1415.51
141619,1416.19
141685,1416.85
141750,1417.5
141814,1418.14
141878,1418.78
141940,1419.4
142002,1420.02
142064,1420.64
142126,1421.26
142190,1421.9
142255,1422.55
142321,1423.21
142386,1423.86
142453,1424.53
142523,1425.23
142591,1425.91
142659,1426.59
142727,1427.27
142795,1427.95
142865,1428.65
142934,1429.34
143002,1430.02
143070,1430.7
143140,1431.4
143209,1432.09
143279,1432.79
143348,1433.48
143416,1434.16
143485,1434.85
143553,1435.53
143621,1436.21
143689,1436.89
143757,1437.57
143824,1438.24
143893,1438.93
143964,1439.64
144035,1440.35
144106,1441.06
144180,1441.8
144252,1442.52
144324,1443.24
144395,1443.95
144466,1444.66
144537,1445.37
144607,1446.07
144678,1446.78
144749,1447.49
144822,1448.22
144893,1448.93
144964,1449.64
145032,1450.32
145099,1450.99
145165,1451.65
145232,1452.32
145299,1452.99
145366,1453.66
145433,1454.33
145499,1454.99
145565,1455.65
145632,1456.32
145699,1456.99
145766,1457.66
145833,1458.33
145901,1459.01
145970,1459.7
146039,1460.39
146108,1461.08
146177,1461.77
146246,1462.46
146315,1463.15
146383,1463.83
146450,1464.5
146519,1465.19
146588,1465.88
146658,1466.58
146728,1467.28
146800,1468.0
146872,1468.72
146943,1469.43
147013,1470.13
147084,1470.84
147154,1471.54
147223,1472.23
147293,1472.93
147366,1473.66
147441,1474.41
147515,1475.15
147588,1475.88
147660,1476.6
147730,1477.3
147798,1477.98
147866,1478.66
147937,1479.37
148008,1480.08
148081,1480.81
148152,1481.52
148220,1482.2
148288,1482.88
148356,1483.56
148425,1484.25
148494,1484.94
148562,1485.62
148631,1486.31
148701,1487.01
148773,1487.73
148844,1488.44
148915,1489.15
148987,1489.87
149059,1490.59
149131,1491.31
149200,1492.0
149269,1492.69
149336,1493.36
149404,1494.04
149473,1494.73
149544,1495.44
149614,1496.14
149685,1496.85
149756,1497.56
149829,1498.29
149900,1499.0
149970,1499.7
150038,1500.38
150107,1501.07
150177,1501.77
150251,1502.51
150323,1503.23
150394,1503.94
150462,1504.62
150528,1505.28
150595,1505.95
150662,1506.62
150729,1507.29
150796,1507.96
150863,1508.63
150930,1509.3
150997,1509.97
151065,1510.65
151132,1511.32
151200,1512.0
151271,1512.71
151343,1513.43
151415,1514.15
151484,1514.84
151552,1515.52
151619,1516.19
151686,1516.86
151753,1517.53
151820,1518.2
151885,1518.85
151950,1519.5
152015,1520.15
152080,1520.8
152145,1521.45
152209,1522.09
152275,1522.75
152340,1523.4
152406,1524.06
152472,1524.72
152539,1525.39
152605,1526.05
152673,1526.73
152741,1527.41
152809,1528.09
152877,1528.77
152945,1529.45
153012,1530.12
153078,1530.78
153144,1531.44
153213,1532.13
153282,1532.82
153352,1533.52
153423,1534.23
153494,1534.94
153567,1535.67
153638,1536.38
153710,1537.1
153781,1537.81
153851,1538.51
153920,1539.2
153987,1539.87
154054,1540.54
154120,1541.2
154187,1541.87
154257,1542.57
154329,1543.29
154400,1544.0
154470,1544.7
154539,1545.39
154606,1546.06
154672,1546.72
154738,1547.38
154806,1548.06
154875,1548.75
154943,1549.43
155009,1550.09
155075,1550.75
155138,1551.38
155205,1552.05
155273,1552.73
155337,1553.37
155401,1554.01
155464,1554.64
155527,1555.27
155590,1555.9
155654,1556.54
155718,1557.18
155784,1557.84
155851,1558.51
155918,1559.18
155986,1559.86
156055,1560.55
156128,1561.28
156200,1562.0
156270,1562.7
156340,1563.4
156410,1564.1
156480,1564.8
156550,1565.5
156617,1566.17
156685,1566.85
156755,1567.55
156826,1568.26
156900,1569.0
156973,1569.73
157045,1570.45
157119,1571.19
157195,1571.95
157271,1572.71
157347,1573.47
157424,1574.24
157501,1575.01
157578,1575.78
157654,1576.54
157731,1577.31
157807,1578.07
157882,1578.82
157958,1579.58
158033,1580.33
158108,1581.08
158180,1581.8
158251,1582.51
158322,1583.22
158390,1583.9
158458,1584.58
158525,1585.25
158590,1585.9
158655,1586.55
158722,1587.22
158790,1587.9
158858,1588.58
158927,1589.27
159002,1590.02
159072,1590.72
159163,1591.63
159237,1592.37
159322,1593.22
159394,1593.94
159465,1594.65
159536,1595.36
159606,1596.06
159675,1596.75
159746,1597.46
159816,1598.16
159887,1598.87
159960,1599.6
160032,1600.32
160102,1601.02
160172,1601.72
160242,1602.42
160318,1603.18
160391,1603.91
160464,1604.64
160537,1605.37
160607,1606.07
160675,1606.75
160745,1607.45
160816,1608.16
160886,1608.86
160955,1609.55
161024,1610.24
161096,1610.96
161181,1611.81
161263,1612.63
161340,1613.4
161416,1614.16
161490,1614.9
161561,1615.61
161631,1616.31
161700,1617.0
161771,1617.71
161842,1618.42
161915,1619.15
161989,1619.89
162062,1620.62
162134,1621.34
162205,1622.05
162276,1622.76
162348,1623.48
162420,1624.2
162492,1624.92
162562,1625.62
162633,1626.33
162704,1627.04
162775,1627.75
162847,1628.47
162917,1629.17
162986,1629.86
163052,1630.52
163117,1631.17
163182,1631.82
163246,1632.46
163309,1633.09
163371,1633.71
163433,1634.33
163495,1634.95
163559,1635.59
163624,1636.24
163688,1636.88
163753,1637.53
163820,1638.2
163889,1638.89
163958,1639.58
164027,1640.27
164096,1640.96
164168,1641.68
164240,1642.4
164312,1643.12
164382,1643.82
164450,1644.5
164518,1645.18
164586,1645.86
164655,1646.55
164724,1647.24
164791,1647.91
164859,1648.59
164928,1649.28
164997,1649.97
165066,1650.66
165134,1651.34
165204,1652.04
165277,1652.77
165351,1653.51
165425,1654.25
165500,1655.0
165578,1655.78
165654,1656.54
165730,1657.3
165804,1658.04
165879,1658.79
165953,1659.53
166026,1660.26
166099,1660.99
166171,1661.71
166243,1662.43
166315,1663.15
166388,1663.88
166461,1664.61
166533,1665.33
166604,1666.04
166673,1666.73
166740,1667.4
166808,1668.08
166877,1668.77
166948,1669.48
167017,1670.17
167084,1670.84
167152,1671.52
167220,1672.2
167289,1672.89
167358,1673.58
167425,1674.25
167493,1674.93
167562,1675.62
167632,1676.32
167701,1677.01
167769,1677.69
167838,1678.38
167908,1679.08
167979,1679.79
168050,1680.5
168120,1681.2
168192,1681.92
168263,1682.63
168334,1683.34
168405,1684.05
168477,1684.77
168551,1685.51
168623,1686.23
168694,1686.94
168763,1687.63
168831,1688.31
168903,1689.03
168973,1689.73
169043,1690.43
169113,1691.13
169183,1691.83
169251,1692.51
169319,1693.19
169385,1693.85
169450,1694.5
169514,1695.14
169579,1695.79
169644,1696.44
169709,1697.09
169774,1697.74
169839,1698.39
169908,1699.08
169974,1699.74
170039,1700.39
170101,1701.01
170164,1701.64
170234,1702.34
170300,1703.0
170369,1703.69
170438,1704.38
170507,1705.07
170576,1705.76
170647,1706.47
170719,1707.19
170792,1707.92
170864,1708.64
170939,1709.39
171021,1710.21
171101,1711.01
171178,1711.78
171254,1712.54
171329,1713.29
171403,1714.03
171478,1714.78
171553,1715.53
171628,1716.28
171703,1717.03
171778,1717.78
171853,1718.53
171928,1719.28
172003,1720.03
172078,1720.78
172152,1721.52
172226,1722.26
172303,1723.03
172379,1723.79
172456,1724.56
172533,1725.33
172611,1726.11
172687,1726.87
172761,1727.61
172833,1728.33
172906,1729.06
172982,1729.82
173059,1730.59
173135,1731.35
173210,1732.1
173282,1732.82
173351,1733.51
173421,1734.21
173492,1734.92
173564,1735.64
173635,1736.35
173707,1737.07
173781,1737.81
173853,1738.53
173925,1739.25
173995,1739.95
174065,1740.65
174138,1741.38
174211,1742.11
174284,1742.84
174357,1743.57
174437,1744.37
174517,1745.17
174594,1745.94
174669,1746.69
174743,1747.43
174816,1748.16
174891,1748.91
174966,1749.66
175040,1750.4
175112,1751.12
175182,1751.82
175252,1752.52
175322,1753.22
175394,1753.94
175465,1754.65
175536,1755.36
175606,1756.06
175695,1756.95
175785,1757.85
175864,1758.64
175942,1759.42
176016,1760.16
176085,1760.85
176152,1761.52
176219,1762.19
176283,1762.83
176348,1763.48
176414,1764.14
176480,1764.8
176544,1765.44
176608,1766.08
176672,1766.72
176738,1767.38
176806,1768.06
176875,1768.75
176944,1769.44
177014,1770.14
177083,1770.83
177156,1771.56
177228,1772.28
177299,1772.99
177368,1773.68
177440,1774.4
177518,1775.18
177597,1775.97
177671,1776.71
177743,1777.43
177815,1778.15
177886,1778.86
177954,1779.54
178023,1780.23
178092,1780.92
178160,1781.6
178227,1782.27
178294,1782.94
178363,1783.63
178431,1784.31
178499,1784.99
178567,1785.67
178635,1786.35
178703,1787.03
178771,1787.71
178838,1788.38
178905,1789.05
178970,1789.7
179037,1790.37
179107,1791.07
179178,1791.78
179247,1792.47
179316,1793.16
179385,1793.85
179455,1794.55
179523,1795.23
179592,1795.92
179663,1796.63
179737,1797.37
179813,1798.13
179889,1798.89
179965,1799.65
180039,1800.39
180113,1801.13
180185,1801.85
180256,1802.56
180328,1803.28
180403,1804.03
180482,1804.82
180562,1805.62
180639,1806.39
180714,1807.14
180788,1807.88
180859,1808.59
180929,1809.29
180999,1809.99
181067,1810.67
181136,1811.36
181211,1812.11
181300,1813.0
181389,1813.89
181467,1814.67
181543,1815.43
181616,1816.16
181685,1816.85
181753,1817.53
181820,1818.2
181886,1818.86
181953,1819.53
182022,1820.22
182093,1820.93
182166,1821.66
182249,1822.49
182329,1823.29
182408,1824.08
182485,1824.85
182562,1825.62
182637,1826.37
182713,1827.13
182788,1827.88
182862,1828.62
182936,1829.36
183009,1830.09
183081,1830.81
183153,1831.53
183226,1832.26
183297,1832.97
183366,1833.66
183433,1834.33
183500,1835.0
183564,1835.64
183631,1836.31
183702,1837.02
183777,1837.77
183852,1838.52
183920,1839.2
183991,1839.91
184060,1840.6
184130,1841.3
184203,1842.03
184277,1842.77
184364,1843.64
184452,1844.52
184529,1845.29
184603,1846.03
184675,1846.75
184747,1847.47
184819,1848.19
184890,1848.9
184959,1849.59
185028,1850.28
185096,1850.96
185163,1851.63
185232,1852.32
185300,1853.0
185368,1853.68
185436,1854.36
185503,1855.03
185571,1855.71
185638,1856.38
185707,1857.07
185776,1857.76
185846,1858.46
185915,1859.15
185984,1859.84
186052,1860.52
186121,1861.21
186193,1861.93
186261,1862.61
186326,1863.26
186391,1863.91
186455,1864.55
186519,1865.19
186583,1865.83
186647,1866.47
186710,1867.1
186773,1867.73
186836,1868.36
186897,1868.97
186960,1869.6
187023,1870.23
187087,1870.87
187153,1871.53
187220,1872.2
187287,1872.87
187357,1873.57
187427,1874.27
187496,1874.96
187565,1875.65
187635,1876.35
187705,1877.05
187776,1877.76
187845,1878.45
187912,1879.12
187980,1879.8
188048,1880.48
188116,1881.16
188183,1881.83
188249,1882.49
188317,1883.17
188387,1883.87
188459,1884.59
188533,1885.33
188607,1886.07
188678,1886.78
188750,1887.5
188821,1888.21
188893,1888.93
188965,1889.65
189035,1890.35
189106,1891.06
189176,1891.76
189248,1892.48
189320,1893.2
189391,1893.91
189460,1894.6
189530,1895.3
189599,1895.99
189669,1896.69
189740,1897.4
189811,1898.11
189879,1898.79
189946,1899.46
190015,1900.15
190090,1900.9
190163,1901.63
190236,1902.36
190308,1903.08
190395,1903.95
190482,1904.82
190567,1905.67
190642,1906.42
190715,1907.15
190787,1907.87
190860,1908.6
190932,1909.32
191002,1910.02
191071,1910.71
191145,1911.45
191217,1912.17
191290,1912.9
191361,1913.61
191432,1914.32
191501,1915.01
191569,1915.69
191638,1916.38
191707,1917.07
191777,1917.77
191850,1918.5
191923,1919.23
191993,1919.93
192063,1920.63
192132,1921.32
192201,1922.01
192270,1922.7
192337,1923.37
192409,1924.09
192480,1924.8
192552,1925.52
192623,1926.23
192692,1926.92
192764,1927.64
192836,1928.36
192910,1929.1
192981,1929.81
193050,1930.5
193117,1931.17
193184,1931.84
193251,1932.51
193316,1933.16
193380,1933.8
193445,1934.45
193509,1935.09
193572,1935.72
193635,1936.35
193697,1936.97
193758,1937.58
193820,1938.2
193883,1938.83
193947,1939.47
194012,1940.12
194077,1940.77
194146,1941.46
194226,1942.26
194308,1943.08
194385,1943.85
194463,1944.63
194541,1945.41
194619,1946.19
194695,1946.95
194770,1947.7
194844,1948.44
194917,1949.17
194992,1949.92
195066,1950.66
195138,1951.38
195210,1952.1
195282,1952.82
195354,1953.54
195427,1954.27
195499,1954.99
195572,1955.72
195647,1956.47
195720,1957.2
195788,1957.88
195854,1958.54
195918,1959.18
195982,1959.82
196044,1960.44
196107,1961.07
196169,1961.69
196230,1962.3
196291,1962.91
196354,1963.54
196418,1964.18
196482,1964.82
196548,1965.48
196614,1966.14
196682,1966.82
196765,1967.65
196848,1968.48
196926,1969.26
197007,1970.07
197085,1970.85
197163,1971.63
197239,1972.39
197316,1973.16
197393,1973.93
197470,1974.7
197547,1975.47
197624,1976.24
197699,1976.99
197773,1977.73
197848,1978.48
197925,1979.25
198004,1980.04
198085,1980.85
198165,1981.65
198242,1982.42
198320,1983.2
198400,1984.0
198479,1984.79
198558,1985.58
198637,1986.37
198717,1987.17
198799,1987.99
198880,1988.8
198959,1989.59
199033,1990.33
199105,1991.05
199171,1991.71
199234,1992.34
199297,1992.97
199358,1993.58
199419,1994.19
199480,1994.8
199541,1995.41
199604,1996.04
199667,1996.67
199731,1997.31
199797,1997.97
199868,1998.68
199940,1999.4
200019,2000.19
200102,2001.02
200183,2001.83
200265,2002.65
200347,2003.47
200426,2004.26
200502,2005.02
200578,2005.78
200655,2006.55
200730,2007.3
200806,2008.06
200881,2008.81
200957,2009.57
201033,2010.33
201110,2011.1
201187,2011.87
201264,2012.64
201344,2013.44
201423,2014.23
201502,2015.02
201580,2015.8
201658,2016.58
201736,2017.36
201815,2018.15
201893,2018.93
201970,2019.7
202045,2020.45
202121,2021.21
202195,2021.95
202265,2022.65
202335,2023.35
202406,2024.06
202480,2024.8
202553,2025.53
202625,2026.25
202693,2026.93
202759,2027.59
202824,2028.24
202890,2028.9
202954,2029.54
203017,2030.17
203080,2030.8
203142,2031.42
203206,2032.06
203271,2032.71
203337,2033.37
203404,2034.04
203475,2034.75
203550,2035.5
203624,2036.24
203713,2037.13
203802,2038.02
203880,2038.8
203956,2039.56
204032,2040.32
204108,2041.08
204185,2041.85
204261,2042.61
204335,2043.35
204410,2044.1
204486,2044.86
204563,2045.63
204639,2046.39
204716,2047.16
204796,2047.96
204877,2048.77
204959,2049.59
205041,2050.41
205122,2051.22
205202,2052.02
205281,2052.81
205357,2053.57
205434,2054.34
205511,2055.11
205588,2055.88
205670,2056.7
205753,2057.53
205834,2058.34
205913,2059.13
205990,2059.9
206069,2060.69
206141,2061.41
206207,2062.07
206273,2062.73
206337,2063.37
206400,2064.0
206462,2064.62
206523,2065.23
206586,2065.86
206650,2066.5
206716,2067.16
206782,2067.82
206850,2068.5
206920,2069.2
206991,2069.91
207061,2070.61
207131,2071.31
207206,2072.06
207280,2072.8
207353,2073.53
207434,2074.34
207516,2075.16
207597,2075.97
207674,2076.74
207748,2077.48
207820,2078.2
207894,2078.94
207968,2079.68
208042,2080.42
208120,2081.2
208197,2081.97
208275,2082.75
208356,2083.56
208437,2084.37
208515,2085.15
208592,2085.92
208671,2086.71
208749,2087.49
208826,2088.26
208901,2089.01
208976,2089.76
209050,2090.5
209125,2091.25
209201,2092.01
209275,2092.75
209346,2093.46
209415,2094.15
209485,2094.85
209556,2095.56
209627,2096.27
209696,2096.96
209765,2097.65
209862,2098.62
209959,2099.59
210045,2100.45
210122,2101.22
210196,2101.96
210265,2102.65
210330,2103.3
210394,2103.94
210457,2104.57
210520,2105.2
210582,2105.82
210644,2106.44
210706,2107.06
210767,2107.67
210831,2108.31
210898,2108.98
210970,2109.7
211047,2110.47
211146,2111.46
211246,2112.46
211332,2113.32
211418,2114.18
211508,2115.08
211594,2115.94
211677,2116.77
211760,2117.6
211840,2118.4
211919,2119.19
211995,2119.95
212072,2120.72
212148,2121.48
212225,2122.25
212301,2123.01
212377,2123.77
212453,2124.53
212527,2125.27
212601,2126.01
212674,2126.74
212747,2127.47
212820,2128.2
212894,2128.94
212971,2129.71
213050,2130.5
213129,2131.29
213207,2132.07
213286,2132.86
213365,2133.65
213446,2134.46
213524,2135.24
213601,2136.01
213681,2136.81
213760,2137.6
213837,2138.37
213909,2139.09
213976,2139.76
214040,2140.4
214103,2141.03
214165,2141.65
214227,2142.27
214290,2142.9
214352,2143.52
214415,2144.15
214478,2144.78
214540,2145.4
214602,2146.02
214664,2146.64
214728,2147.28
214794,2147.94
214863,2148.63
214932,2149.32
215003,2150.03
215079,2150.79
215164,2151.64
215249,2152.49
215340,2153.4
215426,2154.26
215516,2155.16
215598,2155.98
215678,2156.78
215756,2157.56
215832,2158.32
215908,2159.08
215983,2159.83
216056,2160.56
216128,2161.28
216201,2162.01
216277,2162.77
216355,2163.55
216433,2164.33
216512,2165.12
216589,2165.89
216666,2166.66
216744,2167.44
216822,2168.22
216898,2168.98
216973,2169.73
217048,2170.48
217124,2171.24
217199,2171.99
217275,2172.75
217349,2173.49
217422,2174.22
217491,2174.91
217559,2175.59
217629,2176.29
217700,2177.0
217770,2177.7
217840,2178.4
217912,2179.12
217985,2179.85
218058,2180.58
218126,2181.26
218191,2181.91
218255,2182.55
218318,2183.18
218381,2183.81
218444,2184.44
218506,2185.06
218568,2185.68
218629,2186.29
218690,2186.9
218751,2187.51
218812,2188.12
218874,2188.74
218938,2189.38
219002,2190.02
219067,2190.67
219135,2191.35
219205,2192.05
219277,2192.77
219349,2193.49
219432,2194.32
219515,2195.15
219598,2195.98
219673,2196.73
219747,2197.47
219818,2198.18
219889,2198.89
219959,2199.59
220031,2200.31
220105,2201.05
220182,2201.82
220261,2202.61
220342,2203.42
220424,2204.24
220504,2205.04
220584,2205.84
220664,2206.64
220746,2207.46
220826,2208.26
220905,2209.05
220984,2209.84
221064,2210.64
221145,2211.45
221224,2212.24
221303,2213.03
221382,2213.82
221461,2214.61
221540,2215.4
221617,2216.17
221693,2216.93
221766,2217.66
221834,2218.34
221899,2218.99
221961,2219.61
222023,2220.23
222083,2220.83
222144,2221.44
222205,2222.05
222267,2222.67
222329,2223.29
222392,2223.92
222455,2224.55
222522,2225.22
222590,2225.9
222659,2226.59
222731,2227.31
222818,2228.18
222906,2229.06
222989,2229.89
223068,2230.68
223145,2231.45
223220,2232.2
223294,2232.94
223367,2233.67
223442,2234.42
223515,2235.15
223588,2235.88
223660,2236.6
223732,2237.32
223803,2238.03
223875,2238.75
223945,2239.45
224015,2240.15
224084,2240.84
224155,2241.55
224225,2242.25
224295,2242.95
224381,2243.81
224463,2244.63
224547,2245.47
224626,2246.26
224705,2247.05
224783,2247.83
224859,2248.59
224934,2249.34
225010,2250.1
225082,2250.82
225154,2251.54
225224,2252.24
225294,2252.94
225363,2253.63
225434,2254.34
225505,2255.05
225572,2255.72
225636,2256.36
225701,2257.01
225764,2257.64
225827,2258.27
225889,2258.89
225951,2259.51
226013,2260.13
226074,2260.74
226135,2261.35
226196,2261.96
226258,2262.58
226321,2263.21
226385,2263.85
226450,2264.5
226516,2265.16
226582,2265.82
226650,2266.5
226720,2267.2
226792,2267.92
226866,2268.66
226956,2269.56
227046,2270.46
227126,2271.26
227205,2272.05
227283,2272.83
227363,2273.63
227443,2274.43
227521,2275.21
227599,2275.99
227677,2276.77
227755,2277.55
227834,2278.34
227910,2279.1
227987,2279.87
228065,2280.65
228143,2281.43
228222,2282.22
228301,2283.01
228378,2283.78
228451,2284.51
228524,2285.24
228596,2285.96
228670,2286.7
228743,2287.43
228815,2288.15
228885,2288.85
228954,2289.54
229025,2290.25
229095,2290.95
229163,2291.63
229228,2292.28
229293,2292.93
229357,2293.57
229423,2294.23
229490,2294.9
229554,2295.54
229619,2296.19
229686,2296.86
229754,2297.54
229820,2298.2
229886,2298.86
229954,2299.54
230025,2300.25
230096,2300.96
230168,2301.68
230241,2302.41
230312,2303.12
230383,2303.83
230456,2304.56
230527,2305.27
230597,2305.97
230669,2306.69
230742,2307.42
230822,2308.22
230903,2309.03
230981,2309.81
231058,2310.58
231136,2311.36
231215,2312.15
231293,2312.93
231369,2313.69
231441,2314.41
231512,2315.12
231584,2315.84
231661,2316.61
231738,2317.38
231813,2318.13
231886,2318.86
231959,2319.59
232048,2320.48
232137,2321.37
232215,2322.15
232295,2322.95
232376,2323.76
232454,2324.54
232529,2325.29
232605,2326.05
232675,2326.75
232741,2327.41
232806,2328.06
232869,2328.69
232932,2329.32
232995,2329.95
233058,2330.58
233121,2331.21
233183,2331.83
233245,2332.45
233307,2333.07
233369,2333.69
233431,2334.31
233493,2334.93
233555,2335.55
233616,2336.16
233677,2336.77
233739,2337.39
233802,2338.02
233866,2338.66
233932,2339.32
233999,2339.99
234066,2340.66
234136,2341.36
234208,2342.08
234280,2342.8
234353,2343.53
234429,2344.29
234504,2345.04
234581,2345.81
234655,2346.55
234730,2347.3
234804,2348.04
234878,2348.78
234954,2349.54
235031,2350.31
235108,2351.08
235182,2351.82
235256,2352.56
235330,2353.3
235404,2354.04
235480,2354.8
235557,2355.57
235634,2356.34
235709,2357.09
235784,2357.84
235858,2358.58
235933,2359.33
236006,2360.06
236080,2360.8
236152,2361.52
236223,2362.23
236293,2362.93
236360,2363.6
236426,2364.26
236491,2364.91
236556,2365.56
236623,2366.23
236691,2366.91
236758,2367.58
236825,2368.25
236892,2368.92
236962,2369.62
237036,2370.36
237108,2371.08
237178,2371.78
237249,2372.49
237319,2373.19
237390,2373.9
237460,2374.6
237529,2375.29
237597,2375.97
237664,2376.64
237729,2377.29
237794,2377.94
237861,2378.61
237929,2379.29
238001,2380.01
238073,2380.73
238142,2381.42
238209,2382.09
238275,2382.75
238344,2383.44
238413,2384.13
238483,2384.83
238552,2385.52
238621,2386.21
238688,2386.88
238755,2387.55
238821,2388.21
238887,2388.87
238952,2389.52
239017,2390.17
239081,2390.81
239145,2391.45
239210,2392.1
239274,2392.74
239339,2393.39
239403,2394.03
239468,2394.68
239532,2395.32
239595,2395.95
239659,2396.59
239722,2397.22
239785,2397.85
239848,2398.48
239910,2399.1
239972,2399.72
240034,2400.34
240096,2400.96
240158,2401.58
240221,2402.21
240285,2402.85
240352,2403.52
240419,2404.19
240488,2404.88
240560,2405.6
240633,2406.33
240708,2407.08
240786,2407.86
240872,2408.72
240959,2409.59
241038,2410.38
241112,2411.12
241187,2411.87
241260,2412.6
241333,2413.33
241409,2414.09
241485,2414.85
241561,2415.61
241638,2416.38
241716,2417.16
241795,2417.95
241875,2418.75
241953,2419.53
242032,2420.32
242108,2421.08
242183,2421.83
242258,2422.58
242335,2423.35
242410,2424.1
242484,2424.84
242557,2425.57
242627,2426.27
242693,2426.93
242756,2427.56
242819,2428.19
242882,2428.82
242944,2429.44
243006,2430.06
243067,2430.67
243128,2431.28
243189,2431.89
243251,2432.51
243314,2433.14
243378,2433.78
243442,2434.42
243509,2435.09
243575,2435.75
243642,2436.42
243710,2437.1
243778,2437.78
243846,2438.46
243915,2439.15
243984,2439.84
244054,2440.54
244122,2441.22
244191,2441.91
244261,2442.61
244333,2443.33
244402,2444.02
244471,2444.71
244540,2445.4
244610,2446.1
244680,2446.8
244750,2447.5
244821,2448.21
244895,2448.95
244972,2449.72
245047,2450.47
245122,2451.22
245200,2452.0
245274,2452.74
245345,2453.45
245416,2454.16
245485,2454.85
245556,2455.56
245628,2456.28
245700,2457.0
245773,2457.73
245843,2458.43
245913,2459.13
245983,2459.83
246053,2460.53
246123,2461.23
246191,2461.91
246259,2462.59
246329,2463.29
246398,2463.98
246469,2464.69
246536,2465.36
246601,2466.01
246665,2466.65
246729,2467.29
246792,2467.92
246855,2468.55
246916,2469.16
246978,2469.78
247042,2470.42
247105,2471.05
247170,2471.7
247234,2472.34
247298,2472.98
247363,2473.63
247430,2474.3
247497,2474.97
247565,2475.65
247633,2476.33
247703,2477.03
247775,2477.75
247846,2478.46
247917,2479.17
247987,2479.87
248058,2480.58
248128,2481.28
248196,2481.96
248265,2482.65
248335,2483.35
248404,2484.04
248472,2484.72
248540,2485.4
248609,2486.09
248678,2486.78
248746,2487.46
248814,2488.14
248884,2488.84
248953,2489.53
249024,2490.24
249097,2490.97
249176,2491.76
249254,2492.54
249333,2493.33
249412,2494.12
249490,2494.9
249566,2495.66
249642,2496.42
249717,2497.17
249792,2497.92
249868,2498.68
249943,2499.43
250018,2500.18
250095,2500.95
250173,2501.73
250252,2502.52
250330,2503.3
250405,2504.05
250478,2504.78
250549,2505.49
250621,2506.21
250695,2506.95
250771,2507.71
250846,2508.46
250917,2509.17
250987,2509.87
251057,2510.57
251128,2511.28
251197,2511.97
251266,2512.66
251344,2513.44
251422,2514.22
251494,2514.94
251564,2515.64
251632,2516.32
251700,2517.0
251767,2517.67
251834,2518.34
251901,2519.01
251969,2519.69
252037,2520.37
252105,2521.05
252174,2521.74
252243,2522.43
252311,2523.11
252385,2523.85
252457,2524.57
252529,2525.29
252600,2526.0
252670,2526.7
252744,2527.44
252815,2528.15
252886,2528.86
252955,2529.55
253023,2530.23
253092,2530.92
253161,2531.61
253229,2532.29
253294,2532.94
253358,2533.58
253421,2534.21
253484,2534.84
253547,2535.47
253609,2536.09
253670,2536.7
253732,2537.32
253795,2537.95
253859,2538.59
253928,2539.28
254011,2540.11
254089,2540.89
254171,2541.71
254245,2542.45
254318,2543.18
254390,2543.9
254461,2544.61
254532,2545.32
254601,2546.01
254668,2546.68
254732,2547.32
254795,2547.95
254857,2548.57
254919,2549.19
254980,2549.8
255041,2550.41
255102,2551.02
255162,2551.62
255222,2552.22
255281,2552.81
255340,2553.4
255399,2553.99
255458,2554.58
255517,2555.17
255576,2555.76
255634,2556.34
255692,2556.92
255749,2557.49
255807,2558.07
255864,2558.64
255921,2559.21
255978,2559.78
256037,2560.37
256095,2560.95
256155,2561.55
256215,2562.15
256275,2562.75
256336,2563.36
256397,2563.97
256459,2564.59
256523,2565.23
256592,2565.92
256661,2566.61
256728,2567.28
256793,2567.93
256857,2568.57
256921,2569.21
256984,2569.84
257047,2570.47
257108,2571.08
257169,2571.69
257229,2572.29
257290,2572.9
257350,2573.5
257411,2574.11
257473,2574.73
257536,2575.36
257600,2576.0
257665,2576.65
257729,2577.29
257795,2577.95
257862,2578.62
257928,2579.28
257994,2579.94
258060,2580.6
258125,2581.25
258190,2581.9
258255,2582.55
258320,2583.2
258384,2583.84
258447,2584.47
258510,2585.1
258572,2585.72
258634,2586.34
258695,2586.95
258757,2587.57
258820,2588.2
258882,2588.82
258945,2589.45
259007,2590.07
259069,2590.69
259131,2591.31
259193,2591.93
259256,2592.56
259320,2593.2
259386,2593.86
259452,2594.52
259518,2595.18
259583,2595.83
259648,2596.48
259714,2597.14
259779,2597.79
259843,2598.43
259907,2599.07
259972,2599.72
260037,2600.37
260102,2601.02
260169,2601.69
260238,2602.38
260309,2603.09
260388,2603.88
260467,2604.67
260542,2605.42
260617,2606.17
260691,2606.91
260765,2607.65
260837,2608.37
260910,2609.1
260984,2609.84
261055,2610.55
261125,2611.25
261194,2611.94
261262,2612.62
261330,2613.3
261398,2613.98
261465,2614.65
261533,2615.33
261602,2616.02
261672,2616.72
261742,2617.42
261812,2618.12
261884,2618.84
261955,2619.55
262025,2620.25
262097,2620.97
262169,2621.69
262240,2622.4
262310,2623.1
262381,2623.81
262451,2624.51
262521,2625.21
262592,2625.92
262663,2626.63
262738,2627.38
262814,2628.14
262886,2628.86
262959,2629.59
263032,2630.32
263106,2631.06
263179,2631.79
263251,2632.51
263332,2633.32
263413,2634.13
263485,2634.85
263555,2635.55
263624,2636.24
263691,2636.91
263758,2637.58
263826,2638.26
263893,2638.93
263959,2639.59
264025,2640.25
264092,2640.92
264159,2641.59
264226,2642.26
264292,2642.92
264360,2643.6
264428,2644.28
264497,2644.97
264566,2645.66
264636,2646.36
264708,2647.08
264779,2647.79
264848,2648.48
264915,2649.15
264982,2649.82
265048,2650.48
265115,2651.15
265181,2651.81
265248,2652.48
265314,2653.14
265381,2653.81
265448,2654.48
265515,2655.15
265583,2655.83
265653,2656.53
265722,2657.22
265791,2657.91
265860,2658.6
265929,2659.29
265999,2659.99
266068,2660.68
266137,2661.37
266207,2662.07
266276,2662.76
266345,2663.45
266413,2664.13
266485,2664.85
266557,2665.57
266627,2666.27
266697,2666.97
266767,2667.67
266839,2668.39
266910,2669.1
266979,2669.79
267048,2670.48
267118,2671.18
267186,2671.86
267254,2672.54
267321,2673.21
267387,2673.87
267452,2674.52
267515,2675.15
267578,2675.78
267642,2676.42
267705,2677.05
267770,2677.7
267836,2678.36
267902,2679.02
267969,2679.69
268037,2680.37
268105,2681.05
268176,2681.76
268246,2682.46
268317,2683.17
268388,2683.88
268459,2684.59
268530,2685.3
268601,2686.01
268674,2686.74
268748,2687.48
268821,2688.21
268893,2688.93
268968,2689.68
269040,2690.4
269113,2691.13
269185,2691.85
269257,2692.57
269331,2693.31
269401,2694.01
269471,2694.71
269540,2695.4
269611,2696.11
269681,2696.81
269752,2697.52
269822,2698.22
269896,2698.96
269966,2699.66
270037,2700.37
270106,2701.06
270176,2701.76
270246,2702.46
270317,2703.17
270387,2703.87
270458,2704.58
270529,2705.29
270599,2705.99
270669,2706.69
270737,2707.37
270803,2708.03
270869,2708.69
270935,2709.35
271000,2710.0
271065,2710.65
271129,2711.29
271193,2711.93
271258,2712.58
271323,2713.23
271388,2713.88
271453,2714.53
271517,2715.17
271581,2715.81
271646,2716.46
271711,2717.11
271776,2717.76
271842,2718.42
271910,2719.1
271978,2719.78
272045,2720.45
272113,2721.13
272181,2721.81
272248,2722.48
272315,2723.15
272381,2723.81
272447,2724.47
272513,2725.13
272579,2725.79
272645,2726.45
272710,2727.1
272776,2727.76
272843,2728.43
272911,2729.11
272981,2729.81
273051,2730.51
273122,2731.22
273192,2731.92
273263,2732.63
273332,2733.32
273401,2734.01
273468,2734.68
273535,2735.35
273602,2736.02
273668,2736.68
273735,2737.35
273802,2738.02
273867,2738.67
273934,2739.34
274002,2740.02
274070,2740.7
274139,2741.39
274207,2742.07
274276,2742.76
274345,2743.45
274413,2744.13
274482,2744.82
274550,2745.5
274618,2746.18
274687,2746.87
274755,2747.55
274823,2748.23
274891,2748.91
274959,2749.59
275027,2750.27
275094,2750.94
275162,2751.62
275230,2752.3
275299,2752.99
275369,2753.69
275438,2754.38
275506,2755.06
275573,2755.73
275640,2756.4
275707,2757.07
275774,2757.74
275841,2758.41
275908,2759.08
275974,2759.74
276040,2760.4
276105,2761.05
276169,2761.69
276232,2762.32
276296,2762.96
276360,2763.6
276424,2764.24
276491,2764.91
276558,2765.58
276627,2766.27
276696,2766.96
276765,2767.65
276832,2768.32
276901,2769.01
276971,2769.71
277043,2770.43
277115,2771.15
277185,2771.85
277255,2772.55
277326,2773.26
277398,2773.98
277473,2774.73
277549,2775.49
277624,2776.24
277699,2776.99
277774,2777.74
277848,2778.48
277921,2779.21
277993,2779.93
278065,2780.65
278136,2781.36
278206,2782.06
278275,2782.75
278344,2783.44
278414,2784.14
278484,2784.84
278554,2785.54
278625,2786.25
278696,2786.96
278766,2787.66
278836,2788.36
278905,2789.05
278974,2789.74
279042,2790.42
279110,2791.1
279178,2791.78
279246,2792.46
279314,2793.14
279383,2793.83
279451,2794.51
279519,2795.19
279587,2795.87
279655,2796.55
279723,2797.23
279790,2797.9
279859,2798.59
279930,2799.3
280003,2800.03
280084,2800.84
280163,2801.63
280240,2802.4
280313,2803.13
280384,2803.84
280453,2804.53
280523,2805.23
280592,2805.92
280662,2806.62
280730,2807.3
280798,2807.98
280865,2808.65
280934,2809.34
281002,2810.02
281068,2810.68
281135,2811.35
281203,2812.03
281271,2812.71
281340,2813.4
281407,2814.07
281475,2814.75
281542,2815.42
281610,2816.1
281678,2816.78
281745,2817.45
281812,2818.12
281879,2818.79
281945,2819.45
282012,2820.12
282080,2820.8
282147,2821.47
282215,2822.15
282283,2822.83
282352,2823.52
282420,2824.2
282488,2824.88
282557,2825.57
282626,2826.26
282694,2826.94
282761,2827.61
282828,2828.28
282895,2828.95
282963,2829.63
283030,2830.3
283096,2830.96
283164,2831.64
283233,2832.33
283302,2833.02
283371,2833.71
283440,2834.4
283509,2835.09
283580,2835.8
283651,2836.51
283722,2837.22
283792,2837.92
283863,2838.63
283933,2839.33
284003,2840.03
284072,2840.72
284141,2841.41
284210,2842.1
284279,2842.79
284348,2843.48
284415,2844.15
284483,2844.83
284551,2845.51
284621,2846.21
284690,2846.9
284760,2847.6
284829,2848.29
284899,2848.99
284971,2849.71
285045,2850.45
285117,2851.17
285191,2851.91
285265,2852.65
285339,2853.39
285414,2854.14
285489,2854.89
285566,2855.66
285639,2856.39
285710,2857.1
285780,2857.8
285849,2858.49
285920,2859.2
285992,2859.92
286065,2860.65
286136,2861.36
286205,2862.05
286272,2862.72
286340,2863.4
286408,2864.08
286475,2864.75
286542,2865.42
286610,2866.1
286679,2866.79
286749,2867.49
286819,2868.19
286889,2868.89
286960,2869.6
287031,2870.31
287102,2871.02
287173,2871.73
287244,2872.44
287314,2873.14
287385,2873.85
287457,2874.57
287529,2875.29
287601,2876.01
287674,2876.74
287746,2877.46
287818,2878.18
287889,2878.89
287960,2879.6
288030,2880.3
288099,2880.99
288168,2881.68
288237,2882.37
288308,2883.08
288378,2883.78
288449,2884.49
288518,2885.18
288588,2885.88
288661,2886.61
288734,2887.34
288806,2888.06
288876,2888.76
288945,2889.45
289015,2890.15
289085,2890.85
289155,2891.55
289225,2892.25
289296,2892.96
289369,2893.69
289441,2894.41
289512,2895.12
289585,2895.85
289659,2896.59
289733,2897.33
289805,2898.05
289878,2898.78
289951,2899.51
290025,2900.25
290100,2901.0
290173,2901.73
290246,2902.46
290318,2903.18
290392,2903.92
290466,2904.66
290536,2905.36
290605,2906.05
290672,2906.72
290740,2907.4
290809,2908.09
290877,2908.77
290945,2909.45
291013,2910.13
291080,2910.8
291148,2911.48
291214,2912.14
291281,2912.81
291349,2913.49
291416,2914.16
291484,2914.84
291553,2915.53
291621,2916.21
291690,2916.9
291759,2917.59
291828,2918.28
291897,2918.97
291966,2919.66
292034,2920.34
292102,2921.02
292170,2921.7
292238,2922.38
292306,2923.06
292375,2923.75
292446,2924.46
292517,2925.17
292590,2925.9
292662,2926.62
292733,2927.33
292803,2928.03
292871,2928.71
292940,2929.4
293011,2930.11
293084,2930.84
293156,2931.56
293228,2932.28
293299,2932.99
293369,2933.69
293440,2934.4
293511,2935.11
293581,2935.81
293652,2936.52
293733,2937.33
293814,2938.14
293891,2938.91
293965,2939.65
294038,2940.38
294111,2941.11
294184,2941.84
294258,2942.58
294331,2943.31
294405,2944.05
294480,2944.8
294557,2945.57
294634,2946.34
294706,2947.06
294778,2947.78
294849,2948.49
294920,2949.2
294991,2949.91
295062,2950.62
295132,2951.32
295203,2952.03
295277,2952.77
295351,2953.51
295423,2954.23
295495,2954.95
295566,2955.66
295634,2956.34
295702,2957.02
295771,2957.71
295838,2958.38
295906,2959.06
295973,2959.73
296043,2960.43
296114,2961.14
296188,2961.88
296260,2962.6
296331,2963.31
296402,2964.02
296473,2964.73
296543,2965.43
296613,2966.13
296682,2966.82
296750,2967.5
296821,2968.21
296891,2968.91
296961,2969.61
297032,2970.32
297105,2971.05
297178,2971.78
297249,2972.49
297320,2973.2
297390,2973.9
297458,2974.58
297527,2975.27
297596,2975.96
297666,2976.66
297734,2977.34
297802,2978.02
297870,2978.7
297938,2979.38
298006,2980.06
298072,2980.72
298139,2981.39
298205,2982.05
298272,2982.72
298339,2983.39
298405,2984.05
298472,2984.72
298539,2985.39
298606,2986.06
298677,2986.77
298749,2987.49
298830,2988.3
298907,2989.07
298987,2989.87
299073,2990.73
299156,2991.56
299236,2992.36
299314,2993.14
299392,2993.92
299466,2994.66
299540,2995.4
299612,2996.12
299684,2996.84
299754,2997.54
299825,2998.25
299896,2998.96
299967,2999.67
300037,3000.37
300107,3001.07
300179,3001.79
300247,3002.47
300316,3003.16
300385,3003.85
300453,3004.53
300521,3005.21
300589,3005.89
300658,3006.58
300724,3007.24
300792,3007.92
300860,3008.6
300929,3009.29
300999,3009.99
301068,3010.68
301137,3011.37
301206,3012.06
301274,3012.74
301342,3013.42
301411,3014.11
301480,3014.8
301548,3015.48
301617,3016.17
301686,3016.86
301756,3017.56
301826,3018.26
301895,3018.95
301965,3019.65
302036,3020.36
302107,3021.07
302178,3021.78
302252,3022.52
302325,3023.25
302399,3023.99
302476,3024.76
302553,3025.53
302630,3026.3
302708,3027.08
302785,3027.85
302860,3028.6
302936,3029.36
303010,3030.1
303083,3030.83
303157,3031.57
303230,3032.3
303308,3033.08
303386,3033.86
303466,3034.66
303545,3035.45
303623,3036.23
303700,3037.0
303778,3037.78
303854,3038.54
303928,3039.28
303997,3039.97
304067,3040.67
304137,3041.37
304209,3042.09
304279,3042.79
304348,3043.48
304422,3044.22
304503,3045.03
304580,3045.8
304653,3046.53
304724,3047.24
304795,3047.95
304865,3048.65
304935,3049.35
305004,3050.04
305073,3050.73
305142,3051.42
305213,3052.13
305282,3052.82
305354,3053.54
305429,3054.29
305503,3055.03
305575,3055.75
305646,3056.46
305717,3057.17
305789,3057.89
305861,3058.61
305933,3059.33
306007,3060.07
306080,3060.8
306152,3061.52
306225,3062.25
306301,3063.01
306377,3063.77
306450,3064.5
306523,3065.23
306594,3065.94
306665,3066.65
306736,3067.36
306806,3068.06
306877,3068.77
306945,3069.45
307014,3070.14
307082,3070.82
307151,3071.51
307220,3072.2
307288,3072.88
307354,3073.54
307420,3074.2
307487,3074.87
307556,3075.56
307625,3076.25
307693,3076.93
307760,3077.6
307827,3078.27
307894,3078.94
307961,3079.61
308030,3080.3
308102,3081.02
308177,3081.77
308251,3082.51
308326,3083.26
308412,3084.12
308496,3084.96
308581,3085.81
308660,3086.6
308740,3087.4
308818,3088.18
308896,3088.96
308973,3089.73
309048,3090.48
309123,3091.23
309199,3091.99
309275,3092.75
309349,3093.49
309423,3094.23
309494,3094.94
309564,3095.64
309632,3096.32
309700,3097.0
309770,3097.7
309842,3098.42
309912,3099.12
309982,3099.82
310066,3100.66
310150,3101.5
310227,3102.27
310300,3103.0
310371,3103.71
310441,3104.41
310520,3105.2
310599,3105.99
310673,3106.73
310748,3107.48
310835,3108.35
310923,3109.23
311004,3110.04
311083,3110.83
311160,3111.6
311238,3112.38
311319,3113.19
311400,3114.0
311479,3114.79
311559,3115.59
311640,3116.4
311719,3117.19
311796,3117.96
311871,3118.71
311944,3119.44
312014,3120.14
312081,3120.81
312146,3121.46
312212,3122.12
312278,3122.78
312346,3123.46
312413,3124.13
312481,3124.81
312551,3125.51
312621,3126.21
312691,3126.91
312766,3127.66
312855,3128.55
312944,3129.44
313024,3130.24
313103,3131.03
313182,3131.82
313259,3132.59
313335,3133.35
313413,3134.13
313491,3134.91
313570,3135.7
313648,3136.48
313727,3137.27
313806,3138.06
313886,3138.86
313967,3139.67
314048,3140.48
314130,3141.3
314211,3142.11
314290,3142.9
314367,3143.67
314444,3144.44
314521,3145.21
314597,3145.97
314672,3146.72
314745,3147.45
314814,3148.14
314882,3148.82
314952,3149.52
315022,3150.22
315093,3150.93
315164,3151.64
315252,3152.52
315340,3153.4
315420,3154.2
315497,3154.97
315574,3155.74
315647,3156.47
315716,3157.16
315785,3157.85
315859,3158.59
315925,3159.25
315991,3159.91
316057,3160.57
316122,3161.22
316186,3161.86
316252,3162.52
316319,3163.19
316387,3163.87
316456,3164.56
316529,3165.29
316610,3166.1
316695,3166.95
316776,3167.76
316865,3168.65
316954,3169.54
317031,3170.31
317108,3171.08
317185,3171.85
317260,3172.6
317335,3173.35
317410,3174.1
317486,3174.86
317563,3175.63
317641,3176.41
317718,3177.18
317795,3177.95
317872,3178.72
317950,3179.5
318028,3180.28
318106,3181.06
318185,3181.85
318265,3182.65
318346,3183.46
318427,3184.27
318507,3185.07
318589,3185.89
318671,3186.71
318753,3187.53
318833,3188.33
318912,3189.12
318992,3189.92
319070,3190.7
319149,3191.49
319224,3192.24
319295,3192.95
319362,3193.62
319429,3194.29
319495,3194.95
319561,3195.61
319627,3196.27
319693,3196.93
319760,3197.6
319828,3198.28
319897,3198.97
319967,3199.67
320042,3200.42
320117,3201.17
320205,3202.05
320294,3202.94
320375,3203.75
320455,3204.55
320535,3205.35
320613,3206.13
320690,3206.9
320765,3207.65
320841,3208.41
320917,3209.17
320991,3209.91
321066,3210.66
321142,3211.42
321217,3212.17
321294,3212.94
321370,3213.7
321446,3214.46
321522,3215.22
321597,3215.97
321674,3216.74
321747,3217.47
321819,3218.19
321890,3218.9
321961,3219.61
322049,3220.49
322137,3221.37
322215,3222.15
322292,3222.92
322368,3223.68
322441,3224.41
322514,3225.14
322588,3225.88
322674,3226.74
322755,3227.55
322837,3228.37
322919,3229.19
322997,3229.97
323071,3230.71
323143,3231.43
323210,3232.1
323275,3232.75
323341,3233.41
323407,3234.07
323473,3234.73
323539,3235.39
323606,3236.06
323673,3236.73
323738,3237.38
323803,3238.03
323869,3238.69
323936,3239.36
324004,3240.04
324072,3240.72
324143,3241.43
324216,3242.16
324291,3242.91
324367,3243.67
324439,3244.39
324518,3245.18
324598,3245.98
324674,3246.74
324748,3247.48
324822,3248.22
324900,3249.0
324979,3249.79
325053,3250.53
325130,3251.3
325211,3252.11
325289,3252.89
325364,3253.64
325439,3254.39
325512,3255.12
325585,3255.85
325657,3256.57
325728,3257.28
325798,3257.98
325869,3258.69
325944,3259.44
326018,3260.18
326092,3260.92
326165,3261.65
326240,3262.4
326334,3263.34
326429,3264.29
326513,3265.13
326592,3265.92
326672,3266.72
326752,3267.52
326831,3268.31
326909,3269.09
326990,3269.9
327071,3270.71
327147,3271.47
327224,3272.24
327305,3273.05
327378,3273.78
327450,3274.5
327524,3275.24
327595,3275.95
327680,3276.8
327766,3277.66
327845,3278.45
327917,3279.17
327986,3279.86
328054,3280.54
328120,3281.2
328186,3281.86
328251,3282.51
328315,3283.15
328379,3283.79
328442,3284.42
328505,3285.05
328567,3285.67
328630,3286.3
328693,3286.93
328757,3287.57
328820,3288.2
328883,3288.83
328946,3289.46
329010,3290.1
329077,3290.77
329149,3291.49
329233,3292.33
329312,3293.12
329392,3293.92
329475,3294.75
329561,3295.61
329645,3296.45
329728,3297.28
329809,3298.09
329891,3298.91
329974,3299.74
330058,3300.58
330143,3301.43
330227,3302.27
330307,3303.07
330390,3303.9
330471,3304.71
330554,3305.54
330634,3306.34
330711,3307.11
330790,3307.9
330868,3308.68
330945,3309.45
331022,3310.22
331100,3311.0
331179,3311.79
331255,3312.55
331331,3313.31
331406,3314.06
331478,3314.78
331548,3315.48
331619,3316.19
331690,3316.9
331761,3317.61
331835,3318.35
331918,3319.18
332005,3320.05
332092,3320.92
332170,3321.7
332244,3322.44
332313,3323.13
332382,3323.82
332452,3324.52
332520,3325.2
332586,3325.86
332652,3326.52
332716,3327.16
332780,3327.8
332844,3328.44
332907,3329.07
332971,3329.71
333035,3330.35
333101,3331.01
333168,3331.68
333235,3332.35
333306,3333.06
333381,3333.81
333474,3334.74
333568,3335.68
333651,3336.51
333732,3337.32
333813,3338.13
333892,3338.92
333970,3339.7
334050,3340.5
334130,3341.3
334210,3342.1
334293,3342.93
334374,3343.74
334455,3344.55
334535,3345.35
334616,3346.16
334696,3346.96
334775,3347.75
334856,3348.56
334938,3349.38
335018,3350.18
335097,3350.97
335176,3351.76
335254,3352.54
335333,3353.33
335413,3354.13
335491,3354.91
335570,3355.7
335648,3356.48
335727,3357.27
335805,3358.05
335883,3358.83
335963,3359.63
336045,3360.45
336120,3361.2
336207,3362.07
336284,3362.84
336353,3363.53
336419,3364.19
336483,3364.83
336547,3365.47
336609,3366.09
336672,3366.72
336735,3367.35
336797,3367.97
336860,3368.6
336926,3369.26
336994,3369.94
337081,3370.81
337165,3371.65
337257,3372.57
337342,3373.42
337425,3374.25
337508,3375.08
337592,3375.92
337674,3376.74
337755,3377.55
337835,3378.35
337914,3379.14
337993,3379.93
338071,3380.71
338148,3381.48
338229,3382.29
338309,3383.09
338390,3383.9
338471,3384.71
338552,3385.52
338632,3386.32
338714,3387.14
338797,3387.97
338880,3388.8
338963,3389.63
339048,3390.48
339132,3391.32
339216,3392.16
339299,3392.99
339384,3393.84
339471,3394.71
339555,3395.55
339636,3396.36
339717,3397.17
339798,3397.98
339878,3398.78
339959,3399.59
340036,3400.36
340115,3401.15
340192,3401.92
340270,3402.7
340348,3403.48
340426,3404.26
340505,3405.05
340580,3405.8
340656,3406.56
340740,3407.4
340812,3408.12
340885,3408.85
340960,3409.6
341033,3410.33
341104,3411.04
341194,3411.94
341278,3412.78
341364,3413.64
341443,3414.43
341525,3415.25
341605,3416.05
341682,3416.82
341756,3417.56
341824,3418.24
341890,3418.9
341955,3419.55
342020,3420.2
342085,3420.85
342148,3421.48
342210,3422.1
342273,3422.73
342336,3423.36
342399,3423.99
342461,3424.61
342524,3425.24
342586,3425.86
342649,3426.49
342711,3427.11
342774,3427.74
342839,3428.39
342913,3429.13
342984,3429.84
343061,3430.61
343135,3431.35
343214,3432.14
343297,3432.97
343378,3433.78
343458,3434.58
343538,3435.38
343618,3436.18
343698,3436.98
343778,3437.78
343858,3438.58
343937,3439.37
344016,3440.16
344093,3440.93
344171,3441.71
344248,3442.48
344326,3443.26
344405,3444.05
344482,3444.82
344559,3445.59
344636,3446.36
344712,3447.12
344790,3447.9
344866,3448.66
344938,3449.38
345008,3450.08
345079,3450.79
345152,3451.52
345226,3452.26
345301,3453.01
345373,3453.73
345444,3454.44
345517,3455.17
345588,3455.88
345656,3456.56
345723,3457.23
345788,3457.88
345852,3458.52
345915,3459.15
345977,3459.77
346039,3460.39
346100,3461.0
346161,3461.61
346221,3462.21
346283,3462.83
346347,3463.47
346416,3464.16
346489,3464.89
346579,3465.79
346669,3466.69
346753,3467.53
346835,3468.35
346918,3469.18
346997,3469.97
347076,3470.76
347156,3471.56
347234,3472.34
347312,3473.12
347392,3473.92
347473,3474.73
347556,3475.56
347639,3476.39
347721,3477.21
347803,3478.03
347886,3478.86
347967,3479.67
348052,3480.52
348104,3481.04
348158,3481.58
348218,3482.18
348279,3482.79
348353,3483.53
348423,3484.23
348491,3484.91
348559,3485.59
348626,3486.26
348697,3486.97
348768,3487.68
348842,3488.42
348917,3489.17
349010,3490.1
349104,3491.04
349186,3491.86
349266,3492.66
349345,3493.45
349423,3494.23
349501,3495.01
349578,3495.78
349648,3496.48
349715,3497.15
349781,3497.81
349845,3498.45
349908,3499.08
349971,3499.71
350033,3500.33
350095,3500.95
350156,3501.56
350216,3502.16
350278,3502.78
350343,3503.43
350414,3504.14
350502,3505.02
350585,3505.85
350669,3506.69
350761,3507.61
350852,3508.52
350940,3509.4
351027,3510.27
351114,3511.14
351201,3512.01
351286,3512.86
351368,3513.68
351450,3514.5
351531,3515.31
351612,3516.12
351692,3516.92
351770,3517.7
351846,3518.46
351922,3519.22
351998,3519.98
352076,3520.76
352153,3521.53
352233,3522.33
352311,3523.11
352391,3523.91
352470,3524.7
352545,3525.45
352615,3526.15
352685,3526.85
352754,3527.54
352824,3528.24
352893,3528.93
352961,3529.61
353031,3530.31
353102,3531.02
353173,3531.73
353242,3532.42
353311,3533.11
353393,3533.93
353476,3534.76
353551,3535.51
353622,3536.22
353694,3536.94
353770,3537.7
353846,3538.46
353920,3539.2
354005,3540.05
354084,3540.84
354160,3541.6
354235,3542.35
354308,3543.08
354380,3543.8
354454,3544.54
354527,3545.27
354599,3545.99
354670,3546.7
354760,3547.6
354845,3548.45
354934,3549.34
355011,3550.11
355088,3550.88
355163,3551.63
355239,3552.39
355314,3553.14
355385,3553.85
355453,3554.53
355523,3555.23
355604,3556.04
355685,3556.85
355758,3557.58
355829,3558.29
355917,3559.17
356006,3560.06
356087,3560.87
356162,3561.62
356235,3562.35
356306,3563.06
356376,3563.76
356445,3564.45
356515,3565.15
356587,3565.87
356656,3566.56
356724,3567.24
356793,3567.93
356863,3568.63
356933,3569.33
357001,3570.01
357070,3570.7
357143,3571.43
357221,3572.21
357294,3572.94
357368,3573.68
357444,3574.44
357521,3575.21
357594,3575.94
357663,3576.63
357730,3577.3
357796,3577.96
357861,3578.61
357927,3579.27
357993,3579.93
358060,3580.6
358129,3581.29
358199,3581.99
358271,3582.71
358352,3583.52
358433,3584.33
358522,3585.22
358612,3586.12
358688,3586.88
358765,3587.65
358842,3588.42
358918,3589.18
358994,3589.94
359069,3590.69
359145,3591.45
359222,3592.22
359299,3592.99
359375,3593.75
359450,3594.5
359524,3595.24
359594,3595.94
359663,3596.63
359731,3597.31
359798,3597.98
359865,3598.65
359934,3599.34
360003,3600.03
360073,3600.73
360140,3601.4
360207,3602.07
360273,3602.73
360338,3603.38
360402,3604.02
360466,3604.66
360532,3605.32
360599,3605.99
360673,3606.73
360757,3607.57
360842,3608.42
360923,3609.23
361003,3610.03
361082,3610.82
361160,3611.6
361240,3612.4
361320,3613.2
361400,3614.0
361479,3614.79
361559,3615.59
361640,3616.4
361722,3617.22
361803,3618.03
361881,3618.81
361960,3619.6
362039,3620.39
362119,3621.19
362197,3621.97
362276,3622.76
362351,3623.51
362424,3624.24
362498,3624.98
362572,3625.72
362640,3626.4
362705,3627.05
362769,3627.69
362832,3628.32
362894,3628.94
362955,3629.55
363015,3630.15
363075,3630.75
363136,3631.36
363196,3631.96
363257,3632.57
363318,3633.18
363380,3633.8
363441,3634.41
363504,3635.04
363567,3635.67
363637,3636.37
363717,3637.17
363798,3637.98
363878,3638.78
363957,3639.57
364036,3640.36
364114,3641.14
364193,3641.93
364272,3642.72
364353,3643.53
364434,3644.34
364515,3645.15
364599,3645.99
364684,3646.84
364768,3647.68
364854,3648.54
364944,3649.44
365032,3650.32
365123,3651.23
365209,3652.09
365293,3652.93
365376,3653.76
365460,3654.6
365542,3655.42
365622,3656.22
365701,3657.01
365781,3657.81
365858,3658.58
365934,3659.34
366009,3660.09
366083,3660.83
366157,3661.57
366229,3662.29
366300,3663.0
366373,3663.73
366446,3664.46
366518,3665.18
366609,3666.09
366700,3667.0
366778,3667.78
366853,3668.53
366922,3669.22
366988,3669.88
367053,3670.53
367117,3671.17
367180,3671.8
367242,3672.42
367304,3673.04
367365,3673.65
367427,3674.27
367488,3674.88
367549,3675.49
367614,3676.14
367683,3676.83
367770,3677.7
367850,3678.5
367939,3679.39
368021,3680.21
368103,3681.03
368186,3681.86
368272,3682.72
368360,3683.6
368448,3684.48
368533,3685.33
368618,3686.18
368703,3687.03
368789,3687.89
368871,3688.71
368953,3689.53
369035,3690.35
369118,3691.18
369202,3692.02
369283,3692.83
369365,3693.65
369446,3694.46
369528,3695.28
369611,3696.11
369689,3696.89
369766,3697.66
369842,3698.42
369919,3699.19
369997,3699.97
370074,3700.74
370150,3701.5
370221,3702.21
370289,3702.89
370362,3703.62
370436,3704.36
370507,3705.07
370579,3705.79
370653,3706.53
370726,3707.26
370798,3707.98
370869,3708.69
370941,3709.41
371019,3710.19
371098,3710.98
371169,3711.69
371238,3712.38
371308,3713.08
371379,3713.79
371450,3714.5
371522,3715.22
371592,3715.92
371663,3716.63
371744,3717.44
371826,3718.26
371900,3719.0
371973,3719.73
372051,3720.51
372124,3721.24
372196,3721.96
372266,3722.66
372337,3723.37
372409,3724.09
372480,3724.8
372550,3725.5
372622,3726.22
372696,3726.96
372777,3727.77
372858,3728.58
372931,3729.31
373005,3730.05
373079,3730.79
373151,3731.51
373222,3732.22
373295,3732.95
373369,3733.69
373440,3734.4
373510,3735.1
373579,3735.79
373649,3736.49
373718,3737.18
373787,3737.87
373856,3738.56
373930,3739.3
374008,3740.08
374086,3740.86
374159,3741.59
374230,3742.3
374301,3743.01
374372,3743.72
374443,3744.43
374515,3745.15
374587,3745.87
374659,3746.59
374745,3747.45
374832,3748.32
374907,3749.07
374980,3749.8
375053,3750.53
375125,3751.25
375196,3751.96
375267,3752.67
375339,3753.39
375410,3754.1
375479,3754.79
375547,3755.47
375616,3756.16
375684,3756.84
375754,3757.54
375823,3758.23
375895,3758.95
375968,3759.68
376043,3760.43
376115,3761.15
376185,3761.85
376254,3762.54
376324,3763.24
376394,3763.94
376465,3764.65
376539,3765.39
376610,3766.1
376680,3766.8
376751,3767.51
376822,3768.22
376894,3768.94
376964,3769.64
377035,3770.35
377106,3771.06
377177,3771.77
377249,3772.49
377320,3773.2
377395,3773.95
377467,3774.67
377537,3775.37
377607,3776.07
377676,3776.76
377746,3777.46
377816,3778.16
377887,3778.87
377958,3779.58
378027,3780.27
378096,3780.96
378166,3781.66
378237,3782.37
378307,3783.07
378377,3783.77
378448,3784.48
378520,3785.2
378590,3785.9
378660,3786.6
378732,3787.32
378814,3788.14
378897,3788.97
378971,3789.71
379044,3790.44
379117,3791.17
379191,3791.91
379265,3792.65
379335,3793.35
379403,3794.03
379470,3794.7
379538,3795.38
379606,3796.06
379674,3796.74
379740,3797.4
379808,3798.08
379876,3798.76
379945,3799.45
380014,3800.14
380082,3800.82
380152,3801.52
380221,3802.21
380291,3802.91
380358,3803.58
380424,3804.24
380490,3804.9
380555,3805.55
380620,3806.2
380685,3806.85
380751,3807.51
380823,3808.23
380908,3809.08
380990,3809.9
381076,3810.76
381158,3811.58
381239,3812.39
381319,3813.19
381397,3813.97
381475,3814.75
381552,3815.52
381629,3816.29
381706,3817.06
381780,3817.8
381854,3818.54
381929,3819.29
382003,3820.03
382078,3820.78
382155,3821.55
382234,3822.34
382314,3823.14
382393,3823.93
382473,3824.73
382552,3825.52
382632,3826.32
382711,3827.11
382788,3827.88
382862,3828.62
382933,3829.33
382998,3829.98
383061,3830.61
383123,3831.23
383184,3831.84
383244,3832.44
383306,3833.06
383369,3833.69
383432,3834.32
383496,3834.96
383563,3835.63
383631,3836.31
383704,3837.04
383778,3837.78
383852,3838.52
383929,3839.29
384004,3840.04
384085,3840.85
384167,3841.67
384246,3842.46
384326,3843.26
384403,3844.03
384478,3844.78
384556,3845.56
384635,3846.35
384710,3847.1
384783,3847.83
384857,3848.57
384943,3849.43
385024,3850.24
385104,3851.04
385185,3851.85
385264,3852.64
385345,3853.45
385424,3854.24
385502,3855.02
385577,3855.77
385650,3856.5
385722,3857.22
385793,3857.93
385866,3858.66
385938,3859.38
386023,3860.23
386109,3861.09
386189,3861.89
386267,3862.67
386339,3863.39
386412,3864.12
386501,3865.01
386578,3865.78
386653,3866.53
386726,3867.26
386814,3868.14
386898,3868.98
386981,3869.81
387060,3870.6
387143,3871.43
387225,3872.25
387306,3873.06
387385,3873.85
387467,3874.67
387544,3875.44
387621,3876.21
387697,3876.97
387773,3877.73
387848,3878.48
387924,3879.24
388000,3880.0
388079,3880.79
388157,3881.57
388234,3882.34
388314,3883.14
388393,3883.93
388470,3884.7
388542,3885.42
388610,3886.1
388678,3886.78
388746,3887.46
388815,3888.15
388883,3888.83
388949,3889.49
389015,3890.15
389080,3890.8
389145,3891.45
389212,3892.12
389279,3892.79
389347,3893.47
389419,3894.19
389490,3894.9
389563,3895.63
389636,3896.36
389707,3897.07
389780,3897.8
389853,3898.53
389925,3899.25
389996,3899.96
390077,3900.77
390153,3901.53
390238,3902.38
390323,3903.23
390402,3904.02
390478,3904.78
390554,3905.54
390632,3906.32
390704,3907.04
390773,3907.73
390841,3908.41
390910,3909.1
390978,3909.78
391047,3910.47
391116,3911.16
391186,3911.86
391257,3912.57
391330,3913.3
391404,3914.04
391478,3914.78
391559,3915.59
391641,3916.41
391715,3917.15
391786,3917.86
391857,3918.57
391928,3919.28
392000,3920.0
392071,3920.71
392141,3921.41
392216,3922.16
392288,3922.88
392360,3923.6
392430,3924.3
392500,3925.0
392571,3925.71
392642,3926.42
392713,3927.13
392784,3927.84
392855,3928.55
392933,3929.33
393012,3930.12
393085,3930.85
393157,3931.57
393232,3932.32
393310,3933.1
393387,3933.87
393463,3934.63
393537,3935.37
393628,3936.28
393719,3937.19
393799,3937.99
393878,3938.78
393954,3939.54
394031,3940.31
394106,3941.06
394182,3941.82
394259,3942.59
394338,3943.38
394413,3944.13
394485,3944.85
394555,3945.55
394628,3946.28
394700,3947.0
394773,3947.73
394846,3948.46
394918,3949.18
394996,3949.96
395074,3950.74
395146,3951.46
395216,3952.16
395287,3952.87
395357,3953.57
395426,3954.26
395493,3954.93
395560,3955.6
395627,3956.27
395694,3956.94
395760,3957.6
395828,3958.28
395896,3958.96
395966,3959.66
396036,3960.36
396107,3961.07
396182,3961.82
396257,3962.57
396330,3963.3
396403,3964.03
396488,3964.88
396573,3965.73
396654,3966.54
396730,3967.3
396801,3968.01
396872,3968.72
396943,3969.43
397015,3970.15
397084,3970.84
397154,3971.54
397224,3972.24
397294,3972.94
397366,3973.66
397436,3974.36
397504,3975.04
397570,3975.7
397637,3976.37
397708,3977.08
397779,3977.79
397849,3978.49
397918,3979.18
397987,3979.87
398056,3980.56
398124,3981.24
398193,3981.93
398262,3982.62
398332,3983.32
398399,3983.99
398465,3984.65
398530,3985.3
398594,3985.94
398656,3986.56
398719,3987.19
398781,3987.81
398843,3988.43
398903,3989.03
398963,3989.63
399023,3990.23
399084,3990.84
399148,3991.48
399214,3992.14
399282,3992.82
399361,3993.61
399438,3994.38
399517,3995.17
399596,3995.96
399673,3996.73
399751,3997.51
399830,3998.3
399909,3999.09
399987,3999.87
400064,4000.64
400141,4001.41
400217,4002.17
400293,4002.93
400368,4003.68
400444,4004.44
400521,4005.21
400599,4005.99
400677,4006.77
400756,4007.56
400836,4008.36
400916,4009.16
400995,4009.95
401074,4010.74
401150,4011.5
401228,4012.28
401305,4013.05
401382,4013.82
401459,4014.59
401536,4015.36
401612,4016.12
401687,4016.87
401758,4017.58
401827,4018.27
401895,4018.95
401964,4019.64
402034,4020.34
402105,4021.05
402175,4021.75
402244,4022.44
402314,4023.14
402386,4023.86
402459,4024.59
402534,4025.34
402608,4026.08
402691,4026.91
402771,4027.71
402847,4028.47
402923,4029.23
402999,4029.99
403072,4030.72
403144,4031.44
403216,4032.16
403285,4032.85
403353,4033.53
403423,4034.23
403495,4034.95
403570,4035.7
403645,4036.45
403720,4037.2
403793,4037.93
403868,4038.68
403943,4039.43
404017,4040.17
404088,4040.88
404158,4041.58
404227,4042.27
404296,4042.96
404364,4043.64
404432,4044.32
404500,4045.0
404569,4045.69
404640,4046.4
404711,4047.11
404781,4047.81
404851,4048.51
404923,4049.23
404995,4049.95
405067,4050.67
405138,4051.38
405209,4052.09
405285,4052.85
405358,4053.58
405430,4054.3
405503,4055.03
405575,4055.75
405647,4056.47
405718,4057.18
405788,4057.88
405858,4058.58
405930,4059.3
406003,4060.03
406076,4060.76
406153,4061.53
406226,4062.26
406300,4063.0
406372,4063.72
406443,4064.43
406518,4065.18
406594,4065.94
406668,4066.68
406741,4067.41
406815,4068.15
406888,4068.88
406960,4069.6
407031,4070.31
407102,4071.02
407174,4071.74
407246,4072.46
407318,4073.18
407390,4073.9
407466,4074.66
407541,4075.41
407614,4076.14
407687,4076.87
407759,4077.59
407830,4078.3
407901,4079.01
407970,4079.7
408039,4080.39
408108,4081.08
408179,4081.79
408250,4082.5
408318,4083.18
408388,4083.88
408458,4084.58
408529,4085.29
408601,4086.01
408671,4086.71
408743,4087.43
408815,4088.15
408885,4088.85
408956,4089.56
409027,4090.27
409099,4090.99
409173,4091.73
409246,4092.46
409321,4093.21
409396,4093.96
409472,4094.72
409545,4095.45
409616,4096.16
409689,4096.89
409762,4097.62
409835,4098.35
409909,4099.09
409982,4099.82
410051,4100.51
410122,4101.22
410193,4101.93
410265,4102.65
410335,4103.35
410402,4104.02
410468,4104.68
410534,4105.34
410597,4105.97
410661,4106.61
410724,4107.24
410787,4107.87
410850,4108.5
410912,4109.12
410974,4109.74
411037,4110.37
411099,4110.99
411161,4111.61
411223,4112.23
411285,4112.85
411346,4113.46
411408,4114.08
411470,4114.7
411534,4115.34
411601,4116.01
411669,4116.69
411740,4117.4
411811,4118.11
411883,4118.83
411957,4119.57
412030,4120.3
412104,4121.04
412177,4121.77
412251,4122.51
412326,4123.26
412402,4124.02
412475,4124.75
412550,4125.5
412628,4126.28
412705,4127.05
412785,4127.85
412863,4128.63
412941,4129.41
413019,4130.19
413099,4130.99
413176,4131.76
413252,4132.52
413329,4133.29
413405,4134.05
413480,4134.8
413555,4135.55
413630,4136.3
413704,4137.04
413779,4137.79
413848,4138.48
413916,4139.16
413984,4139.84
414052,4140.52
414120,4141.2
414189,4141.89
414263,4142.63
414339,4143.39
414411,4144.11
414480,4144.8
414549,4145.49
414618,4146.18
414687,4146.87
414754,4147.54
414820,4148.2
414889,4148.89
414959,4149.59
415030,4150.3
415102,4151.02
415174,4151.74
415254,4152.54
415332,4153.32
415410,4154.1
415488,4154.88
415563,4155.63
415640,4156.4
415717,4157.17
415792,4157.92
415865,4158.65
415937,4159.37
416010,4160.1
416083,4160.83
416155,4161.55
416226,4162.26
416297,4162.97
416370,4163.7
416444,4164.44
416518,4165.18
416592,4165.92
416666,4166.66
416738,4167.38
416807,4168.07
416877,4168.77
416947,4169.47
417016,4170.16
417085,4170.85
417156,4171.56
417227,4172.27
417299,4172.99
417368,4173.68
417438,4174.38
417509,4175.09
417579,4175.79
417651,4176.51
417722,4177.22
417793,4177.93
417868,4178.68
417941,4179.41
418015,4180.15
418087,4180.87
418156,4181.56
418225,4182.25
418299,4182.99
418374,4183.74
418443,4184.43
418511,4185.11
418580,4185.8
418649,4186.49
418717,4187.17
418787,4187.87
418858,4188.58
418941,4189.41
419019,4190.19
419098,4190.98
419168,4191.68
419238,4192.38
419315,4193.15
419393,4193.93
419463,4194.63
419534,4195.34
419605,4196.05
419676,4196.76
419745,4197.45
419815,4198.15
419886,4198.86
419957,4199.57
420027,4200.27
420097,4200.97
420167,4201.67
420237,4202.37
420306,4203.06
420373,4203.73
420440,4204.4
420508,4205.08
420575,4205.75
420644,4206.44
420711,4207.11
420779,4207.79
420848,4208.48
420917,4209.17
420986,4209.86
421055,4210.55
421124,4211.24
421193,4211.93
421263,4212.63
421333,4213.33
421403,4214.03
421473,4214.73
421548,4215.48
421622,4216.22
421695,4216.95
421767,4217.67
421842,4218.42
421914,4219.14
421988,4219.88
422064,4220.64
422135,4221.35
422208,4222.08
422282,4222.82
422356,4223.56
422429,4224.29
422502,4225.02
422580,4225.8
422659,4226.59
422732,4227.32
422804,4228.04
422875,4228.75
422947,4229.47
423018,4230.18
423089,4230.89
423159,4231.59
423230,4232.3
423303,4233.03
423377,4233.77
423449,4234.49
423521,4235.21
423593,4235.93
423663,4236.63
423733,4237.33
423802,4238.02
423870,4238.7
423938,4239.38
424006,4240.06
424076,4240.76
424145,4241.45
424213,4242.13
424281,4242.81
424351,4243.51
424423,4244.23
424497,4244.97
424570,4245.7
424645,4246.45
424719,4247.19
424794,4247.94
424869,4248.69
424940,4249.4
425010,4250.1
425081,4250.81
425152,4251.52
425222,4252.22
425293,4252.93
425366,4253.66
425439,4254.39
425510,4255.1
425582,4255.82
425655,4256.55
425729,4257.29
425799,4257.99
425868,4258.68
425938,4259.38
426007,4260.07
426076,4260.76
426144,4261.44
426212,4262.12
426280,4262.8
426350,4263.5
426418,4264.18
426488,4264.88
426558,4265.58
426632,4266.32
426705,4267.05
426777,4267.77
426848,4268.48
426918,4269.18
426988,4269.88
427059,4270.59
427132,4271.32
427203,4272.03
427273,4272.73
427343,4273.43
427415,4274.15
427485,4274.85
427555,4275.55
427625,4276.25
427695,4276.95
427766,4277.66
427838,4278.38
427909,4279.09
427981,4279.81
428055,4280.55
428127,4281.27
428199,4281.99
428270,4282.7
428342,4283.42
428416,4284.16
428490,4284.9
428561,4285.61
428631,4286.31
428703,4287.03
428773,4287.73
428844,4288.44
428914,4289.14
428985,4289.85
429058,4290.58
429130,4291.3
429200,4292.0
429269,4292.69
429339,4293.39
429407,4294.07
429475,4294.75
429542,4295.42
429609,4296.09
429677,4296.77
429744,4297.44
429811,4298.11
429880,4298.8
429948,4299.48
430018,4300.18
430087,4300.87
430159,4301.59
430230,4302.3
430301,4303.01
430372,4303.72
430441,4304.41
430511,4305.11
430582,4305.82
430653,4306.53
430724,4307.24
430795,4307.95
430867,4308.67
430939,4309.39
431010,4310.1
431080,4310.8
431151,4311.51
431221,4312.21
431291,4312.91
431360,4313.6
431430,4314.3
431501,4315.01
431571,4315.71
431637,4316.37
431703,4317.03
431769,4317.69
431835,4318.35
431901,4319.01
431966,4319.66
432032,4320.32
432099,4320.99
432167,4321.67
432236,4322.36
432303,4323.03
432372,4323.72
432441,4324.41
432510,4325.1
432579,4325.79
432651,4326.51
432724,4327.24
432796,4327.96
432867,4328.67
432938,4329.38
433009,4330.09
433081,4330.81
433150,4331.5
433216,4332.16
433280,4332.8
433344,4333.44
433406,4334.06
433469,4334.69
433531,4335.31
433592,4335.92
433654,4336.54
433714,4337.14
433775,4337.75
433836,4338.36
433895,4338.95
433956,4339.56
434018,4340.18
434081,4340.81
434145,4341.45
434211,4342.11
434278,4342.78
434348,4343.48
434421,4344.21
434495,4344.95
434569,4345.69
434643,4346.43
434718,4347.18
434793,4347.93
434868,4348.68
434945,4349.45
435021,4350.21
435099,4350.99
435176,4351.76
435254,4352.54
435334,4353.34
435414,4354.14
435494,4354.94
435571,4355.71
435648,4356.48
435724,4357.24
435801,4358.01
435878,4358.78
435952,4359.52
436028,4360.28
436103,4361.03
436180,4361.8
436256,4362.56
436330,4363.3
436399,4363.99
436466,4364.66
436534,4365.34
436603,4366.03
436671,4366.71
436740,4367.4
436810,4368.1
436881,4368.81
436950,4369.5
437024,4370.24
437099,4370.99
437171,4371.71
437244,4372.44
437316,4373.16
437400,4374.0
437484,4374.84
437560,4375.6
437636,4376.36
437717,4377.17
437798,4377.98
437877,4378.77
437956,4379.56
438024,4380.24
438092,4380.92
438160,4381.6
438227,4382.27
438294,4382.94
438361,4383.61
438429,4384.29
438499,4384.99
438569,4385.69
438640,4386.4
438710,4387.1
438781,4387.81
438852,4388.52
438921,4389.21
438991,4389.91
439061,4390.61
439132,4391.32
439206,4392.06
439279,4392.79
439353,4393.53
439428,4394.28
439503,4395.03
439575,4395.75
439645,4396.45
439716,4397.16
439789,4397.89
439866,4398.66
439944,4399.44
440019,4400.19
440095,4400.95
440171,4401.71
440248,4402.48
440317,4403.17
440384,4403.84
440449,4404.49
440512,4405.12
440574,4405.74
440637,4406.37
440698,4406.98
440759,4407.59
440819,4408.19
440880,4408.8
440941,4409.41
441001,4410.01
441061,4410.61
441122,4411.22
441185,4411.85
441251,4412.51
441317,4413.17
441387,4413.87
441466,4414.66
441544,4415.44
441620,4416.2
441697,4416.97
441776,4417.76
441854,4418.54
441933,4419.33
442011,4420.11
442088,4420.88
442164,4421.64
442240,4422.4
442316,4423.16
442393,4423.93
442468,4424.68
442544,4425.44
442620,4426.2
442697,4426.97
442774,4427.74
442852,4428.52
442930,4429.3
443008,4430.08
443088,4430.88
443167,4431.67
443245,4432.45
443321,4433.21
443397,4433.97
443473,4434.73
443550,4435.5
443626,4436.26
443701,4437.01
443775,4437.75
443845,4438.45
443914,4439.14
443982,4439.82
444048,4440.48
444116,4441.16
444184,4441.84
444255,4442.55
444326,4443.26
444396,4443.96
444468,4444.68
444549,4445.49
444630,4446.3
444706,4447.06
444783,4447.83
444863,4448.63
444946,4449.46
445029,4450.29
445103,4451.03
445175,4451.75
445247,4452.47
445318,4453.18
445391,4453.91
445462,4454.62
445535,4455.35
445605,4456.05
445675,4456.75
445747,4457.47
445817,4458.17
445886,4458.86
445956,4459.56
446025,4460.25
446095,4460.95
446170,4461.7
446245,4462.45
446318,4463.18
446389,4463.89
446458,4464.58
446526,4465.26
446592,4465.92
446657,4466.57
446721,4467.21
446784,4467.84
446847,4468.47
446911,4469.11
446973,4469.73
447034,4470.34
447096,4470.96
447157,4471.57
447219,4472.19
447282,4472.82
447347,4473.47
447414,4474.14
447484,4474.84
447556,4475.56
447634,4476.34
447711,4477.11
447789,4477.89
447869,4478.69
447947,4479.47
448027,4480.27
448107,4481.07
448190,4481.9
448273,4482.73
448354,4483.54
448436,4484.36
448519,4485.19
448603,4486.03
448686,4486.86
448768,4487.68
448852,4488.52
448936,4489.36
449017,4490.17
449096,4490.96
449173,4491.73
449250,4492.5
449325,4493.25
449402,4494.02
449479,4494.79
449558,4495.58
449635,4496.35
449713,4497.13
449791,4497.91
449868,4498.68
449945,4499.45
450021,4500.21
450094,4500.94
450167,4501.67
450240,4502.4
450304,4503.04
450368,4503.68
450437,4504.37
450507,4505.07
450570,4505.7
450633,4506.33
450695,4506.95
450757,4507.57
450818,4508.18
450880,4508.8
450942,4509.42
451003,4510.03
451064,4510.64
451126,4511.26
451189,4511.89
451258,4512.58
451334,4513.34
451413,4514.13
451490,4514.9
451570,4515.7
451651,4516.51
451730,4517.3
451809,4518.09
451890,4518.9
451972,4519.72
452057,4520.57
452138,4521.38
452219,4522.19
452302,4523.02
452385,4523.85
452470,4524.7
452555,4525.55
452640,4526.4
452724,4527.24
452806,4528.06
452885,4528.85
452966,4529.66
453044,4530.44
453123,4531.23
453199,4531.99
453275,4532.75
453350,4533.5
453427,4534.27
453502,4535.02
453578,4535.78
453653,4536.53
453727,4537.27
453808,4538.08
453889,4538.89
453967,4539.67
454043,4540.43
454117,4541.17
454186,4541.86
454255,4542.55
454322,4543.22
454389,4543.89
454457,4544.57
454526,4545.26
454594,4545.94
454663,4546.63
454732,4547.32
454811,4548.11
454888,4548.88
454971,4549.71
455054,4550.54
455138,4551.38
455223,4552.23
455307,4553.07
455385,4553.85
455462,4554.62
455538,4555.38
455614,4556.14
455688,4556.88
455761,4557.61
455832,4558.32
455902,4559.02
455970,4559.7
456038,4560.38
456107,4561.07
456189,4561.89
456271,4562.71
456351,4563.51
456433,4564.33
456517,4565.17
456599,4565.99
456679,4566.79
456759,4567.59
456839,4568.39
456919,4569.19
456996,4569.96
457074,4570.74
457151,4571.51
457229,4572.29
457306,4573.06
457382,4573.82
457463,4574.63
457542,4575.42
457620,4576.2
457698,4576.98
457776,4577.76
457854,4578.54
457933,4579.33
458011,4580.11
458084,4580.84
458156,4581.56
458227,4582.27
458298,4582.98
458368,4583.68
458438,4584.38
458509,4585.09
458578,4585.78
458648,4586.48
458718,4587.18
458788,4587.88
458859,4588.59
458930,4589.3
458999,4589.99
459069,4590.69
459138,4591.38
459208,4592.08
459277,4592.77
459348,4593.48
459415,4594.15
459482,4594.82
459546,4595.46
459610,4596.1
459674,4596.74
459737,4597.37
459799,4597.99
459860,4598.6
459922,4599.22
459983,4599.83
460044,4600.44
460104,4601.04
460164,4601.64
460225,4602.25
460285,4602.85
460345,4603.45
460406,4604.06
460467,4604.67
460527,4605.27
460588,4605.88
460649,4606.49
460711,4607.11
460775,4607.75
460840,4608.4
460908,4609.08
460976,4609.76
461047,4610.47
461119,4611.19
461193,4611.93
461268,4612.68
461344,4613.44
461422,4614.22
461499,4614.99
461576,4615.76
461650,4616.5
461724,4617.24
461797,4617.97
461873,4618.73
461952,4619.52
462032,4620.32
462109,4621.09
462185,4621.85
462259,4622.59
462334,4623.34
462411,4624.11
462488,4624.88
462564,4625.64
462641,4626.41
462720,4627.2
462801,4628.01
462880,4628.8
462957,4629.57
463033,4630.33
463106,4631.06
463177,4631.77
463248,4632.48
463317,4633.17
463384,4633.84
463449,4634.49
463515,4635.15
463580,4635.8
463645,4636.45
463709,4637.09
463773,4637.73
463836,4638.36
463898,4638.98
463961,4639.61
464023,4640.23
464086,4640.86
464150,4641.5
464216,4642.16
464287,4642.87
464369,4643.69
464449,4644.49
464528,4645.28
464608,4646.08
464692,4646.92
464777,4647.77
464861,4648.61
464946,4649.46
465032,4650.32
465118,4651.18
465205,4652.05
465291,4652.91
465374,4653.74
465459,4654.59
465542,4655.42
465622,4656.22
465700,4657.0
465776,4657.76
465852,4658.52
465927,4659.27
466003,4660.03
466077,4660.77
466153,4661.53
466229,4662.29
466309,4663.09
466388,4663.88
466467,4664.67
466545,4665.45
466622,4666.22
466700,4667.0
466776,4667.76
466851,4668.51
466922,4669.22
466991,4669.91
467061,4670.61
467130,4671.3
467197,4671.97
467263,4672.63
467328,4673.28
467393,4673.93
467456,4674.56
467520,4675.2
467583,4675.83
467647,4676.47
467710,4677.1
467774,4677.74
467838,4678.38
467903,4679.03
467968,4679.68
468035,4680.35
468103,4681.03
468171,4681.71
468240,4682.4
468309,4683.09
468379,4683.79
468447,4684.47
468516,4685.16
468588,4685.88
468663,4686.63
468738,4687.38
468811,4688.11
468893,4688.93
468975,4689.75
469053,4690.53
469132,4691.32
469210,4692.1
469288,4692.88
469367,4693.67
469448,4694.48
469530,4695.3
469610,4696.1
469690,4696.9
469769,4697.69
469846,4698.46
469922,4699.22
469997,4699.97
470071,4700.71
470145,4701.45
470220,4702.2
470293,4702.93
470363,4703.63
470434,4704.34
470508,4705.08
470582,4705.82
470655,4706.55
470727,4707.27
470810,4708.1
470893,4708.93
470968,4709.68
471039,4710.39
471108,4711.08
471175,4711.75
471243,4712.43
471309,4713.09
471374,4713.74
471440,4714.4
471504,4715.04
471567,4715.67
471630,4716.3
471693,4716.93
471755,4717.55
471817,4718.17
471878,4718.78
471939,4719.39
472003,4720.03
472068,4720.68
472137,4721.37
472216,4722.16
472295,4722.95
472375,4723.75
472458,4724.58
472539,4725.39
472618,4726.18
472697,4726.97
472775,4727.75
472851,4728.51
472927,4729.27
473005,4730.05
473085,4730.85
473169,4731.69
473253,4732.53
473338,4733.38
473426,4734.26
473514,4735.14
473600,4736.0
473683,4736.83
473764,4737.64
473845,4738.45
473930,4739.3
474013,4740.13
474095,4740.95
474174,4741.74
474252,4742.52
474330,4743.3
474407,4744.07
474484,4744.84
474561,4745.61
474638,4746.38
474715,4747.15
474795,4747.95
474874,4748.74
474951,4749.51
475026,4750.26
475099,4750.99
475172,4751.72
475245,4752.45
475326,4753.26
475407,4754.07
475483,4754.83
475557,4755.57
475637,4756.37
475717,4757.17
475788,4757.88
475858,4758.58
475927,4759.27
475995,4759.95
476065,4760.65
476137,4761.37
476214,4762.14
476292,4762.92
476372,4763.72
476465,4764.65
476558,4765.58
476638,4766.38
476718,4767.18
476798,4767.98
476880,4768.8
476962,4769.62
477042,4770.42
477124,4771.24
477206,4772.06
477286,4772.86
477367,4773.67
477444,4774.44
477518,4775.18
477591,4775.91
477658,4776.58
477723,4777.23
477787,4777.87
477852,4778.52
477915,4779.15
477977,4779.77
478039,4780.39
478103,4781.03
478166,4781.66
478229,4782.29
478291,4782.91
478354,4783.54
478419,4784.19
478487,4784.87
478559,4785.59
478634,4786.34
478717,4787.17
478800,4788.0
478881,4788.81
478961,4789.61
479038,4790.38
479116,4791.16
479192,4791.92
479270,4792.7
479346,4793.46
479424,4794.24
479504,4795.04
479586,4795.86
479669,4796.69
479751,4797.51
479832,4798.32
479913,4799.13
479996,4799.96
480079,4800.79
480159,4801.59
480237,4802.37
480316,4803.16
480395,4803.95
480474,4804.74
480552,4805.52
480628,4806.28
480706,4807.06
480782,4807.82
480856,4808.56
480928,4809.28
480996,4809.96
481063,4810.63
481129,4811.29
481194,4811.94
481258,4812.58
481323,4813.23
481386,4813.86
481449,4814.49
481512,4815.12
481575,4815.75
481638,4816.38
481700,4817.0
481762,4817.62
481825,4818.25
481888,4818.88
481950,4819.5
482014,4820.14
482081,4820.81
482154,4821.54
482237,4822.37
482319,4823.19
482400,4824.0
482484,4824.84
482572,4825.72
482659,4826.59
482746,4827.46
482833,4828.33
482918,4829.18
483000,4830.0
483081,4830.81
483162,4831.62
483243,4832.43
483323,4833.23
483403,4834.03
483485,4834.85
483564,4835.64
483643,4836.43
483720,4837.2
483796,4837.96
483872,4838.72
483948,4839.48
484024,4840.24
484102,4841.02
484181,4841.81
484260,4842.6
484339,4843.39
484417,4844.17
484497,4844.97
484577,4845.77
484655,4846.55
484734,4847.34
484812,4848.12
484892,4848.92
484972,4849.72
485049,4850.49
485121,4851.21
485188,4851.88
485253,4852.53
485318,4853.18
485382,4853.82
485447,4854.47
485510,4855.1
485573,4855.73
485638,4856.38
485701,4857.01
485764,4857.64
485827,4858.27
485889,4858.89
485952,4859.52
486015,4860.15
486078,4860.78
486144,4861.44
486213,4862.13
486285,4862.85
486365,4863.65
486445,4864.45
486522,4865.22
486600,4866.0
486678,4866.78
486754,4867.54
486830,4868.3
486907,4869.07
486983,4869.83
487060,4870.6
487137,4871.37
487212,4872.12
487288,4872.88
487364,4873.64
487443,4874.43
487524,4875.24
487606,4876.06
487688,4876.88
487770,4877.7
487855,4878.55
487940,4879.4
488024,4880.24
488107,4881.07
488189,4881.89
488272,4882.72
488353,4883.53
488435,4884.35
488516,4885.16
488599,4885.99
488681,4886.81
488761,4887.61
488840,4888.4
488919,4889.19
488997,4889.97
489074,4890.74
489150,4891.5
489226,4892.26
489300,4893.0
489371,4893.71
489441,4894.41
489511,4895.11
489581,4895.81
489652,4896.52
489720,4897.2
489789,4897.89
489859,4898.59
489931,4899.31
490001,4900.01
490072,4900.72
490145,4901.45
490222,4902.22
490295,4902.95
490384,4903.84
490474,4904.74
490561,4905.61
490640,4906.4
490719,4907.19
490796,4907.96
490873,4908.73
490949,4909.49
491024,4910.24
491099,4910.99
491176,4911.76
491255,4912.55
491336,4913.36
491417,4914.17
491498,4914.98
491580,4915.8
491660,4916.6
491740,4917.4
491821,4918.21
491901,4919.01
491979,4919.79
492054,4920.54
492130,4921.3
492205,4922.05
492280,4922.8
492356,4923.56
492432,4924.32
492510,4925.1
492588,4925.88
492666,4926.66
492745,4927.45
492824,4928.24
492903,4929.03
492982,4929.82
493061,4930.61
493140,4931.4
493218,4932.18
493296,4932.96
493373,4933.73
493450,4934.5
493524,4935.24
493595,4935.95
493666,4936.66
493737,4937.37
493809,4938.09
493880,4938.8
493954,4939.54
494028,4940.28
494100,4941.0
494170,4941.7
494240,4942.4
494312,4943.12
494384,4943.84
494455,4944.55
494528,4945.28
494599,4945.99
494671,4946.71
494748,4947.48
494822,4948.22
494898,4948.98
494971,4949.71
495049,4950.49
495127,4951.27
495202,4952.02
495275,4952.75
495348,4953.48
495430,4954.3
495513,4955.13
495587,4955.87
495658,4956.58
495729,4957.29
495799,4957.99
495868,4958.68
495937,4959.37
496006,4960.06
496074,4960.74
496154,4961.54
496240,4962.4
496326,4963.26
496413,4964.13
496499,4964.99
496586,4965.86
496668,4966.68
496748,4967.48
496825,4968.25
496903,4969.03
496982,4969.82
497060,4970.6
497135,4971.35
497205,4972.05
497272,4972.72
497338,4973.38
497402,4974.02
497466,4974.66
497529,4975.29
497592,4975.92
497655,4976.55
497716,4977.16
497778,4977.78
497839,4978.39
497901,4979.01
497962,4979.62
498024,4980.24
498087,4980.87
498153,4981.53
498223,4982.23
498296,4982.96
498372,4983.72
498451,4984.51
498532,4985.32
498611,4986.11
498689,4986.89
498767,4987.67
498845,4988.45
498923,4989.23
499001,4990.01
499080,4990.8
499159,4991.59
499239,4992.39
499323,4993.23
499406,4994.06
499488,4994.88
499571,4995.71
499651,4996.51
499732,4997.32
499815,4998.15
499898,4998.98
499981,4999.81
500063,5000.63
500147,5001.47
500230,5002.3
500311,5003.11
500392,5003.92
500473,5004.73
500553,5005.53
500632,5006.32
500710,5007.1
500787,5007.87
500865,5008.65
500946,5009.46
501028,5010.28
501108,5011.08
501189,5011.89
501271,5012.71
501351,5013.51
501430,5014.3
501511,5015.11
501593,5015.93
501675,5016.75
501755,5017.55
501836,5018.36
501915,5019.15
501993,5019.93
502070,5020.7
502147,5021.47
502224,5022.24
502301,5023.01
502379,5023.79
502452,5024.52
502522,5025.22
502592,5025.92
502661,5026.61
502732,5027.32
502805,5028.05
502880,5028.8
502954,5029.54
503040,5030.4
503127,5031.27
503212,5032.12
503290,5032.9
503363,5033.63
503437,5034.37
503510,5035.1
503584,5035.84
503656,5036.56
503726,5037.26
503796,5037.96
503867,5038.67
503938,5039.38
504008,5040.08
504074,5040.74
504140,5041.4
504204,5042.04
504267,5042.67
504331,5043.31
504392,5043.92
504454,5044.54
504515,5045.15
504577,5045.77
504638,5046.38
504699,5046.99
504760,5047.6
504821,5048.21
504885,5048.85
504951,5049.51
505017,5050.17
505086,5050.86
505157,5051.57
505229,5052.29
505302,5053.02
505381,5053.81
505458,5054.58
505534,5055.34
505607,5056.07
505679,5056.79
505750,5057.5
505821,5058.21
505891,5058.91
505962,5059.62
506031,5060.31
506102,5061.02
506171,5061.71
506238,5062.38
506305,5063.05
506371,5063.71
506435,5064.35
506500,5065.0
506564,5065.64
506628,5066.28
506694,5066.94
506762,5067.62
506830,5068.3
506899,5068.99
506968,5069.68
507038,5070.38
507109,5071.09
507183,5071.83
507260,5072.6
507337,5073.37
507417,5074.17
507504,5075.04
507591,5075.91
507673,5076.73
507753,5077.53
507834,5078.34
507916,5079.16
507999,5079.99
508083,5080.83
508165,5081.65
508247,5082.47
508331,5083.31
508415,5084.15
508498,5084.98
508578,5085.78
508657,5086.57
508736,5087.36
508814,5088.14
508891,5088.91
508968,5089.68
509044,5090.44
509117,5091.17
509188,5091.88
509254,5092.54
509318,5093.18
509380,5093.8
509443,5094.43
509506,5095.06
509568,5095.68
509631,5096.31
509695,5096.95
509760,5097.6
509824,5098.24
509887,5098.87
509950,5099.5
510014,5100.14
510080,5100.8
510148,5101.48
510217,5102.17
510288,5102.88
510369,5103.69
510450,5104.5
510529,5105.29
510609,5106.09
510692,5106.92
510773,5107.73
510853,5108.53
510933,5109.33
511015,5110.15
511094,5110.94
511171,5111.71
511247,5112.47
511324,5113.24
511401,5114.01
511480,5114.8
511560,5115.6
511640,5116.4
511721,5117.21
511801,5118.01
511883,5118.83
511963,5119.63
512042,5120.42
512121,5121.21
512200,5122.0
512277,5122.77
512354,5123.54
512432,5124.32
512509,5125.09
512588,5125.88
512666,5126.66
512746,5127.46
512827,5128.27
512907,5129.07
512985,5129.85
513065,5130.65
513142,5131.42
513219,5132.19
513294,5132.94
513364,5133.64
513433,5134.33
513500,5135.0
513566,5135.66
513631,5136.31
513697,5136.97
513762,5137.62
513828,5138.28
513892,5138.92
513956,5139.56
514020,5140.2
514084,5140.84
514147,5141.47
514210,5142.1
514274,5142.74
514340,5143.4
514408,5144.08
514479,5144.79
514552,5145.52
514627,5146.27
514711,5147.11
514795,5147.95
514873,5148.73
514952,5149.52
515031,5150.31
515108,5151.08
515185,5151.85
515262,5152.62
515338,5153.38
515412,5154.12
515487,5154.87
515563,5155.63
515637,5156.37
515712,5157.12
515787,5157.87
515861,5158.61
515936,5159.36
516011,5160.11
516088,5160.88
516166,5161.66
516245,5162.45
516324,5163.24
516405,5164.05
516484,5164.84
516564,5165.64
516639,5166.39
516712,5167.12
516783,5167.83
516853,5168.53
516923,5169.23
516993,5169.93
517064,5170.64
517134,5171.34
517204,5172.04
517272,5172.72
517340,5173.4
517408,5174.08
517475,5174.75
517541,5175.41
517607,5176.07
517672,5176.72
517737,5177.37
517803,5178.03
517870,5178.7
517938,5179.38
518006,5180.06
518073,5180.73
518140,5181.4
518206,5182.06
518272,5182.72
518339,5183.39
518407,5184.07
518474,5184.74
518542,5185.42
518614,5186.14
518686,5186.86
518757,5187.57
518836,5188.36
518916,5189.16
518995,5189.95
519075,5190.75
519156,5191.56
519237,5192.37
519319,5193.19
519401,5194.01
519484,5194.84
519568,5195.68
519653,5196.53
519737,5197.37
519820,5198.2
519903,5199.03
519984,5199.84
520066,5200.66
520147,5201.47
520224,5202.24
520303,5203.03
520383,5203.83
520464,5204.64
520546,5205.46
520624,5206.24
520699,5206.99
520772,5207.72
520843,5208.43
520909,5209.09
520975,5209.75
521041,5210.41
521106,5211.06
521171,5211.71
521237,5212.37
521301,5213.01
521364,5213.64
521427,5214.27
521491,5214.91
521555,5215.55
521620,5216.2
521686,5216.86
521754,5217.54
521824,5218.24
521894,5218.94
521968,5219.68
522044,5220.44
522122,5221.22
522203,5222.03
522284,5222.84
522363,5223.63
522442,5224.42
522518,5225.18
522598,5225.98
522674,5226.74
522750,5227.5
522826,5228.26
522903,5229.03
522978,5229.78
523051,5230.51
523124,5231.24
523201,5232.01
523278,5232.78
523351,5233.51
523422,5234.22
523492,5234.92
523562,5235.62
523633,5236.33
523704,5237.04
523776,5237.76
523848,5238.48
523920,5239.2
523993,5239.93
524066,5240.66
524141,5241.41
524214,5242.14
524286,5242.86
524360,5243.6
524432,5244.32
524504,5245.04
524574,5245.74
524644,5246.44
524713,5247.13
524781,5247.81
524848,5248.48
524914,5249.14
524980,5249.8
525045,5250.45
525108,5251.08
525171,5251.71
525233,5252.33
525296,5252.96
525359,5253.59
525423,5254.23
525487,5254.87
525553,5255.53
525620,5256.2
525688,5256.88
525760,5257.6
525841,5258.41
525920,5259.2
526001,5260.01
526083,5260.83
526163,5261.63
526240,5262.4
526319,5263.19
526395,5263.95
526470,5264.7
526545,5265.45
526618,5266.18
526690,5266.9
526763,5267.63
526837,5268.37
526913,5269.13
526990,5269.9
527070,5270.7
527153,5271.53
527235,5272.35
527316,5273.16
527397,5273.97
527479,5274.79
527560,5275.6
527639,5276.39
527716,5277.16
527789,5277.89
527860,5278.6
527928,5279.28
527992,5279.92
528055,5280.55
528117,5281.17
528178,5281.78
528239,5282.39
528301,5283.01
528366,5283.66
528432,5284.32
528501,5285.01
528572,5285.72
528646,5286.46
528722,5287.22
528794,5287.94
528866,5288.66
528940,5289.4
529019,5290.19
529098,5290.98
529182,5291.82
529266,5292.66
529347,5293.47
529429,5294.29
529511,5295.11
529591,5295.91
529671,5296.71
529754,5297.54
529839,5298.39
529923,5299.23
530003,5300.03
530085,5300.85
530168,5301.68
530251,5302.51
530333,5303.33
530417,5304.17
530500,5305.0
530582,5305.82
530662,5306.62
530740,5307.4
530816,5308.16
530891,5308.91
530967,5309.67
531042,5310.42
531117,5311.17
531188,5311.88
531259,5312.59
531330,5313.3
531402,5314.02
531475,5314.75
531549,5315.49
531621,5316.21
531710,5317.1
531799,5317.99
531879,5318.79
531959,5319.59
532040,5320.4
532119,5321.19
532196,5321.96
532275,5322.75
532353,5323.53
532429,5324.29
532503,5325.03
532573,5325.73
532643,5326.43
532714,5327.14
532787,5327.87
532861,5328.61
532934,5329.34
533013,5330.13
533093,5330.93
533169,5331.69
533242,5332.42
533313,5333.13
533383,5333.83
533453,5334.53
533523,5335.23
533594,5335.94
533665,5336.65
533737,5337.37
533810,5338.1
533882,5338.82
533953,5339.53
534029,5340.29
534104,5341.04
534182,5341.82
534259,5342.59
534336,5343.36
534411,5344.11
534495,5344.95
534580,5345.8
534654,5346.54
534725,5347.25
534794,5347.94
534864,5348.64
534934,5349.34
535003,5350.03
535067,5350.67
535131,5351.31
535201,5352.01
535266,5352.66
535330,5353.3
535394,5353.94
535457,5354.57
535520,5355.2
535582,5355.82
535645,5356.45
535709,5357.09
535773,5357.73
535839,5358.39
535905,5359.05
535973,5359.73
536042,5360.42
536112,5361.12
536186,5361.86
536264,5362.64
536343,5363.43
536422,5364.22
536500,5365.0
536579,5365.79
536660,5366.6
536741,5367.41
536825,5368.25
536911,5369.11
536998,5369.98
537088,5370.88
537178,5371.78
537268,5372.68
537355,5373.55
537440,5374.4
537526,5375.26
537609,5376.09
537691,5376.91
537772,5377.72
537857,5378.57
537939,5379.39
538021,5380.21
538105,5381.05
538189,5381.89
538276,5382.76
538359,5383.59
538440,5384.4
538524,5385.24
538606,5386.06
538687,5386.87
538766,5387.66
538841,5388.41
538913,5389.13
538983,5389.83
539049,5390.49
539114,5391.14
539179,5391.79
539244,5392.44
539307,5393.07
539369,5393.69
539433,5394.33
539497,5394.97
539562,5395.62
539628,5396.28
539697,5396.97
539769,5397.69
539840,5398.4
539911,5399.11
539986,5399.86
540060,5400.6
540133,5401.33
540206,5402.06
540280,5402.8
540354,5403.54
540427,5404.27
540498,5404.98
540568,5405.68
540640,5406.4
540712,5407.12
540786,5407.86
540863,5408.63
540942,5409.42
541023,5410.23
541103,5411.03
541183,5411.83
541264,5412.64
541346,5413.46
541426,5414.26
541506,5415.06
541585,5415.85
541665,5416.65
541747,5417.47
541830,5418.3
541911,5419.11
541993,5419.93
542075,5420.75
542158,5421.58
542237,5422.37
542314,5423.14
542390,5423.9
542462,5424.62
542532,5425.32
542598,5425.98
542663,5426.63
542728,5427.28
542792,5427.92
542855,5428.55
542919,5429.19
542983,5429.83
543048,5430.48
543112,5431.12
543178,5431.78
543244,5432.44
543310,5433.1
543377,5433.77
543446,5434.46
543516,5435.16
543586,5435.86
543660,5436.6
543736,5437.36
543812,5438.12
543896,5438.96
543980,5439.8
544059,5440.59
544138,5441.38
544217,5442.17
544294,5442.94
544369,5443.69
544444,5444.44
544519,5445.19
544593,5445.93
544669,5446.69
544747,5447.47
544823,5448.23
544900,5449.0
544977,5449.77
545053,5450.53
545130,5451.3
545207,5452.07
545285,5452.85
545363,5453.63
545438,5454.38
545513,5455.13
545589,5455.89
545667,5456.67
545746,5457.46
545824,5458.24
545901,5459.01
545974,5459.74
546046,5460.46
546117,5461.17
546188,5461.88
546260,5462.6
546333,5463.33
546406,5464.06
546482,5464.82
546554,5465.54
546625,5466.25
546697,5466.97
546769,5467.69
546842,5468.42
546914,5469.14
546992,5469.92
547071,5470.71
547146,5471.46
547218,5472.18
547290,5472.9
547363,5473.63
547443,5474.43
547524,5475.24
547599,5475.99
547671,5476.71
547744,5477.44
547817,5478.17
547891,5478.91
547967,5479.67
548040,5480.4
548113,5481.13
548186,5481.86
548258,5482.58
548329,5483.29
548402,5484.02
548480,5484.8
548553,5485.53
548628,5486.28
548706,5487.06
548784,5487.84
548859,5488.59
548944,5489.44
549031,5490.31
549121,5491.21
549201,5492.01
549274,5492.74
549343,5493.43
549410,5494.1
549475,5494.75
549540,5495.4
549605,5496.05
549669,5496.69
549732,5497.32
549796,5497.96
549861,5498.61
549924,5499.24
549987,5499.87
550050,5500.5
550115,5501.15
550181,5501.81
550247,5502.47
550314,5503.14
550382,5503.82
550453,5504.53
550524,5505.24
550598,5505.98
550672,5506.72
550748,5507.48
550825,5508.25
550905,5509.05
550987,5509.87
551072,5510.72
551155,5511.55
551234,5512.34
551311,5513.11
551386,5513.86
551462,5514.62
551537,5515.37
551611,5516.11
551685,5516.85
551759,5517.59
551834,5518.34
551913,5519.13
551997,5519.97
552081,5520.81
552162,5521.62
552242,5522.42
552320,5523.2
552397,5523.97
552473,5524.73
552550,5525.5
552628,5526.28
552703,5527.03
552776,5527.76
552851,5528.51
552926,5529.26
552999,5529.99
553077,5530.77
553156,5531.56
553235,5532.35
553308,5533.08
553379,5533.79
553450,5534.5
553522,5535.22
553594,5535.94
553664,5536.64
553738,5537.38
553813,5538.13
553887,5538.87
553958,5539.58
554027,5540.27
554094,5540.94
554160,5541.6
554226,5542.26
554291,5542.91
554355,5543.55
554420,5544.2
554485,5544.85
554549,5545.49
554613,5546.13
554676,5546.76
554739,5547.39
554804,5548.04
554872,5548.72
554944,5549.44
555021,5550.21
555101,5551.01
555181,5551.81
555261,5552.61
555342,5553.42
555424,5554.24
555509,5555.09
555598,5555.98
555684,5556.84
555771,5557.71
555856,5558.56
555937,5559.37
556018,5560.18
556097,5560.97
556178,5561.78
556258,5562.58
556338,5563.38
556417,5564.17
556496,5564.96
556573,5565.73
556651,5566.51
556732,5567.32
556812,5568.12
556893,5568.93
556970,5569.7
557046,5570.46
557118,5571.18
557190,5571.9
557262,5572.62
557342,5573.42
557423,5574.23
557493,5574.93
557564,5575.64
557637,5576.37
557707,5577.07
557782,5577.82
557867,5578.67
557953,5579.53
558034,5580.34
558117,5581.17
558199,5581.99
558279,5582.79
558357,5583.57
558433,5584.33
558510,5585.1
558584,5585.84
558658,5586.58
558731,5587.31
558803,5588.03
558876,5588.76
558951,5589.51
559024,5590.24
559100,5591.0
559184,5591.84
559266,5592.66
559349,5593.49
559423,5594.23
559496,5594.96
559571,5595.71
559645,5596.45
559718,5597.18
559789,5597.89
559861,5598.61
559933,5599.33
560006,5600.06
560078,5600.78
560148,5601.48
560218,5602.18
560288,5602.88
560360,5603.6
560434,5604.34
560506,5605.06
560582,5605.82
560659,5606.59
560735,5607.35
560807,5608.07
560880,5608.8
560956,5609.56
561032,5610.32
561105,5611.05
561178,5611.78
561252,5612.52
561325,5613.25
561398,5613.98
561468,5614.68
561538,5615.38
561608,5616.08
561679,5616.79
561749,5617.49
561822,5618.22
561895,5618.95
561970,5619.7
562043,5620.43
562112,5621.12
562180,5621.8
562247,5622.47
562312,5623.12
562377,5623.77
562441,5624.41
562505,5625.05
562568,5625.68
562631,5626.31
562694,5626.94
562757,5627.57
562819,5628.19
562881,5628.81
562942,5629.42
563005,5630.05
563069,5630.69
563133,5631.33
563199,5631.99
563266,5632.66
563336,5633.36
563412,5634.12
563488,5634.88
563566,5635.66
563643,5636.43
563720,5637.2
563796,5637.96
563873,5638.73
563950,5639.5
564028,5640.28
564105,5641.05
564183,5641.83
564259,5642.59
564337,5643.37
564415,5644.15
564493,5644.93
564573,5645.73
564655,5646.55
564740,5647.4
564827,5648.27
564912,5649.12
564993,5649.93
565071,5650.71
565148,5651.48
565225,5652.25
565301,5653.01
565377,5653.77
565449,5654.49
565518,5655.18
565586,5655.86
565653,5656.53
565719,5657.19
565786,5657.86
565851,5658.51
565915,5659.15
565981,5659.81
566046,5660.46
566110,5661.1
566174,5661.74
566238,5662.38
566301,5663.01
566367,5663.67
566436,5664.36
566508,5665.08
566584,5665.84
566669,5666.69
566754,5667.54
566833,5668.33
566913,5669.13
566995,5669.95
567077,5670.77
567160,5671.6
567243,5672.43
567322,5673.22
567401,5674.01
567480,5674.8
567561,5675.61
567642,5676.42
567722,5677.22
567807,5678.07
567892,5678.92
567975,5679.75
568058,5680.58
568137,5681.37
568217,5682.17
568296,5682.96
568374,5683.74
568452,5684.52
568529,5685.29
568609,5686.09
568688,5686.88
568768,5687.68
568847,5688.47
568924,5689.24
568999,5689.99
569071,5690.71
569141,5691.41
569210,5692.1
569279,5692.79
569349,5693.49
569420,5694.2
569493,5694.93
569564,5695.64
569640,5696.4
569729,5697.29
569816,5698.16
569906,5699.06
569992,5699.92
570079,5700.79
570160,5701.6
570239,5702.39
570318,5703.18
570398,5703.98
570480,5704.8
570561,5705.61
570644,5706.44
570729,5707.29
570815,5708.15
570894,5708.94
570973,5709.73
571053,5710.53
571133,5711.33
571210,5712.1
571287,5712.87
571362,5713.62
571432,5714.32
571501,5715.01
571567,5715.67
571632,5716.32
571697,5716.97
571762,5717.62
571826,5718.26
571890,5718.9
571955,5719.55
572020,5720.2
572084,5720.84
572148,5721.48
572211,5722.11
572274,5722.74
572339,5723.39
572404,5724.04
572469,5724.69
572535,5725.35
572602,5726.02
572670,5726.7
572739,5727.39
572808,5728.08
572879,5728.79
572952,5729.52
573027,5730.27
573103,5731.03
573179,5731.79
573257,5732.57
573336,5733.36
573415,5734.15
573494,5734.94
573573,5735.73
573651,5736.51
573731,5737.31
573809,5738.09
573888,5738.88
573966,5739.66
574044,5740.44
574124,5741.24
574202,5742.02
574279,5742.79
574357,5743.57
574435,5744.35
574515,5745.15
574595,5745.95
574677,5746.77
574759,5747.59
574844,5748.44
574929,5749.29
575012,5750.12
575094,5750.94
575174,5751.74
575256,5752.56
575338,5753.38
575420,5754.2
575499,5754.99
575578,5755.78
575658,5756.58
575736,5757.36
575814,5758.14
575891,5758.91
575967,5759.67
576041,5760.41
576112,5761.12
576181,5761.81
576251,5762.51
576324,5763.24
576401,5764.01
576480,5764.8
576560,5765.6
576633,5766.33
576708,5767.08
576783,5767.83
576857,5768.57
576930,5769.3
577004,5770.04
577078,5770.78
577152,5771.52
577225,5772.25
577317,5773.17
577410,5774.1
577492,5774.92
577573,5775.73
577654,5776.54
577733,5777.33
577809,5778.09
577885,5778.85
577963,5779.63
578043,5780.43
578122,5781.22
578198,5781.98
578270,5782.7
578337,5783.37
578403,5784.03
578467,5784.67
578532,5785.32
578596,5785.96
578659,5786.59
578722,5787.22
578784,5787.84
578849,5788.49
578914,5789.14
578980,5789.8
579045,5790.45
579112,5791.12
579179,5791.79
579244,5792.44
579310,5793.1
579376,5793.76
579441,5794.41
579505,5795.05
579569,5795.69
579633,5796.33
579696,5796.96
579761,5797.61
579829,5798.29
579900,5799.0
579974,5799.74
580054,5800.54
580131,5801.31
580212,5802.12
580290,5802.9
580372,5803.72
580454,5804.54
580535,5805.35
580617,5806.17
580699,5806.99
580782,5807.82
580864,5808.64
580944,5809.44
581024,5810.24
581104,5811.04
581185,5811.85
581265,5812.65
581345,5813.45
581428,5814.28
581512,5815.12
581593,5815.93
581673,5816.73
581752,5817.52
581832,5818.32
581913,5819.13
581996,5819.96
582073,5820.73
582150,5821.5
582231,5822.31
582312,5823.12
582381,5823.81
582446,5824.46
582510,5825.1
582573,5825.73
582636,5826.36
582699,5826.99
582764,5827.64
582828,5828.28
582892,5828.92
582955,5829.55
583020,5830.2
583086,5830.86
583157,5831.57
583233,5832.33
583317,5833.17
583401,5834.01
583487,5834.87
583571,5835.71
583656,5836.56
583739,5837.39
583821,5838.21
583901,5839.01
583981,5839.81
584059,5840.59
584139,5841.39
584219,5842.19
584299,5842.99
584382,5843.82
584467,5844.67
584551,5845.51
584636,5846.36
584718,5847.18
584799,5847.99
584879,5848.79
584960,5849.6
585043,5850.43
585126,5851.26
585208,5852.08
585287,5852.87
585366,5853.66
585443,5854.43
585518,5855.18
585592,5855.92
585666,5856.66
585739,5857.39
585809,5858.09
585878,5858.78
585947,5859.47
586015,5860.15
586082,5860.82
586148,5861.48
586214,5862.14
586278,5862.78
586343,5863.43
586408,5864.08
586472,5864.72
586537,5865.37
586604,5866.04
586673,5866.73
586744,5867.44
586813,5868.13
586884,5868.84
586956,5869.56
587030,5870.3
587105,5871.05
587193,5871.93
587281,5872.81
587361,5873.61
587439,5874.39
587518,5875.18
587600,5876.0
587682,5876.82
587765,5877.65
587850,5878.5
587930,5879.3
588011,5880.11
588093,5880.93
588175,5881.75
588258,5882.58
588341,5883.41
588424,5884.24
588506,5885.06
588586,5885.86
588666,5886.66
588745,5887.45
588824,5888.24
588902,5889.02
588982,5889.82
589059,5890.59
589134,5891.34
589208,5892.08
589283,5892.83
589358,5893.58
589435,5894.35
589512,5895.12
589589,5895.89
589668,5896.68
589746,5897.46
589816,5898.16
589887,5898.87
589961,5899.61
590035,5900.35
590111,5901.11
590187,5901.87
590268,5902.68
590346,5903.46
590425,5904.25
590505,5905.05
590578,5905.78
590650,5906.5
590724,5907.24
590798,5907.98
590872,5908.72
590944,5909.44
591016,5910.16
591088,5910.88
591162,5911.62
591235,5912.35
591308,5913.08
591382,5913.82
591456,5914.56
591529,5915.29
591601,5916.01
591674,5916.74
591750,5917.5
591822,5918.22
591897,5918.97
591968,5919.68
592039,5920.39
592109,5921.09
592178,5921.78
592246,5922.46
592313,5923.13
592379,5923.79
592444,5924.44
592510,5925.1
