sample,time_sec
102,1.02
191,1.91
280,2.8
370,3.7
459,4.59
548,5.48
639,6.39
729,7.29
819,8.19
908,9.08
997,9.97
1088,10.88
1178,11.78
1268,12.68
1359,13.59
1450,14.5
1540,15.4
1630,16.3
1720,17.2
1812,18.12
1903,19.03
1994,19.94
2085,20.85
2176,21.76
2268,22.68
2358,23.58
2448,24.48
2538,25.38
2629,26.29
2719,27.19
2807,28.07
2896,28.96
2986,29.86
3076,30.76
3165,31.65
3256,32.56
3349,33.49
3439,34.39
3530,35.3
3622,36.22
3713,37.13
3803,38.03
3893,38.93
3984,39.84
4074,40.74
4164,41.64
4255,42.55
4346,43.46
4437,44.37
4527,45.27
4618,46.18
4709,47.09
4800,48.0
4892,48.92
4984,49.84
5077,50.77
5170,51.7
5261,52.61
5351,53.51
5442,54.42
5532,55.32
5622,56.22
5712,57.12
5803,58.03
5895,58.95
5988,59.88
6081,60.81
6174,61.74
6268,62.68
6362,63.62
6456,64.56
6551,65.51
6645,66.45
6738,67.38
6832,68.32
6927,69.27
7021,70.21
7114,71.14
7209,72.09
7302,73.02
7395,73.95
7487,74.87
7581,75.81
7677,76.77
7772,77.72
7867,78.67
7964,79.64
8061,80.61
8156,81.56
8252,82.52
8348,83.48
8442,84.42
8537,85.37
8631,86.31
8725,87.25
8820,88.2
8917,89.17
9013,90.13
9109,91.09
9205,92.05
9301,93.01
9395,93.95
9489,94.89
9583,95.83
9676,96.76
9769,97.69
9863,98.63
9957,99.57
10050,100.5
10144,101.44
10238,102.38
10332,103.32
10428,104.28
10524,105.24
10619,106.19
10715,107.15
10808,108.08
10900,109.0
10992,109.92
11084,110.84
11174,111.74
11266,112.66
11359,113.59
11452,114.52
11544,115.44
11636,116.36
11731,117.31
11822,118.22
11913,119.13
12006,120.06
12096,120.96
12187,121.87
12278,122.78
12368,123.68
12458,124.58
12548,125.48
12637,126.37
12726,127.26
12814,128.14
12902,129.02
12990,129.9
13072,130.72
13155,131.55
13250,132.5
13345,133.45
13432,134.32
13518,135.18
13605,136.05
13694,136.94
13784,137.84
13873,138.73
13960,139.6
14048,140.48
14135,141.35
14223,142.23
14312,143.12
14401,144.01
14490,144.9
14577,145.77
14665,146.65
14753,147.53
14842,148.42
14931,149.31
15020,150.2
15108,151.08
15196,151.96
15285,152.85
15374,153.74
15463,154.63
15550,155.5
15636,156.36
15722,157.22
15808,158.08
15894,158.94
15978,159.78
16063,160.63
16147,161.47
16229,162.29
16311,163.11
16385,163.85
16459,164.59
16545,165.45
16632,166.32
16708,167.08
16785,167.85
16863,168.63
16942,169.42
17025,170.25
17111,171.11
17199,171.99
17290,172.9
17380,173.8
17472,174.72
17564,175.64
17655,176.55
17745,177.45
17832,178.32
17918,179.18
18003,180.03
18087,180.87
18171,181.71
18254,182.54
18336,183.36
18421,184.21
18509,185.09
18599,185.99
18691,186.91
18783,187.83
18875,188.75
18967,189.67
19058,190.58
19147,191.47
19235,192.35
19323,193.23
19409,194.09
19494,194.94
19579,195.79
19663,196.63
19747,197.47
19830,198.3
19911,199.11
19990,199.9
20067,200.67
20147,201.47
20230,202.3
20319,203.19
20418,204.18
20520,205.2
20628,206.28
20738,207.38
20849,208.49
20957,209.57
21064,210.64
21172,211.72
21279,212.79
21386,213.86
21492,214.92
21591,215.91
21685,216.85
21777,217.77
21867,218.67
21955,219.55
22042,220.42
22126,221.26
22207,222.07
22287,222.87
22366,223.66
22445,224.45
22525,225.25
22609,226.09
22701,227.01
22794,227.94
22890,228.9
22991,229.91
23093,230.93
23193,231.93
23293,232.93
23391,233.91
23485,234.85
23578,235.78
23671,236.71
23766,237.66
23860,238.6
23952,239.52
24044,240.44
24136,241.36
24226,242.26
24314,243.14
24404,244.04
24492,244.92
24580,245.8
24668,246.68
24757,247.57
24846,248.46
24935,249.35
25024,250.24
25114,251.14
25204,252.04
25292,252.92
25380,253.8
25469,254.69
25556,255.56
25643,256.43
25730,257.3
25818,258.18
25906,259.06
25993,259.93
26080,260.8
26168,261.68
26256,262.56
26344,263.44
26430,264.3
26517,265.17
26605,266.05
26693,266.93
26782,267.82
26871,268.71
26961,269.61
27050,270.5
27139,271.39
27228,272.28
27317,273.17
27406,274.06
27495,274.95
27583,275.83
27671,276.71
27759,277.59
27848,278.48
27937,279.37
28026,280.26
28115,281.15
28206,282.06
28297,282.97
28389,283.89
28482,284.82
28575,285.75
28667,286.67
28759,287.59
28852,288.52
28945,289.45
29038,290.38
29134,291.34
29229,292.29
29325,293.25
29421,294.21
29517,295.17
29613,296.13
29707,297.07
29801,298.01
29896,298.96
29989,299.89
30081,300.81
30174,301.74
30267,302.67
30357,303.57
30448,304.48
30539,305.39
30630,306.3
30720,307.2
30812,308.12
30904,309.04
30995,309.95
31086,310.86
31177,311.77
31268,312.68
31359,313.59
31452,314.52
31545,315.45
31639,316.39
31731,317.31
31824,318.24
31916,319.16
32005,320.05
32095,320.95
32184,321.84
32271,322.71
32360,323.6
32448,324.48
32537,325.37
32626,326.26
32716,327.16
32806,328.06
32896,328.96
32985,329.85
33075,330.75
33165,331.65
33254,332.54
33343,333.43
33433,334.33
33523,335.23
33613,336.13
33702,337.02
33793,337.93
33883,338.83
33973,339.73
34061,340.61
34149,341.49
34238,342.38
34326,343.26
34414,344.14
34500,345.0
34588,345.88
34673,346.73
34756,347.56
34839,348.39
34921,349.21
35004,350.04
35088,350.88
35173,351.73
35260,352.6
35348,353.48
35437,354.37
35527,355.27
35617,356.17
35708,357.08
35799,357.99
35889,358.89
35979,359.79
36067,360.67
36155,361.55
36243,362.43
36329,363.29
36417,364.17
36505,365.05
36594,365.94
36682,366.82
36772,367.72
36863,368.63
36954,369.54
37045,370.45
37138,371.38
37230,372.3
37321,373.21
37413,374.13
37505,375.05
37594,375.94
37685,376.85
37776,377.76
37867,378.67
37959,379.59
38050,380.5
38143,381.43
38235,382.35
38326,383.26
38416,384.16
38507,385.07
38597,385.97
38686,386.86
38773,387.73
38862,388.62
38949,389.49
39037,390.37
39125,391.25
39214,392.14
39301,393.01
39387,393.87
39474,394.74
39561,395.61
39648,396.48
39735,397.35
39820,398.2
39906,399.06
39993,399.93
40079,400.79
40167,401.67
40255,402.55
40342,403.42
40428,404.28
40513,405.13
40598,405.98
40683,406.83
40768,407.68
40852,408.52
40935,409.35
41017,410.17
41098,410.98
41181,411.81
41264,412.64
41348,413.48
41432,414.32
41517,415.17
41603,416.03
41688,416.88
41773,417.73
41859,418.59
41946,419.46
42032,420.32
42119,421.19
42208,422.08
42297,422.97
42386,423.86
42476,424.76
42567,425.67
42657,426.57
42747,427.47
42837,428.37
42926,429.26
43015,430.15
43104,431.04
43192,431.92
43280,432.8
43369,433.69
43457,434.57
43546,435.46
43634,436.34
43723,437.23
43812,438.12
43900,439.0
43989,439.89
44078,440.78
44166,441.66
44255,442.55
44345,443.45
44435,444.35
44525,445.25
44615,446.15
44705,447.05
44795,447.95
44885,448.85
44975,449.75
45065,450.65
45155,451.55
45247,452.47
45338,453.38
45429,454.29
45521,455.21
45613,456.13
45703,457.03
45795,457.95
45887,458.87
45978,459.78
46068,460.68
46149,461.49
46230,462.3
46336,463.36
46423,464.23
46510,465.1
46599,465.99
46689,466.89
46781,467.81
46877,468.77
46974,469.74
47071,470.71
47168,471.68
47266,472.66
47363,473.63
47458,474.58
47552,475.52
47646,476.46
47739,477.39
47831,478.31
47922,479.22
48014,480.14
48106,481.06
48198,481.98
48290,482.9
48381,483.81
48474,484.74
48567,485.67
48659,486.59
48752,487.52
48845,488.45
48937,489.37
49030,490.3
49123,491.23
49217,492.17
49309,493.09
49401,494.01
49495,494.95
49589,495.89
49682,496.82
49776,497.76
49871,498.71
49967,499.67
50061,500.61
50155,501.55
50250,502.5
50344,503.44
50438,504.38
50533,505.33
50629,506.29
50724,507.24
50819,508.19
50914,509.14
51009,510.09
51104,511.04
51199,511.99
51292,512.92
51384,513.84
51475,514.75
51568,515.68
51659,516.59
51752,517.52
51846,518.46
51940,519.4
52034,520.34
52128,521.28
52222,522.22
52316,523.16
52410,524.1
52503,525.03
52597,525.97
52691,526.91
52784,527.84
52877,528.77
52971,529.71
53064,530.64
53158,531.58
53252,532.52
53347,533.47
53441,534.41
53535,535.35
53630,536.3
53723,537.23
53816,538.16
53909,539.09
54003,540.03
54095,540.95
54187,541.87
54279,542.79
54370,543.7
54460,544.6
54551,545.51
54642,546.42
54731,547.31
54821,548.21
54911,549.11
55003,550.03
55096,550.96
55190,551.9
55284,552.84
55378,553.78
55472,554.72
55565,555.65
55657,556.57
55749,557.49
55839,558.39
55929,559.29
56019,560.19
56110,561.1
56200,562.0
56292,562.92
56385,563.85
56480,564.8
56575,565.75
56669,566.69
56765,567.65
56862,568.62
56957,569.57
57052,570.52
57147,571.47
57242,572.42
57334,573.34
57427,574.27
57520,575.2
57612,576.12
57703,577.03
57792,577.92
57881,578.81
57970,579.7
58058,580.58
58148,581.48
58237,582.37
58326,583.26
58413,584.13
58501,585.01
58588,585.88
58676,586.76
58767,587.67
58860,588.6
58956,589.56
59051,590.51
59145,591.45
59240,592.4
59335,593.35
59429,594.29
59521,595.21
59613,596.13
59704,597.04
59792,597.92
59879,598.79
59967,599.67
60056,600.56
60144,601.44
60233,602.33
60323,603.23
60416,604.16
60507,605.07
60602,606.02
60697,606.97
60791,607.91
60885,608.85
60978,609.78
61070,610.7
61160,611.6
61249,612.49
61337,613.37
61425,614.25
61512,615.12
61598,615.98
61685,616.85
61772,617.72
61858,618.58
61945,619.45
62032,620.32
62118,621.18
62205,622.05
62292,622.92
62381,623.81
62471,624.71
62569,625.69
62668,626.68
62766,627.66
62865,628.65
62966,629.66
63068,630.68
63169,631.69
63272,632.72
63374,633.74
63473,634.73
63570,635.7
63665,636.65
63759,637.59
63853,638.53
63945,639.45
64035,640.35
64122,641.22
64210,642.1
64298,642.98
64387,643.87
64479,644.79
64573,645.73
64666,646.66
64760,647.6
64855,648.55
64951,649.51
65046,650.46
65142,651.42
65237,652.37
65331,653.31
65423,654.23
65514,655.14
65606,656.06
65697,656.97
65791,657.91
65888,658.88
65984,659.84
66081,660.81
66180,661.8
66280,662.8
66378,663.78
66477,664.77
66576,665.76
66673,666.73
66766,667.66
66858,668.58
66951,669.51
67041,670.41
67132,671.32
67223,672.23
67315,673.15
67407,674.07
67497,674.97
67589,675.89
67683,676.83
67778,677.78
67875,678.75
67974,679.74
68072,680.72
68171,681.71
68271,682.71
68369,683.69
68468,684.68
68566,685.66
68663,686.63
68760,687.6
68856,688.56
68952,689.52
69048,690.48
69142,691.42
69236,692.36
69328,693.28
69420,694.2
69509,695.09
69599,695.99
69689,696.89
69779,697.79
69870,698.7
69961,699.61
70052,700.52
70143,701.43
70236,702.36
70328,703.28
70420,704.2
70513,705.13
70608,706.08
70702,707.02
70797,707.97
70893,708.93
70987,709.87
71082,710.82
71180,711.8
71279,712.79
71380,713.8
71481,714.81
71583,715.83
71684,716.84
71785,717.85
71888,718.88
71987,719.87
72087,720.87
72187,721.87
72284,722.84
72381,723.81
72480,724.8
72578,725.78
72675,726.75
72773,727.73
72868,728.68
72963,729.63
73056,730.56
73148,731.48
73240,732.4
73331,733.31
73423,734.23
73515,735.15
73608,736.08
73699,736.99
73791,737.91
73884,738.84
73979,739.79
74074,740.74
74171,741.71
74270,742.7
74369,743.69
74467,744.67
74567,745.67
74667,746.67
74765,747.65
74862,748.62
74960,749.6
75057,750.57
75151,751.51
75247,752.47
75344,753.44
75440,754.4
75536,755.36
75634,756.34
75731,757.31
75825,758.25
75920,759.2
76014,760.14
76107,761.07
76202,762.02
76298,762.98
76394,763.94
76492,764.92
76591,765.91
76688,766.88
76786,767.86
76885,768.85
76982,769.82
77078,770.78
77175,771.75
77271,772.71
77366,773.66
77459,774.59
77552,775.52
77643,776.43
77736,777.36
77826,778.26
77916,779.16
78008,780.08
78100,781.0
78192,781.92
78283,782.83
78376,783.76
78471,784.71
78565,785.65
78660,786.6
78758,787.58
78856,788.56
78955,789.55
79058,790.58
79160,791.6
79262,792.62
79363,793.63
79466,794.66
79567,795.67
79667,796.67
79770,797.7
79873,798.73
79976,799.76
80078,800.78
80173,801.73
80265,802.65
80352,803.52
80441,804.41
80528,805.28
80614,806.14
80701,807.01
80788,807.88
80875,808.75
80963,809.63
81051,810.51
81139,811.39
81229,812.29
81319,813.19
81408,814.08
81496,814.96
81586,815.86
81675,816.75
81764,817.64
81854,818.54
81945,819.45
82037,820.37
82131,821.31
82228,822.28
82323,823.23
82419,824.19
82516,825.16
82613,826.13
82712,827.12
82810,828.1
82907,829.07
83005,830.05
83101,831.01
83198,831.98
83294,832.94
83390,833.9
83484,834.84
83577,835.77
83669,836.69
83759,837.59
83851,838.51
83937,839.37
84023,840.23
84115,841.15
84213,842.13
84312,843.12
84408,844.08
84510,845.1
84615,846.15
84721,847.21
84830,848.3
84939,849.39
85048,850.48
85158,851.58
85268,852.68
85375,853.75
85484,854.84
85591,855.91
85697,856.97
85798,857.98
85899,858.99
85996,859.96
86090,860.9
86184,861.84
86277,862.77
86369,863.69
86461,864.61
86552,865.52
86644,866.44
86736,867.36
86827,868.27
86917,869.17
87008,870.08
87098,870.98
87189,871.89
87280,872.8
87372,873.72
87465,874.65
87558,875.58
87652,876.52
87746,877.46
87841,878.41
87938,879.38
88031,880.31
88123,881.23
88212,882.12
88300,883.0
88385,883.85
88471,884.71
88557,885.57
88642,886.42
88725,887.25
88807,888.07
88890,888.9
88974,889.74
89058,890.58
89141,891.41
89226,892.26
89311,893.11
89397,893.97
89482,894.82
89566,895.66
89651,896.51
89738,897.38
89825,898.25
89915,899.15
90007,900.07
90102,901.02
90200,902.0
90298,902.98
90397,903.97
90497,904.97
90597,905.97
90697,906.97
90795,907.95
90893,908.93
90990,909.9
91087,910.87
91182,911.82
91277,912.77
91372,913.72
91467,914.67
91562,915.62
91657,916.57
91752,917.52
91845,918.45
91940,919.4
92034,920.34
92129,921.29
92222,922.22
92315,923.15
92408,924.08
92501,925.01
92595,925.95
92688,926.88
92782,927.82
92877,928.77
92971,929.71
93065,930.65
93161,931.61
93256,932.56
93353,933.53
93447,934.47
93543,935.43
93640,936.4
93735,937.35
93831,938.31
93926,939.26
94023,940.23
94119,941.19
94215,942.15
94311,943.11
94409,944.09
94508,945.08
94606,946.06
94705,947.05
94804,948.04
94903,949.03
95001,950.01
95099,950.99
95196,951.96
95292,952.92
95386,953.86
95481,954.81
95576,955.76
95670,956.7
95768,957.68
95867,958.67
95965,959.65
96065,960.65
96166,961.66
96265,962.65
96363,963.63
96459,964.59
96556,965.56
96652,966.52
96745,967.45
96840,968.4
96934,969.34
97025,970.25
97117,971.17
97209,972.09
97300,973.0
97395,973.95
97491,974.91
97586,975.86
97683,976.83
97780,977.8
97877,978.77
97974,979.74
98071,980.71
98167,981.67
98262,982.62
98354,983.54
98446,984.46
98535,985.35
98624,986.24
98716,987.16
98810,988.1
98903,989.03
98992,989.92
99080,990.8
99169,991.69
99259,992.59
99350,993.5
99442,994.42
99535,995.35
99632,996.32
99729,997.29
99825,998.25
99924,999.24
100025,1000.25
100127,1001.27
100228,1002.28
100328,1003.28
100427,1004.27
100526,1005.26
100623,1006.23
100719,1007.19
100815,1008.15
100911,1009.11
101006,1010.06
101099,1010.99
101191,1011.91
101284,1012.84
101377,1013.77
101472,1014.72
101566,1015.66
101661,1016.61
101754,1017.54
101848,1018.48
101944,1019.44
102038,1020.38
102135,1021.35
102233,1022.33
102331,1023.31
102431,1024.31
102530,1025.3
102630,1026.3
102731,1027.31
102824,1028.24
102917,1029.17
103025,1030.25
103134,1031.34
103233,1032.33
103333,1033.33
103432,1034.32
103534,1035.34
103637,1036.37
103738,1037.38
103837,1038.37
103936,1039.36
104034,1040.34
104131,1041.31
104226,1042.26
104322,1043.22
104418,1044.18
104514,1045.14
104609,1046.09
104705,1047.05
104799,1047.99
104893,1048.93
104984,1049.84
105077,1050.77
105170,1051.7
105261,1052.61
105353,1053.53
105445,1054.45
105539,1055.39
105632,1056.32
105727,1057.27
105818,1058.18
105910,1059.1
106000,1060.0
106092,1060.92
106187,1061.87
106282,1062.82
106378,1063.78
106476,1064.76
106575,1065.75
106675,1066.75
106777,1067.77
106879,1068.79
106981,1069.81
107083,1070.83
107183,1071.83
107281,1072.81
107375,1073.75
107470,1074.7
107564,1075.64
107659,1076.59
107752,1077.52
107847,1078.47
107943,1079.43
108038,1080.38
108136,1081.36
108233,1082.33
108330,1083.3
108426,1084.26
108522,1085.22
108617,1086.17
108712,1087.12
108808,1088.08
108903,1089.03
109000,1090.0
109095,1090.95
109192,1091.92
109294,1092.94
109393,1093.93
109490,1094.9
109588,1095.88
109685,1096.85
109783,1097.83
109881,1098.81
109976,1099.76
110071,1100.71
110167,1101.67
110262,1102.62
110360,1103.6
110458,1104.58
110556,1105.56
110654,1106.54
110752,1107.52
110849,1108.49
110947,1109.47
111044,1110.44
111138,1111.38
111233,1112.33
111328,1113.28
111423,1114.23
111517,1115.17
111615,1116.15
111713,1117.13
111809,1118.09
111905,1119.05
112003,1120.03
112101,1121.01
112200,1122.0
112302,1123.02
112404,1124.04
112505,1125.05
112606,1126.06
112707,1127.07
112806,1128.06
112904,1129.04
113002,1130.02
113099,1130.99
113194,1131.94
113289,1132.89
113386,1133.86
113484,1134.84
113580,1135.8
113675,1136.75
113771,1137.71
113866,1138.66
113960,1139.6
114057,1140.57
114154,1141.54
114250,1142.5
114347,1143.47
114440,1144.4
114533,1145.33
114624,1146.24
114716,1147.16
114809,1148.09
114902,1149.02
114995,1149.95
115088,1150.88
115180,1151.8
115274,1152.74
115369,1153.69
115464,1154.64
115560,1155.6
115659,1156.59
115756,1157.56
115855,1158.55
115953,1159.53
116048,1160.48
116144,1161.44
116239,1162.39
116335,1163.35
116430,1164.3
116526,1165.26
116619,1166.19
116713,1167.13
116808,1168.08
116901,1169.01
116995,1169.95
117091,1170.91
117186,1171.86
117283,1172.83
117383,1173.83
117484,1174.84
117584,1175.84
117685,1176.85
117786,1177.86
117889,1178.89
117991,1179.91
118090,1180.9
118189,1181.89
118289,1182.89
118386,1183.86
118484,1184.84
118582,1185.82
118678,1186.78
118774,1187.74
118870,1188.7
118965,1189.65
119061,1190.61
119159,1191.59
119257,1192.57
119353,1193.53
119448,1194.48
119546,1195.46
119645,1196.45
119740,1197.4
119835,1198.35
119931,1199.31
120028,1200.28
120122,1201.22
120217,1202.17
120312,1203.12
120409,1204.09
120508,1205.08
120608,1206.08
120707,1207.07
120808,1208.08
120909,1209.09
121009,1210.09
121110,1211.1
121208,1212.08
121303,1213.03
121398,1213.98
121494,1214.94
121589,1215.89
121685,1216.85
121778,1217.78
121872,1218.72
121965,1219.65
122058,1220.58
122151,1221.51
122244,1222.44
122337,1223.37
122432,1224.32
122530,1225.3
122627,1226.27
122723,1227.23
122824,1228.24
122924,1229.24
123025,1230.25
123125,1231.25
123225,1232.25
123326,1233.26
123425,1234.25
123524,1235.24
123623,1236.23
123723,1237.23
123825,1238.25
123926,1239.26
124029,1240.29
124134,1241.34
124237,1242.37
124341,1243.41
124446,1244.46
124548,1245.48
124650,1246.5
124750,1247.5
124846,1248.46
124943,1249.43
125039,1250.39
125134,1251.34
125228,1252.28
125320,1253.2
125412,1254.12
125504,1255.04
125597,1255.97
125691,1256.91
125787,1257.87
125880,1258.8
125973,1259.73
126070,1260.7
126167,1261.67
126266,1262.66
126369,1263.69
126471,1264.71
126574,1265.74
126678,1266.78
126783,1267.83
126885,1268.85
126986,1269.86
127088,1270.88
127189,1271.89
127288,1272.88
127382,1273.82
127478,1274.78
127572,1275.72
127667,1276.67
127762,1277.62
127861,1278.61
127958,1279.58
128056,1280.56
128156,1281.56
128258,1282.58
128360,1283.6
128460,1284.6
128562,1285.62
128662,1286.62
128763,1287.63
128860,1288.6
128957,1289.57
129056,1290.56
129153,1291.53
129250,1292.5
129347,1293.47
129445,1294.45
129544,1295.44
129643,1296.43
129741,1297.41
129841,1298.41
129942,1299.42
130040,1300.4
130139,1301.39
130238,1302.38
130335,1303.35
130432,1304.32
130528,1305.28
130622,1306.22
130716,1307.16
130810,1308.1
130905,1309.05
131000,1310.0
131095,1310.95
131189,1311.89
131283,1312.83
131377,1313.77
131470,1314.7
131562,1315.62
131653,1316.53
131745,1317.45
131836,1318.36
131929,1319.29
132023,1320.23
132118,1321.18
132214,1322.14
132311,1323.11
132407,1324.07
132506,1325.06
132606,1326.06
132706,1327.06
132811,1328.11
132917,1329.17
133022,1330.22
133128,1331.28
133234,1332.34
133339,1333.39
133443,1334.43
133548,1335.48
133649,1336.49
133746,1337.46
133845,1338.45
133944,1339.44
134040,1340.4
134135,1341.35
134231,1342.31
134329,1343.29
134428,1344.28
134529,1345.29
134631,1346.31
134733,1347.33
134832,1348.32
134931,1349.31
135029,1350.29
135129,1351.29
135229,1352.29
135328,1353.28
135429,1354.29
135531,1355.31
135632,1356.32
135735,1357.35
135838,1358.38
135939,1359.39
136041,1360.41
136143,1361.43
136240,1362.4
136339,1363.39
136439,1364.39
136536,1365.36
136634,1366.34
136733,1367.33
136831,1368.31
136926,1369.26
137021,1370.21
137117,1371.17
137213,1372.13
137309,1373.09
137405,1374.05
137500,1375.0
137599,1375.99
137698,1376.98
137797,1377.97
137898,1378.98
138001,1380.01
138102,1381.02
138205,1382.05
138310,1383.1
138413,1384.13
138515,1385.15
138616,1386.16
138719,1387.19
138820,1388.2
138921,1389.21
139022,1390.22
139125,1391.25
139225,1392.25
139326,1393.26
139427,1394.27
139525,1395.25
139624,1396.24
139722,1397.22
139820,1398.2
139916,1399.16
140013,1400.13
140111,1401.11
140208,1402.08
140304,1403.04
140401,1404.01
140498,1404.98
140593,1405.93
140688,1406.88
140783,1407.83
140880,1408.8
140977,1409.77
141071,1410.71
141166,1411.66
141264,1412.64
141363,1413.63
141461,1414.61
141564,1415.64
141667,1416.67
141771,1417.71
141870,1418.7
141971,1419.71
142070,1420.7
142170,1421.7
142273,1422.73
142376,1423.76
142479,1424.79
142583,1425.83
142685,1426.85
142789,1427.89
142894,1428.94
142996,1429.96
143098,1430.98
143202,1432.02
143303,1433.03
143404,1434.04
143503,1435.03
143600,1436.0
143695,1436.95
143791,1437.91
143887,1438.87
143983,1439.83
144076,1440.76
144169,1441.69
144261,1442.61
144354,1443.54
144450,1444.5
144544,1445.44
144636,1446.36
144733,1447.33
144832,1448.32
144930,1449.3
145027,1450.27
145129,1451.29
145231,1452.31
145333,1453.33
145434,1454.34
145536,1455.36
145639,1456.39
145740,1457.4
145841,1458.41
145939,1459.39
146039,1460.39
146140,1461.4
146240,1462.4
146340,1463.4
146442,1464.42
146543,1465.43
146643,1466.43
146743,1467.43
146843,1468.43
146940,1469.4
147037,1470.37
147135,1471.35
147232,1472.32
147326,1473.26
147421,1474.21
147517,1475.17
147611,1476.11
147704,1477.04
147798,1477.98
147894,1478.94
147992,1479.92
148087,1480.87
148182,1481.82
148279,1482.79
148378,1483.78
148475,1484.75
148572,1485.72
148670,1486.7
148767,1487.67
148863,1488.63
148960,1489.6
149058,1490.58
149153,1491.53
149247,1492.47
149343,1493.43
149439,1494.39
149533,1495.33
149628,1496.28
149724,1497.24
149819,1498.19
149914,1499.14
150009,1500.09
150106,1501.06
150200,1502.0
150294,1502.94
150388,1503.88
150483,1504.83
150576,1505.76
150669,1506.69
150761,1507.61
150857,1508.57
150953,1509.53
151047,1510.47
151141,1511.41
151237,1512.37
151333,1513.33
151429,1514.29
151526,1515.26
151626,1516.26
151721,1517.21
151814,1518.14
151907,1519.07
152000,1520.0
152096,1520.96
152190,1521.9
152284,1522.84
152380,1523.8
152477,1524.77
152573,1525.73
152671,1526.71
152770,1527.7
152867,1528.67
152964,1529.64
153061,1530.61
153158,1531.58
153254,1532.54
153349,1533.49
153445,1534.45
153539,1535.39
153633,1536.33
153730,1537.3
153825,1538.25
153919,1539.19
154013,1540.13
154107,1541.07
154200,1542.0
154293,1542.93
154385,1543.85
154478,1544.78
154572,1545.72
154664,1546.64
154757,1547.57
154851,1548.51
154948,1549.48
155043,1550.43
155138,1551.38
155234,1552.34
155328,1553.28
155421,1554.21
155516,1555.16
155611,1556.11
155705,1557.05
155798,1557.98
155889,1558.89
155986,1559.86
156083,1560.83
156178,1561.78
156271,1562.71
156367,1563.67
156463,1564.63
156558,1565.58
156654,1566.54
156750,1567.5
156846,1568.46
156942,1569.42
157041,1570.41
157141,1571.41
157239,1572.39
157335,1573.35
157433,1574.33
157529,1575.29
157620,1576.2
157708,1577.08
157796,1577.96
157885,1578.85
157973,1579.73
158063,1580.63
158156,1581.56
158250,1582.5
158343,1583.43
158441,1584.41
158539,1585.39
158634,1586.34
158729,1587.29
158826,1588.26
158922,1589.22
159016,1590.16
159109,1591.09
159203,1592.03
159299,1592.99
159393,1593.93
159485,1594.85
159578,1595.78
159672,1596.72
159767,1597.67
159863,1598.63
159960,1599.6
160060,1600.6
160160,1601.6
160260,1602.6
160359,1603.59
160459,1604.59
160557,1605.57
160658,1606.58
160761,1607.61
160862,1608.62
160965,1609.65
161070,1610.7
161174,1611.74
161277,1612.77
161381,1613.81
161485,1614.85
161582,1615.82
161681,1616.81
161778,1617.78
161873,1618.73
161967,1619.67
162063,1620.63
162160,1621.6
162254,1622.54
162349,1623.49
162446,1624.46
162547,1625.47
162648,1626.48
162745,1627.45
162840,1628.4
162937,1629.37
163035,1630.35
163131,1631.31
163229,1632.29
163328,1633.28
163425,1634.25
163526,1635.26
163627,1636.27
163726,1637.26
163824,1638.24
163924,1639.24
164023,1640.23
164118,1641.18
164213,1642.13
164310,1643.1
164406,1644.06
164500,1645.0
164594,1645.94
164691,1646.91
164788,1647.88
164883,1648.83
164980,1649.8
165078,1650.78
165170,1651.7
165264,1652.64
165358,1653.58
165452,1654.52
165546,1655.46
165641,1656.41
165739,1657.39
165836,1658.36
165933,1659.33
166032,1660.32
166131,1661.31
166229,1662.29
166331,1663.31
166432,1664.32
166529,1665.29
166626,1666.26
166723,1667.23
166817,1668.17
166910,1669.1
167002,1670.02
167096,1670.96
167189,1671.89
167283,1672.83
167377,1673.77
167474,1674.74
167570,1675.7
167664,1676.64
167759,1677.59
167855,1678.55
167950,1679.5
168045,1680.45
168139,1681.39
168237,1682.37
168334,1683.34
168430,1684.3
168528,1685.28
168628,1686.28
168727,1687.27
168820,1688.2
168916,1689.16
169008,1690.08
169100,1691.0
169192,1691.92
169291,1692.91
169388,1693.88
169482,1694.82
169580,1695.8
169677,1696.77
169776,1697.76
169876,1698.76
169974,1699.74
170076,1700.76
170175,1701.75
170273,1702.73
170374,1703.74
170471,1704.71
170567,1705.67
170665,1706.65
170760,1707.6
170854,1708.54
170951,1709.51
171047,1710.47
171139,1711.39
171230,1712.3
171324,1713.24
171417,1714.17
171511,1715.11
171605,1716.05
171699,1716.99
171796,1717.96
171893,1718.93
171989,1719.89
172088,1720.88
172185,1721.85
172280,1722.8
172375,1723.75
172473,1724.73
172569,1725.69
172669,1726.69
172769,1727.69
172865,1728.65
172963,1729.63
173061,1730.61
173161,1731.61
173258,1732.58
173353,1733.53
173452,1734.52
173550,1735.5
173646,1736.46
173739,1737.39
173834,1738.34
173930,1739.3
174023,1740.23
174116,1741.16
174211,1742.11
174304,1743.04
174397,1743.97
174489,1744.89
174586,1745.86
174683,1746.83
174779,1747.79
174880,1748.8
174979,1749.79
175076,1750.76
175174,1751.74
175271,1752.71
175366,1753.66
175463,1754.63
175560,1755.6
175656,1756.56
175751,1757.51
175847,1758.47
175946,1759.46
176044,1760.44
176142,1761.42
176242,1762.42
176339,1763.39
176435,1764.35
176533,1765.33
176630,1766.3
176722,1767.22
176817,1768.17
176913,1769.13
177005,1770.05
177100,1771.0
177195,1771.95
177287,1772.87
177382,1773.82
177477,1774.77
177570,1775.7
177665,1776.65
177762,1777.62
177858,1778.58
177954,1779.54
178051,1780.51
178150,1781.5
178247,1782.47
178345,1783.45
178444,1784.44
178542,1785.42
178640,1786.4
178739,1787.39
178837,1788.37
178931,1789.31
179028,1790.28
179125,1791.25
179218,1792.18
179314,1793.14
179408,1794.08
179503,1795.03
179595,1795.95
179688,1796.88
179781,1797.81
179863,1798.63
179945,1799.45
180044,1800.44
180143,1801.43
180232,1802.32
180321,1803.21
180413,1804.13
180508,1805.08
180603,1806.03
180698,1806.98
180794,1807.94
180891,1808.91
180987,1809.87
181086,1810.86
181183,1811.83
181276,1812.76
181370,1813.7
181463,1814.63
181555,1815.55
181646,1816.46
181736,1817.36
181828,1818.28
181919,1819.19
182009,1820.09
182101,1821.01
182197,1821.97
182290,1822.9
182380,1823.8
182475,1824.75
182568,1825.68
182658,1826.58
182751,1827.51
182843,1828.43
182936,1829.36
183026,1830.26
183122,1831.22
183217,1832.17
183309,1833.09
183404,1834.04
183499,1834.99
183596,1835.96
183688,1836.88
183783,1837.83
183877,1838.77
183970,1839.7
184062,1840.62
184156,1841.56
184251,1842.51
184344,1843.44
184439,1844.39
184537,1845.37
184636,1846.36
184730,1847.3
184829,1848.29
184927,1849.27
185022,1850.22
185116,1851.16
185215,1852.15
185310,1853.1
185404,1854.04
185500,1855.0
185597,1855.97
185693,1856.93
185790,1857.9
185886,1858.86
185984,1859.84
186081,1860.81
186176,1861.76
186275,1862.75
186371,1863.71
186465,1864.65
186560,1865.6
186656,1866.56
186750,1867.5
186846,1868.46
186941,1869.41
187037,1870.37
187130,1871.3
187226,1872.26
187321,1873.21
187416,1874.16
187507,1875.07
187600,1876.0
187694,1876.94
187790,1877.9
187886,1878.86
187978,1879.78
188074,1880.74
188171,1881.71
188265,1882.65
188359,1883.59
188456,1884.56
188551,1885.51
188647,1886.47
188743,1887.43
188841,1888.41
188938,1889.38
189035,1890.35
189137,1891.37
189239,1892.39
189332,1893.32
189430,1894.3
189525,1895.25
189620,1896.2
189719,1897.19
189820,1898.2
189919,1899.19
190018,1900.18
190118,1901.18
190216,1902.16
190311,1903.11
190405,1904.05
190502,1905.02
190597,1905.97
190688,1906.88
190781,1907.81
190874,1908.74
190967,1909.67
191057,1910.57
191150,1911.5
191243,1912.43
191339,1913.39
191433,1914.33
191527,1915.27
191624,1916.24
191722,1917.22
191817,1918.17
191913,1919.13
192014,1920.14
192113,1921.13
192211,1922.11
192307,1923.07
192406,1924.06
192505,1925.05
192601,1926.01
192702,1927.02
192803,1928.03
192901,1929.01
193002,1930.02
193102,1931.02
193199,1931.99
193302,1933.02
193404,1934.04
193502,1935.02
193600,1936.0
193700,1937.0
193794,1937.94
193888,1938.88
193986,1939.86
194081,1940.81
194177,1941.77
194272,1942.72
194371,1943.71
194466,1944.66
194562,1945.62
194660,1946.6
194759,1947.59
194852,1948.52
194948,1949.48
195046,1950.46
195142,1951.42
195239,1952.39
195337,1953.37
195436,1954.36
195533,1955.33
195628,1956.28
195727,1957.27
195824,1958.24
195921,1959.21
196017,1960.17
196114,1961.14
196207,1962.07
196305,1963.05
196401,1964.01
196494,1964.94
196593,1965.93
196691,1966.91
196788,1967.88
196885,1968.85
196981,1969.81
197072,1970.72
197166,1971.66
197259,1972.59
197350,1973.5
197443,1974.43
197538,1975.38
197632,1976.32
197725,1977.25
197822,1978.22
197919,1979.19
198014,1980.14
198109,1981.09
198207,1982.07
198302,1983.02
198395,1983.95
198490,1984.9
198586,1985.86
198682,1986.82
198774,1987.74
198869,1988.69
198966,1989.66
199061,1990.61
199154,1991.54
199250,1992.5
199346,1993.46
199439,1994.39
199532,1995.32
199626,1996.26
199721,1997.21
199812,1998.12
199905,1999.05
199999,1999.99
200093,2000.93
200186,2001.86
200280,2002.8
200376,2003.76
200469,2004.69
200566,2005.66
200664,2006.64
200756,2007.56
200853,2008.53
200951,2009.51
201045,2010.45
201142,2011.42
201242,2012.42
201337,2013.37
201432,2014.32
201529,2015.29
201621,2016.21
201717,2017.17
201813,2018.13
201908,2019.08
202003,2020.03
202100,2021.0
202195,2021.95
202290,2022.9
202384,2023.84
202479,2024.79
202574,2025.74
202667,2026.67
202762,2027.62
202856,2028.56
202948,2029.48
203043,2030.43
203137,2031.37
203229,2032.29
203320,2033.2
203414,2034.14
203507,2035.07
203598,2035.98
203688,2036.88
203782,2037.82
203875,2038.75
203966,2039.66
204059,2040.59
204155,2041.55
204251,2042.51
204345,2043.45
204442,2044.42
204539,2045.39
204632,2046.32
204725,2047.25
204821,2048.21
204917,2049.17
205010,2050.1
205107,2051.07
205204,2052.04
205301,2053.01
205394,2053.94
205492,2054.92
205587,2055.87
205680,2056.8
205777,2057.77
205874,2058.74
205969,2059.69
206066,2060.66
206161,2061.61
206257,2062.57
206351,2063.51
206449,2064.49
206544,2065.44
206643,2066.43
206741,2067.41
206837,2068.37
206935,2069.35
207034,2070.34
207128,2071.28
207226,2072.26
207322,2073.22
207418,2074.18
207512,2075.12
207610,2076.1
207707,2077.07
207802,2078.02
207902,2079.02
208002,2080.02
208099,2080.99
208198,2081.98
208295,2082.95
208391,2083.91
208489,2084.89
208587,2085.87
208682,2086.82
208780,2087.8
208876,2088.76
208971,2089.71
209066,2090.66
209164,2091.64
209260,2092.6
209354,2093.54
209451,2094.51
209545,2095.45
209639,2096.39
209736,2097.36
209833,2098.33
209929,2099.29
210025,2100.25
210125,2101.25
210220,2102.2
210315,2103.15
210414,2104.14
210510,2105.1
210604,2106.04
210703,2107.03
210800,2108.0
210894,2108.94
210990,2109.9
211084,2110.84
211177,2111.77
211268,2112.68
211360,2113.6
211453,2114.53
211547,2115.47
211643,2116.43
211742,2117.42
211838,2118.38
211939,2119.39
212037,2120.37
212132,2121.32
212227,2122.27
212323,2123.23
212415,2124.15
212506,2125.06
212600,2126.0
212692,2126.92
212785,2127.85
212874,2128.74
212969,2129.69
213063,2130.63
213158,2131.58
213250,2132.5
213342,2133.42
213438,2134.38
213534,2135.34
213630,2136.3
213727,2137.27
213823,2138.23
213919,2139.19
214014,2140.14
214110,2141.1
214206,2142.06
214306,2143.06
214405,2144.05
214507,2145.07
214606,2146.06
214705,2147.05
214801,2148.01
214898,2148.98
214999,2149.99
215095,2150.95
215190,2151.9
215287,2152.87
215384,2153.84
215477,2154.77
215575,2155.75
215673,2156.73
215768,2157.68
215863,2158.63
215957,2159.57
216052,2160.52
216149,2161.49
216250,2162.5
216355,2163.55
216457,2164.57
216561,2165.61
216664,2166.64
216765,2167.65
216869,2168.69
216970,2169.7
217069,2170.69
217166,2171.66
217266,2172.66
217361,2173.61
217457,2174.57
217555,2175.55
217652,2176.52
217748,2177.48
217846,2178.46
217944,2179.44
218040,2180.4
218137,2181.37
218235,2182.35
218332,2183.32
218428,2184.28
218527,2185.27
218625,2186.25
218721,2187.21
218819,2188.19
218917,2189.17
219011,2190.11
219105,2191.05
219201,2192.01
219294,2192.94
219388,2193.88
219484,2194.84
219580,2195.8
219675,2196.75
219769,2197.69
219866,2198.66
219961,2199.61
220056,2200.56
220157,2201.57
220254,2202.54
220350,2203.5
220445,2204.45
220539,2205.39
220630,2206.3
220723,2207.23
220819,2208.19
220914,2209.14
221013,2210.13
221115,2211.15
221217,2212.17
221317,2213.17
221419,2214.19
221520,2215.2
221619,2216.19
221716,2217.16
221816,2218.16
221910,2219.1
222003,2220.03
222099,2220.99
222194,2221.94
222285,2222.85
222380,2223.8
222474,2224.74
222570,2225.7
222662,2226.62
222758,2227.58
222856,2228.56
222952,2229.52
223049,2230.49
223147,2231.47
223245,2232.45
223340,2233.4
223440,2234.4
223538,2235.38
223633,2236.33
223731,2237.31
223830,2238.3
223925,2239.25
224021,2240.21
224121,2241.21
224221,2242.21
224317,2243.17
224412,2244.12
224512,2245.12
224609,2246.09
224708,2247.08
224806,2248.06
224904,2249.04
225002,2250.02
225102,2251.02
225203,2252.03
225301,2253.01
225405,2254.05
225509,2255.09
225613,2256.13
225709,2257.09
225807,2258.07
225903,2259.03
225998,2259.98
226091,2260.91
226186,2261.86
226280,2262.8
226370,2263.7
226465,2264.65
226558,2265.58
226649,2266.49
226744,2267.44
226840,2268.4
226934,2269.34
227031,2270.31
227126,2271.26
227217,2272.17
227311,2273.11
227405,2274.05
227499,2274.99
227591,2275.91
227685,2276.85
227777,2277.77
227869,2278.69
227960,2279.6
228051,2280.51
228143,2281.43
228235,2282.35
228325,2283.25
228418,2284.18
228513,2285.13
228606,2286.06
228699,2286.99
228793,2287.93
228887,2288.87
228982,2289.82
229081,2290.81
229182,2291.82
229280,2292.8
229380,2293.8
229484,2294.84
229585,2295.85
229687,2296.87
229792,2297.92
229897,2298.97
230001,2300.01
230107,2301.07
230210,2302.1
230307,2303.07
230402,2304.02
230500,2305.0
230593,2305.93
230689,2306.89
230787,2307.87
230885,2308.85
230983,2309.83
231085,2310.85
231186,2311.86
231285,2312.85
231385,2313.85
231484,2314.84
231585,2315.85
231683,2316.83
231782,2317.82
231883,2318.83
231983,2319.83
232079,2320.79
232176,2321.76
232275,2322.75
232371,2323.71
232470,2324.7
232573,2325.73
232672,2326.72
232772,2327.72
232873,2328.73
232975,2329.75
233071,2330.71
233167,2331.67
233263,2332.63
233354,2333.54
233446,2334.46
233540,2335.4
233632,2336.32
233725,2337.25
233821,2338.21
233917,2339.17
234013,2340.13
234108,2341.08
234204,2342.04
234302,2343.02
234398,2343.98
234499,2344.99
234598,2345.98
234696,2346.96
234795,2347.95
234897,2348.97
234995,2349.95
235096,2350.96
235195,2351.95
235291,2352.91
235390,2353.9
235483,2354.83
235575,2355.75
235667,2356.67
235761,2357.61
235855,2358.55
235950,2359.5
236048,2360.48
236147,2361.47
236243,2362.43
236340,2363.4
236438,2364.38
236533,2365.33
236626,2366.26
236723,2367.23
236821,2368.21
236914,2369.14
237008,2370.08
237103,2371.03
237195,2371.95
237290,2372.9
237387,2373.87
237487,2374.87
237585,2375.85
237683,2376.83
237781,2377.81
237876,2378.76
237972,2379.72
238068,2380.68
238162,2381.62
238256,2382.56
238355,2383.55
238452,2384.52
238548,2385.48
238645,2386.45
238741,2387.41
238832,2388.32
238924,2389.24
239019,2390.19
239113,2391.13
239205,2392.05
239301,2393.01
239399,2393.99
239497,2394.97
239594,2395.94
239693,2396.93
239791,2397.91
239886,2398.86
239983,2399.83
240080,2400.8
240174,2401.74
240268,2402.68
240365,2403.65
240462,2404.62
240560,2405.6
240658,2406.58
240754,2407.54
240853,2408.53
240951,2409.51
241050,2410.5
241147,2411.47
241244,2412.44
241345,2413.45
241442,2414.42
241539,2415.39
241638,2416.38
241736,2417.36
241835,2418.35
241935,2419.35
242033,2420.33
242134,2421.34
242235,2422.35
242334,2423.34
242430,2424.3
242526,2425.26
242617,2426.17
242709,2427.09
242800,2428.0
242891,2428.91
242982,2429.82
243074,2430.74
243167,2431.67
243259,2432.59
243353,2433.53
243448,2434.48
243544,2435.44
243638,2436.38
243733,2437.33
243828,2438.28
243922,2439.22
244014,2440.14
244106,2441.06
244198,2441.98
244290,2442.9
244379,2443.79
244471,2444.71
244563,2445.63
244656,2446.56
244752,2447.52
244846,2448.46
244941,2449.41
245037,2450.37
245133,2451.33
245227,2452.27
245324,2453.24
245422,2454.22
245518,2455.18
245616,2456.16
245717,2457.17
245817,2458.17
245916,2459.16
246016,2460.16
246115,2461.15
246214,2462.14
246316,2463.16
246415,2464.15
246512,2465.12
246613,2466.13
246712,2467.12
246808,2468.08
246905,2469.05
247002,2470.02
247099,2470.99
247194,2471.94
247292,2472.92
247388,2473.88
247483,2474.83
247584,2475.84
247685,2476.85
247784,2477.84
247885,2478.85
247987,2479.87
248089,2480.89
248192,2481.92
248295,2482.95
248394,2483.94
248498,2484.98
248600,2486.0
248698,2486.98
248795,2487.95
248895,2488.95
248990,2489.9
249085,2490.85
249183,2491.83
249279,2492.79
249370,2493.7
249466,2494.66
249560,2495.6
249655,2496.55
249750,2497.5
249847,2498.47
249942,2499.42
250038,2500.38
250134,2501.34
250233,2502.33
250331,2503.31
250435,2504.35
250537,2505.37
250637,2506.37
250740,2507.4
250843,2508.43
250942,2509.42
251041,2510.41
251145,2511.45
251244,2512.44
251342,2513.42
251444,2514.44
251543,2515.43
251641,2516.41
251743,2517.43
251846,2518.46
251942,2519.42
252034,2520.34
252126,2521.26
252214,2522.14
252304,2523.04
252395,2523.95
252485,2524.85
252578,2525.78
252673,2526.73
252766,2527.66
252863,2528.63
252960,2529.6
253055,2530.55
253153,2531.53
253249,2532.49
253344,2533.44
253439,2534.39
253536,2535.36
253629,2536.29
253721,2537.21
253815,2538.15
253908,2539.08
254001,2540.01
254092,2540.92
254186,2541.86
254279,2542.79
254372,2543.72
254469,2544.69
254569,2545.69
254666,2546.66
254761,2547.61
254856,2548.56
254954,2549.54
255052,2550.52
255149,2551.49
255248,2552.48
255347,2553.47
255445,2554.45
255546,2555.46
255646,2556.46
255743,2557.43
255841,2558.41
255939,2559.39
256033,2560.33
256126,2561.26
256222,2562.22
256317,2563.17
256411,2564.11
256504,2565.04
256600,2566.0
256696,2566.96
256791,2567.91
256888,2568.88
256983,2569.83
257082,2570.82
257181,2571.81
257279,2572.79
257377,2573.77
257478,2574.78
257576,2575.76
257678,2576.78
257786,2577.86
257889,2578.89
257990,2579.9
258090,2580.9
258190,2581.9
258293,2582.93
258395,2583.95
258496,2584.96
258598,2585.98
258698,2586.98
258795,2587.95
258895,2588.95
258992,2589.92
259087,2590.87
259184,2591.84
259280,2592.8
259373,2593.73
259465,2594.65
259560,2595.6
259655,2596.55
259747,2597.47
259839,2598.39
259936,2599.36
260031,2600.31
260126,2601.26
260219,2602.19
260313,2603.13
260405,2604.05
260498,2604.98
260593,2605.93
260689,2606.89
260783,2607.83
260880,2608.8
260979,2609.79
261076,2610.76
261174,2611.74
261273,2612.73
261372,2613.72
261468,2614.68
261566,2615.66
261664,2616.64
261760,2617.6
261856,2618.56
261952,2619.52
262047,2620.47
262143,2621.43
262238,2622.38
262333,2623.33
262430,2624.3
262525,2625.25
262620,2626.2
262716,2627.16
262812,2628.12
262908,2629.08
263005,2630.05
263103,2631.03
263199,2631.99
263295,2632.95
263393,2633.93
263488,2634.88
263584,2635.84
263681,2636.81
263776,2637.76
263870,2638.7
263967,2639.67
264064,2640.64
264160,2641.6
264257,2642.57
264356,2643.56
264451,2644.51
264546,2645.46
264643,2646.43
264741,2647.41
264837,2648.37
264935,2649.35
265032,2650.32
265130,2651.3
265230,2652.3
265329,2653.29
265426,2654.26
265525,2655.25
265623,2656.23
265719,2657.19
265817,2658.17
265915,2659.15
266009,2660.09
266104,2661.04
266199,2661.99
266295,2662.95
266389,2663.89
266483,2664.83
266578,2665.78
266672,2666.72
266767,2667.67
266862,2668.62
266955,2669.55
267047,2670.47
267142,2671.42
267237,2672.37
267330,2673.3
267425,2674.25
267524,2675.24
267626,2676.26
267728,2677.28
267828,2678.28
267930,2679.3
268027,2680.27
268124,2681.24
268222,2682.22
268319,2683.19
268417,2684.17
268517,2685.17
268615,2686.15
268711,2687.11
268809,2688.09
268905,2689.05
269000,2690.0
269095,2690.95
269191,2691.91
269283,2692.83
269376,2693.76
269472,2694.72
269569,2695.69
269664,2696.64
269757,2697.57
269853,2698.53
269950,2699.5
270048,2700.48
270146,2701.46
270245,2702.45
270345,2703.45
270444,2704.44
270542,2705.42
270642,2706.42
270741,2707.41
270841,2708.41
270941,2709.41
271043,2710.43
271142,2711.42
271241,2712.41
271341,2713.41
271436,2714.36
271531,2715.31
271629,2716.29
271726,2717.26
271823,2718.23
271920,2719.2
272022,2720.22
272124,2721.24
272224,2722.24
272324,2723.24
272426,2724.26
272529,2725.29
272626,2726.26
272723,2727.23
272820,2728.2
272917,2729.17
273010,2730.1
273109,2731.09
273207,2732.07
273300,2733.0
273394,2733.94
273487,2734.87
273580,2735.8
273674,2736.74
273771,2737.71
273870,2738.7
273970,2739.7
274069,2740.69
274168,2741.68
274275,2742.75
274377,2743.77
274475,2744.75
274572,2745.72
274669,2746.69
274765,2747.65
274857,2748.57
274950,2749.5
275047,2750.47
275144,2751.44
275238,2752.38
275331,2753.31
275425,2754.25
275523,2755.23
275619,2756.19
275717,2757.17
275817,2758.17
275918,2759.18
276018,2760.18
276119,2761.19
276221,2762.21
276321,2763.21
276423,2764.23
276521,2765.21
276614,2766.14
276709,2767.09
276803,2768.03
276894,2768.94
276991,2769.91
277089,2770.89
277187,2771.87
277285,2772.85
277385,2773.85
277484,2774.84
277579,2775.79
277678,2776.78
277778,2777.78
277877,2778.77
277977,2779.77
278080,2780.8
278183,2781.83
278283,2782.83
278384,2783.84
278483,2784.83
278580,2785.8
278679,2786.79
278779,2787.79
278878,2788.78
278978,2789.78
279081,2790.81
279181,2791.81
279279,2792.79
279377,2793.77
279476,2794.76
279568,2795.68
279661,2796.61
279756,2797.56
279848,2798.48
279943,2799.43
280037,2800.37
280133,2801.33
280227,2802.27
280322,2803.22
280420,2804.2
280517,2805.17
280613,2806.13
280712,2807.12
280810,2808.1
280905,2809.05
281002,2810.02
281100,2811.0
281197,2811.97
281295,2812.95
281395,2813.95
281492,2814.92
281588,2815.88
281687,2816.87
281783,2817.83
281877,2818.77
281974,2819.74
282069,2820.69
282162,2821.62
282256,2822.56
282353,2823.53
282446,2824.46
282539,2825.39
282635,2826.35
282730,2827.3
282822,2828.22
282918,2829.18
283013,2830.13
283109,2831.09
283202,2832.02
283299,2832.99
283392,2833.92
283484,2834.84
283581,2835.81
283677,2836.77
283776,2837.76
283875,2838.75
283972,2839.72
284063,2840.63
284156,2841.56
284248,2842.48
284339,2843.39
284434,2844.34
284531,2845.31
284629,2846.29
284732,2847.32
284834,2848.34
284934,2849.34
285037,2850.37
285137,2851.37
285233,2852.33
285329,2853.29
285426,2854.26
285519,2855.19
285611,2856.11
285706,2857.06
285799,2857.99
285891,2858.91
285982,2859.82
286075,2860.75
286168,2861.68
286262,2862.62
286356,2863.56
286449,2864.49
286543,2865.43
286640,2866.4
286736,2867.36
286834,2868.34
286937,2869.37
287036,2870.36
287131,2871.31
287228,2872.28
287325,2873.25
287420,2874.2
287519,2875.19
287618,2876.18
287716,2877.16
287815,2878.15
287916,2879.16
288015,2880.15
288113,2881.13
288213,2882.13
288308,2883.08
288402,2884.02
288500,2885.0
288594,2885.94
288687,2886.87
288785,2887.85
288881,2888.81
288975,2889.75
289075,2890.75
289175,2891.75
289271,2892.71
289372,2893.72
289474,2894.74
289572,2895.72
289670,2896.7
289771,2897.71
289873,2898.73
289973,2899.73
290075,2900.75
290179,2901.79
290280,2902.8
290381,2903.81
290479,2904.79
290575,2905.75
290673,2906.73
290768,2907.68
290862,2908.62
290955,2909.55
291051,2910.51
291144,2911.44
291235,2912.35
291328,2913.28
291423,2914.23
291518,2915.18
291613,2916.13
291710,2917.1
291809,2918.09
291906,2919.06
292005,2920.05
292108,2921.08
292210,2922.1
292306,2923.06
292401,2924.01
292491,2924.91
292582,2925.82
292659,2926.59
292737,2927.37
292829,2928.29
292921,2929.21
293006,2930.06
293094,2930.94
293189,2931.89
293286,2932.86
293386,2933.86
293492,2934.92
293604,2936.04
293714,2937.14
293824,2938.24
293934,2939.34
294039,2940.39
294143,2941.43
294245,2942.45
294343,2943.43
294438,2944.38
294536,2945.36
294633,2946.33
294726,2947.26
294821,2948.21
294919,2949.19
295018,2950.18
295115,2951.15
295213,2952.13
295316,2953.16
295416,2954.16
295516,2955.16
295619,2956.19
295719,2957.19
295818,2958.18
295921,2959.21
296025,2960.25
296125,2961.25
296225,2962.25
296328,2963.28
296428,2964.28
296532,2965.32
296635,2966.35
296736,2967.36
296836,2968.36
296939,2969.39
297037,2970.37
297134,2971.34
297233,2972.33
297332,2973.32
297431,2974.31
297529,2975.29
297623,2976.23
297716,2977.16
297812,2978.12
297907,2979.07
298002,2980.02
298100,2981.0
298198,2981.98
298296,2982.96
298391,2983.91
298490,2984.9
298589,2985.89
298684,2986.84
298780,2987.8
298879,2988.79
298977,2989.77
299071,2990.71
299164,2991.64
299258,2992.58
299353,2993.53
299444,2994.44
299540,2995.4
299635,2996.35
299727,2997.27
299819,2998.19
299912,2999.12
300006,3000.06
300106,3001.06
300207,3002.07
300305,3003.05
300403,3004.03
300504,3005.04
300606,3006.06
300707,3007.07
300810,3008.1
300914,3009.14
301014,3010.14
301116,3011.16
301217,3012.17
301313,3013.13
301410,3014.1
301509,3015.09
301606,3016.06
301703,3017.03
301801,3018.01
301900,3019.0
301998,3019.98
302095,3020.95
302194,3021.94
302294,3022.94
302391,3023.91
302489,3024.89
302588,3025.88
302687,3026.87
302783,3027.83
302879,3028.79
302978,3029.78
303075,3030.75
303169,3031.69
303266,3032.66
303364,3033.64
303460,3034.6
303558,3035.58
303658,3036.58
303754,3037.54
303851,3038.51
303948,3039.48
304041,3040.41
304139,3041.39
304233,3042.33
304328,3043.28
304425,3044.25
304523,3045.23
304618,3046.18
304716,3047.16
304815,3048.15
304914,3049.14
305009,3050.09
305108,3051.08
305203,3052.03
305301,3053.01
305398,3053.98
305493,3054.93
305587,3055.87
305680,3056.8
305777,3057.77
305872,3058.72
305969,3059.69
306067,3060.67
306164,3061.64
306261,3062.61
306358,3063.58
306454,3064.54
306546,3065.46
306642,3066.42
306737,3067.37
306827,3068.27
306921,3069.21
307015,3070.15
307106,3071.06
307197,3071.97
307293,3072.93
307389,3073.89
307484,3074.84
307578,3075.78
307675,3076.75
307771,3077.71
307866,3078.66
307958,3079.58
308053,3080.53
308146,3081.46
308238,3082.38
308329,3083.29
308421,3084.21
308515,3085.15
308608,3086.08
308702,3087.02
308797,3087.97
308890,3088.9
308984,3089.84
309079,3090.79
309172,3091.72
309265,3092.65
309360,3093.6
309456,3094.56
309549,3095.49
309646,3096.46
309742,3097.42
309840,3098.4
309935,3099.35
310030,3100.3
310127,3101.27
310225,3102.25
310320,3103.2
310416,3104.16
310515,3105.15
310611,3106.11
310706,3107.06
310805,3108.05
310901,3109.01
310997,3109.97
311097,3110.97
311195,3111.95
311293,3112.93
311394,3113.94
311494,3114.94
311589,3115.89
311685,3116.85
311784,3117.84
311880,3118.8
311977,3119.77
312077,3120.77
312172,3121.72
312269,3122.69
312369,3123.69
312465,3124.65
312562,3125.62
312661,3126.61
312761,3127.61
312859,3128.59
312956,3129.56
313055,3130.55
313154,3131.54
313248,3132.48
313342,3133.42
313440,3134.4
313534,3135.34
313628,3136.28
313722,3137.22
313815,3138.15
313910,3139.1
314001,3140.01
314097,3140.97
314192,3141.92
314284,3142.84
314376,3143.76
314472,3144.72
314566,3145.66
314658,3146.58
314749,3147.49
314844,3148.44
314937,3149.37
315029,3150.29
315125,3151.25
315221,3152.21
315316,3153.16
315410,3154.1
315506,3155.06
315603,3156.03
315699,3156.99
315794,3157.94
315891,3158.91
315989,3159.89
316085,3160.85
316183,3161.83
316283,3162.83
316384,3163.84
316483,3164.83
316585,3165.85
316685,3166.85
316782,3167.82
316880,3168.8
316973,3169.73
317066,3170.66
317162,3171.62
317257,3172.57
317351,3173.51
317446,3174.46
317543,3175.43
317639,3176.39
317734,3177.34
317833,3178.33
317933,3179.33
318033,3180.33
318129,3181.29
318229,3182.29
318324,3183.24
318419,3184.19
318515,3185.15
318611,3186.11
318708,3187.08
318803,3188.03
318899,3188.99
318995,3189.95
319089,3190.89
319185,3191.85
319281,3192.81
319374,3193.74
319467,3194.67
319565,3195.65
319658,3196.58
319751,3197.51
319848,3198.48
319943,3199.43
320037,3200.37
320133,3201.33
320228,3202.28
320321,3203.21
320413,3204.13
320507,3205.07
320601,3206.01
320690,3206.9
320784,3207.84
320878,3208.78
320971,3209.71
321064,3210.64
321158,3211.58
321253,3212.53
321349,3213.49
321444,3214.44
321543,3215.43
321644,3216.44
321742,3217.42
321842,3218.42
321942,3219.42
322038,3220.38
322134,3221.34
322232,3222.32
322326,3223.26
322421,3224.21
322520,3225.2
322616,3226.16
322712,3227.12
322812,3228.12
322911,3229.11
323005,3230.05
323102,3231.02
323199,3231.99
323295,3232.95
323387,3233.87
323481,3234.81
323574,3235.74
323664,3236.64
323756,3237.56
323848,3238.48
323938,3239.38
324030,3240.3
324125,3241.25
324221,3242.21
324314,3243.14
324409,3244.09
324506,3245.06
324602,3246.02
324695,3246.95
324791,3247.91
324887,3248.87
324981,3249.81
325072,3250.72
325163,3251.63
325256,3252.56
325349,3253.49
325442,3254.42
325532,3255.32
325624,3256.24
325716,3257.16
325808,3258.08
325898,3258.98
325989,3259.89
326079,3260.79
326174,3261.74
326272,3262.72
326369,3263.69
326466,3264.66
326565,3265.65
326661,3266.61
326758,3267.58
326857,3268.57
326957,3269.57
327056,3270.56
327155,3271.55
327255,3272.55
327353,3273.53
327450,3274.5
327550,3275.5
327647,3276.47
327740,3277.4
327837,3278.37
327935,3279.35
328035,3280.35
328134,3281.34
328233,3282.33
328332,3283.32
328428,3284.28
328526,3285.26
328623,3286.23
328716,3287.16
328811,3288.11
328907,3289.07
329001,3290.01
329095,3290.95
329193,3291.93
329290,3292.9
329386,3293.86
329484,3294.84
329584,3295.84
329683,3296.83
329780,3297.8
329875,3298.75
329972,3299.72
330069,3300.69
330164,3301.64
330257,3302.57
330352,3303.52
330447,3304.47
330542,3305.42
330634,3306.34
330730,3307.3
330825,3308.25
330920,3309.2
331015,3310.15
331112,3311.12
331207,3312.07
331304,3313.04
331401,3314.01
331502,3315.02
331601,3316.01
331702,3317.02
331801,3318.01
331898,3318.98
331997,3319.97
332099,3320.99
332201,3322.01
332300,3323.0
332400,3324.0
332504,3325.04
332603,3326.03
332705,3327.05
332803,3328.03
332902,3329.02
332999,3329.99
333098,3330.98
333195,3331.95
333289,3332.89
333386,3333.86
333482,3334.82
333577,3335.77
333672,3336.72
333770,3337.7
333865,3338.65
333959,3339.59
334057,3340.57
334153,3341.53
334246,3342.46
334341,3343.41
334437,3344.37
334531,3345.31
334626,3346.26
334723,3347.23
334820,3348.2
334913,3349.13
335009,3350.09
335106,3351.06
335197,3351.97
335289,3352.89
335382,3353.82
335474,3354.74
335564,3355.64
335654,3356.54
335745,3357.45
335838,3358.38
335931,3359.31
336024,3360.24
336118,3361.18
336214,3362.14
336310,3363.1
336405,3364.05
336503,3365.03
336600,3366.0
336694,3366.94
336790,3367.9
336887,3368.87
336984,3369.84
337079,3370.79
337178,3371.78
337276,3372.76
337371,3373.71
337469,3374.69
337566,3375.66
337661,3376.61
337757,3377.57
337857,3378.57
337954,3379.54
338049,3380.49
338149,3381.49
338246,3382.46
338343,3383.43
338441,3384.41
338541,3385.41
338636,3386.36
338734,3387.34
338830,3388.3
338925,3389.25
339019,3390.19
339117,3391.17
339214,3392.14
339311,3393.11
339409,3394.09
339509,3395.09
339608,3396.08
339704,3397.04
339800,3398.0
339898,3398.98
339993,3399.93
340088,3400.88
340188,3401.88
340284,3402.84
340379,3403.79
340477,3404.77
340572,3405.72
340665,3406.65
340757,3407.57
340844,3408.44
340934,3409.34
341023,3410.23
341109,3411.09
341199,3411.99
341289,3412.89
341377,3413.77
341466,3414.66
341560,3415.6
341654,3416.54
341745,3417.45
341839,3418.39
341933,3419.33
342026,3420.26
342118,3421.18
342211,3422.11
342304,3423.04
342397,3423.97
342489,3424.89
342583,3425.83
342677,3426.77
342773,3427.73
342869,3428.69
342963,3429.63
343059,3430.59
343156,3431.56
343254,3432.54
343350,3433.5
343447,3434.47
343544,3435.44
343641,3436.41
343736,3437.36
343831,3438.31
343930,3439.3
344030,3440.3
344126,3441.26
344223,3442.23
344323,3443.23
344421,3444.21
344520,3445.2
344619,3446.19
344720,3447.2
344819,3448.19
344921,3449.21
345019,3450.19
345116,3451.16
345216,3452.16
345312,3453.12
345406,3454.06
345499,3454.99
345596,3455.96
345691,3456.91
345785,3457.85
345880,3458.8
345978,3459.78
346078,3460.78
346175,3461.75
346273,3462.73
346375,3463.75
346477,3464.77
346578,3465.78
346678,3466.78
346780,3467.8
346877,3468.77
346973,3469.73
347073,3470.73
347169,3471.69
347265,3472.65
347363,3473.63
347460,3474.6
347555,3475.55
347651,3476.51
347748,3477.48
347847,3478.47
347946,3479.46
348042,3480.42
348142,3481.42
348240,3482.4
348337,3483.37
348435,3484.35
348533,3485.33
348631,3486.31
348727,3487.27
348825,3488.25
348928,3489.28
349029,3490.29
349127,3491.27
349227,3492.27
349325,3493.25
349420,3494.2
349517,3495.17
349611,3496.11
349705,3497.05
349800,3498.0
349896,3498.96
349990,3499.9
350086,3500.86
350185,3501.85
350283,3502.83
350379,3503.79
350479,3504.79
350577,3505.77
350672,3506.72
350767,3507.67
350865,3508.65
350963,3509.63
351059,3510.59
351158,3511.58
351255,3512.55
351357,3513.57
351456,3514.56
351555,3515.55
351656,3516.56
351756,3517.56
351852,3518.52
351949,3519.49
352049,3520.49
352144,3521.44
352240,3522.4
352340,3523.4
352436,3524.36
352530,3525.3
352624,3526.24
352721,3527.21
352817,3528.17
352913,3529.13
353008,3530.08
353106,3531.06
353202,3532.02
353298,3532.98
353395,3533.95
353493,3534.93
353587,3535.87
353682,3536.82
353780,3537.8
353879,3538.79
353974,3539.74
354072,3540.72
354168,3541.68
354263,3542.63
354361,3543.61
354459,3544.59
354554,3545.54
354650,3546.5
354747,3547.47
354844,3548.44
354937,3549.37
355032,3550.32
355131,3551.31
355225,3552.25
355321,3553.21
355420,3554.2
355517,3555.17
355615,3556.15
355719,3557.19
355821,3558.21
355918,3559.18
356018,3560.18
356116,3561.16
356211,3562.11
356309,3563.09
356407,3564.07
356502,3565.02
356599,3565.99
356689,3566.89
356779,3567.79
356870,3568.7
356959,3569.59
357050,3570.5
357143,3571.43
357237,3572.37
357333,3573.33
357432,3574.32
357532,3575.32
357629,3576.29
357726,3577.26
357825,3578.25
357920,3579.2
358015,3580.15
358111,3581.11
358206,3582.06
358299,3582.99
358392,3583.92
358487,3584.87
358577,3585.77
358667,3586.67
358756,3587.56
358849,3588.49
358942,3589.42
359033,3590.33
359128,3591.28
359225,3592.25
359322,3593.22
359417,3594.17
359515,3595.15
359612,3596.12
359707,3597.07
359802,3598.02
359899,3598.99
359996,3599.96
360090,3600.9
360189,3601.89
360286,3602.86
360384,3603.84
360483,3604.83
360586,3605.86
360687,3606.87
360788,3607.88
360890,3608.9
360990,3609.9
361088,3610.88
361190,3611.9
361290,3612.9
361390,3613.9
361492,3614.92
361591,3615.91
361692,3616.92
361795,3617.95
361901,3619.01
362004,3620.04
362107,3621.07
362212,3622.12
362313,3623.13
362411,3624.11
362510,3625.1
362610,3626.1
362708,3627.08
362807,3628.07
362908,3629.08
363006,3630.06
363105,3631.05
363206,3632.06
363307,3633.07
363404,3634.04
363503,3635.03
363604,3636.04
363702,3637.02
363798,3637.98
363896,3638.96
363994,3639.94
364092,3640.92
364185,3641.85
364278,3642.78
364374,3643.74
364469,3644.69
364560,3645.6
364653,3646.53
364749,3647.49
364847,3648.47
364942,3649.42
365038,3650.38
365133,3651.33
365231,3652.31
365327,3653.27
365424,3654.24
365524,3655.24
365625,3656.25
365724,3657.24
365827,3658.27
365929,3659.29
366029,3660.29
366127,3661.27
366227,3662.27
366328,3663.28
366425,3664.25
366523,3665.23
366625,3666.25
366722,3667.22
366819,3668.19
366920,3669.2
367017,3670.17
367114,3671.14
367213,3672.13
367313,3673.13
367414,3674.14
367513,3675.13
367616,3676.16
367714,3677.14
367806,3678.06
367901,3679.01
367991,3679.91
368082,3680.82
368176,3681.76
368270,3682.7
368367,3683.67
368466,3684.66
368563,3685.63
368660,3686.6
368760,3687.6
368859,3688.59
368955,3689.55
369052,3690.52
369148,3691.48
369242,3692.42
369334,3693.34
369427,3694.27
369520,3695.2
369612,3696.12
369701,3697.01
369791,3697.91
369883,3698.83
369971,3699.71
370061,3700.61
370150,3701.5
370245,3702.45
370341,3703.41
370438,3704.38
370537,3705.37
370637,3706.37
370739,3707.39
370837,3708.37
370935,3709.35
371037,3710.37
371133,3711.33
371229,3712.29
371328,3713.28
371424,3714.24
371521,3715.21
371619,3716.19
371720,3717.2
371819,3718.19
371920,3719.2
372023,3720.23
372123,3721.23
372224,3722.24
372325,3723.25
372422,3724.22
372520,3725.2
372621,3726.21
372719,3727.19
372816,3728.16
372914,3729.14
373016,3730.16
373113,3731.13
373210,3732.1
373310,3733.1
373408,3734.08
373505,3735.05
373602,3736.02
373703,3737.03
373802,3738.02
373900,3739.0
374002,3740.02
374101,3741.01
374198,3741.98
374297,3742.97
374395,3743.95
374492,3744.92
374588,3745.88
374689,3746.89
374790,3747.9
374891,3748.91
374990,3749.9
375092,3750.92
375193,3751.93
375293,3752.93
375393,3753.93
375492,3754.92
375589,3755.89
375688,3756.88
375786,3757.86
375879,3758.79
375972,3759.72
376067,3760.67
376158,3761.58
376250,3762.5
376346,3763.46
376442,3764.42
376540,3765.4
376634,3766.34
376730,3767.3
376830,3768.3
376927,3769.27
377024,3770.24
377118,3771.18
377216,3772.16
377311,3773.11
377406,3774.06
377503,3775.03
377599,3775.99
377691,3776.91
377784,3777.84
377878,3778.78
377973,3779.73
378069,3780.69
378165,3781.65
378262,3782.62
378362,3783.62
378463,3784.63
378564,3785.64
378666,3786.66
378771,3787.71
378875,3788.75
378978,3789.78
379080,3790.8
379181,3791.81
379276,3792.76
379371,3793.71
379468,3794.68
379561,3795.61
379653,3796.53
379750,3797.5
379844,3798.44
379939,3799.39
380033,3800.33
380131,3801.31
380224,3802.24
380323,3803.23
380422,3804.22
380520,3805.2
380619,3806.19
380718,3807.18
380818,3808.18
380913,3809.13
381011,3810.11
381113,3811.13
381208,3812.08
381303,3813.03
381401,3814.01
381496,3814.96
381591,3815.91
381689,3816.89
381785,3817.85
381880,3818.8
381980,3819.8
382080,3820.8
382177,3821.77
382273,3822.73
382373,3823.73
382470,3824.7
382562,3825.62
382655,3826.55
382751,3827.51
382845,3828.45
382942,3829.42
383037,3830.37
383136,3831.36
383233,3832.33
383331,3833.31
383432,3834.32
383530,3835.3
383626,3836.26
383726,3837.26
383822,3838.22
383918,3839.18
384018,3840.18
384120,3841.2
384219,3842.19
384316,3843.16
384414,3844.14
384513,3845.13
384607,3846.07
384701,3847.01
384799,3847.99
384893,3848.93
384984,3849.84
385073,3850.73
385160,3851.6
385247,3852.47
385335,3853.35
385423,3854.23
385512,3855.12
385606,3856.06
385702,3857.02
385798,3857.98
385896,3858.96
385995,3859.95
386093,3860.93
386189,3861.89
386285,3862.85
386382,3863.82
386477,3864.77
386572,3865.72
386669,3866.69
386764,3867.64
386857,3868.57
386947,3869.47
387040,3870.4
387134,3871.34
387232,3872.32
387331,3873.31
387426,3874.26
387523,3875.23
387622,3876.22
387718,3877.18
387817,3878.17
387918,3879.18
388020,3880.2
388119,3881.19
388219,3882.19
388322,3883.22
388423,3884.23
388521,3885.21
388621,3886.21
388723,3887.23
388821,3888.21
388922,3889.22
389022,3890.22
389120,3891.2
389225,3892.25
389329,3893.29
389429,3894.29
389532,3895.32
389636,3896.36
389737,3897.37
389838,3898.38
389941,3899.41
390040,3900.4
390139,3901.39
390238,3902.38
390335,3903.35
390436,3904.36
390542,3905.42
390646,3906.46
390750,3907.5
390855,3908.55
390955,3909.55
391053,3910.53
391146,3911.46
391238,3912.38
391330,3913.3
391421,3914.21
391513,3915.13
391609,3916.09
391704,3917.04
391800,3918.0
391900,3919.0
392000,3920.0
392098,3920.98
392198,3921.98
392298,3922.98
392394,3923.94
392490,3924.9
392584,3925.84
392679,3926.79
392771,3927.71
392863,3928.63
392959,3929.59
393052,3930.52
393146,3931.46
393238,3932.38
393334,3933.34
393430,3934.3
393523,3935.23
393617,3936.17
393714,3937.14
393810,3938.1
393907,3939.07
394004,3940.04
394098,3940.98
394193,3941.93
394290,3942.9
394390,3943.9
394488,3944.88
394590,3945.9
394694,3946.94
394793,3947.93
394892,3948.92
394993,3949.93
395094,3950.94
395192,3951.92
395290,3952.9
395392,3953.92
395490,3954.9
395589,3955.89
395687,3956.87
395787,3957.87
395882,3958.82
395979,3959.79
396074,3960.74
396164,3961.64
396255,3962.55
396345,3963.45
396434,3964.34
396527,3965.27
396618,3966.18
396709,3967.09
396798,3967.98
396886,3968.86
396973,3969.73
397061,3970.61
397153,3971.53
397250,3972.5
397344,3973.44
397437,3974.37
397533,3975.33
397626,3976.26
397719,3977.19
397814,3978.14
397907,3979.07
397997,3979.97
398091,3980.91
398183,3981.83
398274,3982.74
398366,3983.66
398459,3984.59
398553,3985.53
398647,3986.47
398742,3987.42
398838,3988.38
398936,3989.36
399036,3990.36
399135,3991.35
399230,3992.3
399324,3993.24
399418,3994.18
399514,3995.14
399610,3996.1
399704,3997.04
399802,3998.02
399902,3999.02
400000,4000.0
400101,4001.01
400202,4002.02
400301,4003.01
400401,4004.01
400502,4005.02
400601,4006.01
400698,4006.98
400796,4007.96
400891,4008.91
400986,4009.86
401082,4010.82
401178,4011.78
401272,4012.72
401368,4013.68
401465,4014.65
401562,4015.62
401657,4016.57
401755,4017.55
401854,4018.54
401951,4019.51
402053,4020.53
402155,4021.55
402254,4022.54
402353,4023.53
402453,4024.53
402548,4025.48
402643,4026.43
402741,4027.41
402837,4028.37
402933,4029.33
403035,4030.35
403138,4031.38
403238,4032.38
403337,4033.37
403439,4034.39
403537,4035.37
403635,4036.35
403735,4037.35
403830,4038.3
403925,4039.25
404020,4040.2
404119,4041.19
404216,4042.16
404312,4043.12
404411,4044.11
404510,4045.1
404607,4046.07
404704,4047.04
404801,4048.01
404898,4048.98
404991,4049.91
405083,4050.83
405179,4051.79
405270,4052.7
405362,4053.62
405457,4054.57
405552,4055.52
405646,4056.46
405741,4057.41
405839,4058.39
405934,4059.34
406029,4060.29
406127,4061.27
406228,4062.28
406327,4063.27
406426,4064.26
406527,4065.27
406629,4066.29
406729,4067.29
406826,4068.26
406924,4069.24
407024,4070.24
407117,4071.17
407212,4072.12
407309,4073.09
407406,4074.06
407500,4075.0
407596,4075.96
407694,4076.94
407792,4077.92
407887,4078.87
407985,4079.85
408084,4080.84
408182,4081.82
408280,4082.8
408378,4083.78
408476,4084.76
408571,4085.71
408667,4086.67
408766,4087.66
408865,4088.65
408962,4089.62
409059,4090.59
409156,4091.56
409252,4092.52
409349,4093.49
409447,4094.47
409543,4095.43
409640,4096.4
409739,4097.39
409839,4098.39
409937,4099.37
410037,4100.37
410135,4101.35
410231,4102.31
410327,4103.27
410424,4104.24
410521,4105.21
410618,4106.18
410716,4107.16
410813,4108.13
410907,4109.07
411002,4110.02
411098,4110.98
411191,4111.91
411285,4112.85
411382,4113.82
411477,4114.77
411572,4115.72
411667,4116.67
411763,4117.63
411861,4118.61
411955,4119.55
412049,4120.49
412146,4121.46
412242,4122.42
412335,4123.35
412427,4124.27
412522,4125.22
412618,4126.18
412712,4127.12
412804,4128.04
412898,4128.98
412992,4129.92
413084,4130.84
413179,4131.79
413274,4132.74
413371,4133.71
413466,4134.66
413561,4135.61
413660,4136.6
413758,4137.58
413856,4138.56
413957,4139.57
414058,4140.58
414156,4141.56
414252,4142.52
414353,4143.53
414450,4144.5
414546,4145.46
414645,4146.45
414744,4147.44
414838,4148.38
414934,4149.34
415032,4150.32
415127,4151.27
415223,4152.23
415322,4153.22
415422,4154.22
415518,4155.18
415614,4156.14
415714,4157.14
415810,4158.1
415906,4159.06
416005,4160.05
416102,4161.02
416200,4162.0
416294,4162.94
416388,4163.88
416476,4164.76
416565,4165.65
416652,4166.52
416738,4167.38
416824,4168.24
416909,4169.09
416993,4169.93
417076,4170.76
417159,4171.59
417242,4172.42
417325,4173.25
417411,4174.11
417498,4174.98
417585,4175.85
417675,4176.75
417766,4177.66
417857,4178.57
417947,4179.47
418040,4180.4
418133,4181.33
418223,4182.23
418317,4183.17
418412,4184.12
418507,4185.07
418600,4186.0
418697,4186.97
418795,4187.95
418895,4188.95
418994,4189.94
419094,4190.94
419197,4191.97
419298,4192.98
419400,4194.0
419503,4195.03
419604,4196.04
419702,4197.02
419802,4198.02
419902,4199.02
420001,4200.01
420100,4201.0
420202,4202.02
420300,4203.0
420398,4203.98
420498,4204.98
420598,4205.98
420694,4206.94
420791,4207.91
420894,4208.94
420993,4209.93
421091,4210.91
421191,4211.91
421288,4212.88
421385,4213.85
421482,4214.82
421578,4215.78
421673,4216.73
421766,4217.66
421862,4218.62
421956,4219.56
422050,4220.5
422148,4221.48
422245,4222.45
422342,4223.42
422440,4224.4
422541,4225.41
422642,4226.42
422739,4227.39
422836,4228.36
422933,4229.33
423031,4230.31
423126,4231.26
423219,4232.19
423317,4233.17
423413,4234.13
423506,4235.06
423599,4235.99
423695,4236.95
423790,4237.9
423885,4238.85
423982,4239.82
424081,4240.81
424180,4241.8
424276,4242.76
424373,4243.73
424471,4244.71
424567,4245.67
424662,4246.62
424759,4247.59
424857,4248.57
424954,4249.54
425051,4250.51
425151,4251.51
425250,4252.5
425347,4253.47
425444,4254.44
425542,4255.42
425640,4256.4
425737,4257.37
425836,4258.36
425935,4259.35
426033,4260.33
426132,4261.32
426232,4262.32
426328,4263.28
426423,4264.23
426519,4265.19
426610,4266.1
426702,4267.02
426796,4267.96
426890,4268.9
426984,4269.84
427078,4270.78
427174,4271.74
427271,4272.71
427365,4273.65
427460,4274.6
427557,4275.57
427655,4276.55
427751,4277.51
427849,4278.49
427947,4279.47
428042,4280.42
428137,4281.37
428234,4282.34
428332,4283.32
428429,4284.29
428527,4285.27
428622,4286.22
428718,4287.18
428815,4288.15
428910,4289.1
429006,4290.06
429103,4291.03
429199,4291.99
429295,4292.95
429392,4293.92
429488,4294.88
429581,4295.81
429674,4296.74
429769,4297.69
429862,4298.62
429956,4299.56
430050,4300.5
430142,4301.42
430236,4302.36
430332,4303.32
430426,4304.26
430520,4305.2
430617,4306.17
430710,4307.1
430802,4308.02
430898,4308.98
430991,4309.91
431083,4310.83
431178,4311.78
431274,4312.74
431370,4313.7
431465,4314.65
431560,4315.6
431655,4316.55
431750,4317.5
431844,4318.44
431938,4319.38
432034,4320.34
432130,4321.3
432225,4322.25
432322,4323.22
432417,4324.17
432512,4325.12
432605,4326.05
432700,4327.0
432795,4327.95
432887,4328.87
432982,4329.82
433076,4330.76
433168,4331.68
433259,4332.59
433354,4333.54
433446,4334.46
433537,4335.37
433631,4336.31
433724,4337.24
433816,4338.16
433910,4339.1
434004,4340.04
434100,4341.0
434193,4341.93
434292,4342.92
434391,4343.91
434488,4344.88
434586,4345.86
434685,4346.85
434785,4347.85
434884,4348.84
434983,4349.83
435083,4350.83
435180,4351.8
435277,4352.77
435373,4353.73
435465,4354.65
435560,4355.6
435654,4356.54
435746,4357.46
435842,4358.42
435938,4359.38
436031,4360.31
436125,4361.25
436223,4362.23
436321,4363.21
436416,4364.16
436511,4365.11
436611,4366.11
436708,4367.08
436803,4368.03
436897,4368.97
436995,4369.95
437090,4370.9
437186,4371.86
437284,4372.84
437384,4373.84
437482,4374.82
437577,4375.77
437676,4376.76
437775,4377.75
437872,4378.72
437968,4379.68
438064,4380.64
438159,4381.59
438255,4382.55
438351,4383.51
438447,4384.47
438543,4385.43
438641,4386.41
438739,4387.39
438833,4388.33
438926,4389.26
439021,4390.21
439115,4391.15
439207,4392.07
439301,4393.01
439397,4393.97
439490,4394.9
439583,4395.83
439681,4396.81
439777,4397.77
439872,4398.72
439967,4399.67
440065,4400.65
440161,4401.61
440257,4402.57
440355,4403.55
440456,4404.56
440555,4405.55
440653,4406.53
440755,4407.55
440853,4408.53
440951,4409.51
441051,4410.51
441147,4411.47
441245,4412.45
441347,4413.47
441446,4414.46
441546,4415.46
441644,4416.44
441745,4417.45
441843,4418.43
441939,4419.39
442037,4420.37
442131,4421.31
442225,4422.25
442318,4423.18
442414,4424.14
442506,4425.06
442598,4425.98
442692,4426.92
442787,4427.87
442880,4428.8
442972,4429.72
443068,4430.68
443161,4431.61
443253,4432.53
443346,4433.46
443444,4434.44
443541,4435.41
443635,4436.35
443730,4437.3
443829,4438.29
443925,4439.25
444021,4440.21
444118,4441.18
444214,4442.14
444308,4443.08
444403,4444.03
444499,4444.99
444595,4445.95
444691,4446.91
444788,4447.88
444886,4448.86
444983,4449.83
445081,4450.81
445181,4451.81
445280,4452.8
445377,4453.77
445474,4454.74
445571,4455.71
445667,4456.67
445761,4457.61
445857,4458.57
445952,4459.52
446044,4460.44
446136,4461.36
446230,4462.3
446325,4463.25
446419,4464.19
446515,4465.15
446613,4466.13
446708,4467.08
446804,4468.04
446898,4468.98
446994,4469.94
447090,4470.9
447185,4471.85
447280,4472.8
447376,4473.76
447473,4474.73
447568,4475.68
447664,4476.64
447760,4477.6
447855,4478.55
447949,4479.49
448045,4480.45
448141,4481.41
448235,4482.35
448329,4483.29
448424,4484.24
448519,4485.19
448613,4486.13
448708,4487.08
448803,4488.03
448897,4488.97
448991,4489.91
449088,4490.88
449185,4491.85
449280,4492.8
449375,4493.75
449471,4494.71
449568,4495.68
449664,4496.64
449760,4497.6
449857,4498.57
449953,4499.53
450048,4500.48
450144,4501.44
450241,4502.41
450339,4503.39
450436,4504.36
450535,4505.35
450634,4506.34
450730,4507.3
450825,4508.25
450921,4509.21
451013,4510.13
451104,4511.04
451196,4511.96
451291,4512.91
451386,4513.86
451480,4514.8
451578,4515.78
451676,4516.76
451772,4517.72
451865,4518.65
451958,4519.58
452045,4520.45
452133,4521.33
452219,4522.19
452303,4523.03
452390,4523.9
452478,4524.78
452567,4525.67
452658,4526.58
452755,4527.55
452853,4528.53
452952,4529.52
453050,4530.5
453150,4531.5
453250,4532.5
453345,4533.45
453442,4534.42
453538,4535.38
453631,4536.31
453722,4537.22
453813,4538.13
453904,4539.04
453996,4539.96
454086,4540.86
454175,4541.75
454267,4542.67
454361,4543.61
454456,4544.56
454549,4545.49
454642,4546.42
454737,4547.37
454831,4548.31
454927,4549.27
455024,4550.24
455125,4551.25
455229,4552.29
455331,4553.31
455436,4554.36
455542,4555.42
455643,4556.43
455747,4557.47
455848,4558.48
455947,4559.47
456048,4560.48
456150,4561.5
456252,4562.52
456349,4563.49
456449,4564.49
456547,4565.47
456645,4566.45
456746,4567.46
456848,4568.48
456946,4569.46
457048,4570.48
457146,4571.46
457244,4572.44
457343,4573.43
457441,4574.41
457538,4575.38
457634,4576.34
457732,4577.32
457829,4578.29
457924,4579.24
458019,4580.19
458116,4581.16
458210,4582.1
458303,4583.03
458397,4583.97
458493,4584.93
458586,4585.86
458679,4586.79
458777,4587.77
458874,4588.74
458967,4589.67
459065,4590.65
459163,4591.63
459261,4592.61
459357,4593.57
459456,4594.56
459558,4595.58
459659,4596.59
459758,4597.58
459860,4598.6
459962,4599.62
460062,4600.62
460162,4601.62
460262,4602.62
460360,4603.6
460459,4604.59
460561,4605.61
460662,4606.62
460762,4607.62
460864,4608.64
460965,4609.65
461066,4610.66
461167,4611.67
461268,4612.68
461368,4613.68
461465,4614.65
461559,4615.59
461647,4616.47
461735,4617.35
461822,4618.22
461908,4619.08
461995,4619.95
462083,4620.83
462172,4621.72
462264,4622.64
462356,4623.56
462448,4624.48
462542,4625.42
462637,4626.37
462730,4627.3
462823,4628.23
462916,4629.16
463010,4630.1
463102,4631.02
463193,4631.93
463286,4632.86
463377,4633.77
463468,4634.68
463562,4635.62
463655,4636.55
463750,4637.5
463846,4638.46
463940,4639.4
464034,4640.34
464128,4641.28
464222,4642.22
464314,4643.14
464407,4644.07
464502,4645.02
464599,4645.99
464693,4646.93
464789,4647.89
464886,4648.86
464986,4649.86
465086,4650.86
465186,4651.86
465288,4652.88
465388,4653.88
465490,4654.9
465593,4655.93
465696,4656.96
465797,4657.97
465896,4658.96
465997,4659.97
466095,4660.95
466192,4661.92
466293,4662.93
466388,4663.88
466484,4664.84
466585,4665.85
466687,4666.87
466788,4667.88
466893,4668.93
466997,4669.97
467099,4670.99
467203,4672.03
467308,4673.08
467409,4674.09
467509,4675.09
467612,4676.12
467713,4677.13
467812,4678.12
467913,4679.13
468013,4680.13
468112,4681.12
468212,4682.12
468313,4683.13
468409,4684.09
468510,4685.1
468607,4686.07
468705,4687.05
468805,4688.05
468901,4689.01
469000,4690.0
469102,4691.02
469203,4692.03
469301,4693.01
469401,4694.01
469504,4695.04
469604,4696.04
469705,4697.05
469807,4698.07
469907,4699.07
470007,4700.07
470109,4701.09
470207,4702.07
470305,4703.05
470402,4704.02
470501,4705.01
470595,4705.95
470690,4706.9
470789,4707.89
470886,4708.86
470984,4709.84
471083,4710.83
471183,4711.83
471279,4712.79
471376,4713.76
471476,4714.76
471574,4715.74
471671,4716.71
471768,4717.68
471869,4718.69
471965,4719.65
472060,4720.6
472158,4721.58
472254,4722.54
472349,4723.49
472444,4724.44
472544,4725.44
472642,4726.42
472738,4727.38
472836,4728.36
472934,4729.34
473027,4730.27
473122,4731.22
473219,4732.19
473312,4733.12
473405,4734.05
473503,4735.03
473596,4735.96
473690,4736.9
473786,4737.86
473881,4738.81
473978,4739.78
474077,4740.77
474173,4741.73
474270,4742.7
474366,4743.66
474461,4744.61
474555,4745.55
474646,4746.46
474737,4747.37
474827,4748.27
474915,4749.15
475005,4750.05
475093,4750.93
475180,4751.8
475270,4752.7
475362,4753.62
475455,4754.55
475547,4755.47
475640,4756.4
475737,4757.37
475832,4758.32
475924,4759.24
476014,4760.14
476107,4761.07
476199,4761.99
476289,4762.89
476378,4763.78
476470,4764.7
476560,4765.6
476650,4766.5
476745,4767.45
476838,4768.38
476933,4769.33
477028,4770.28
477127,4771.27
477223,4772.23
477319,4773.19
477417,4774.17
477515,4775.15
477611,4776.11
477707,4777.07
477808,4778.08
477906,4779.06
478002,4780.02
478098,4780.98
478196,4781.96
478297,4782.97
478395,4783.95
478496,4784.96
478596,4785.96
478696,4786.96
478797,4787.97
478898,4788.98
478997,4789.97
479094,4790.94
479192,4791.92
479289,4792.89
479382,4793.82
479477,4794.77
479574,4795.74
479670,4796.7
479765,4797.65
479862,4798.62
479961,4799.61
480057,4800.57
480153,4801.53
480251,4802.51
480349,4803.49
480445,4804.45
480546,4805.46
480647,4806.47
480746,4807.46
480845,4808.45
480945,4809.45
481046,4810.46
481146,4811.46
481248,4812.48
481352,4813.52
481454,4814.54
481557,4815.57
481658,4816.58
481759,4817.59
481861,4818.61
481962,4819.62
482058,4820.58
482156,4821.56
482246,4822.46
482335,4823.35
482423,4824.23
482503,4825.03
482584,4825.84
482674,4826.74
482765,4827.65
482851,4828.51
482937,4829.37
483025,4830.25
483116,4831.16
483205,4832.05
483293,4832.93
483380,4833.8
483468,4834.68
483558,4835.58
483651,4836.51
483745,4837.45
483838,4838.38
483934,4839.34
484030,4840.3
484125,4841.25
484219,4842.19
484315,4843.15
484408,4844.08
484501,4845.01
484596,4845.96
484691,4846.91
484785,4847.85
484878,4848.78
484973,4849.73
485069,4850.69
485167,4851.67
485268,4852.68
485373,4853.73
485476,4854.76
485577,4855.77
485680,4856.8
485780,4857.8
485878,4858.78
485979,4859.79
486076,4860.76
486172,4861.72
486269,4862.69
486368,4863.68
486464,4864.64
486560,4865.6
486658,4866.58
486756,4867.56
486850,4868.5
486948,4869.48
487046,4870.46
487142,4871.42
487242,4872.42
487342,4873.42
487440,4874.4
487543,4875.43
487642,4876.42
487745,4877.45
487847,4878.47
487948,4879.48
488050,4880.5
488154,4881.54
488253,4882.53
488349,4883.49
488443,4884.43
488534,4885.34
488627,4886.27
488716,4887.16
488805,4888.05
488897,4888.97
488989,4889.89
489085,4890.85
489183,4891.83
489277,4892.77
489374,4893.74
489468,4894.68
489559,4895.59
489650,4896.5
489741,4897.41
489833,4898.33
489923,4899.23
490014,4900.14
490109,4901.09
490204,4902.04
490299,4902.99
490394,4903.94
490492,4904.92
490588,4905.88
490684,4906.84
490778,4907.78
490873,4908.73
490969,4909.69
491065,4910.65
491160,4911.6
491255,4912.55
491352,4913.52
491448,4914.48
491545,4915.45
491644,4916.44
491745,4917.45
491845,4918.45
491945,4919.45
492048,4920.48
492150,4921.5
492251,4922.51
492353,4923.53
492456,4924.56
492557,4925.57
492659,4926.59
492763,4927.63
492867,4928.67
492969,4929.69
493073,4930.73
493177,4931.77
493279,4932.79
493379,4933.79
493481,4934.81
493581,4935.81
493680,4936.8
493779,4937.79
493878,4938.78
493977,4939.77
494076,4940.76
494175,4941.75
494274,4942.74
494371,4943.71
494468,4944.68
494562,4945.62
494652,4946.52
494744,4947.44
494836,4948.36
494928,4949.28
495023,4950.23
495121,4951.21
495220,4952.2
495321,4953.21
495423,4954.23
495524,4955.24
495625,4956.25
495727,4957.27
495823,4958.23
495919,4959.19
496017,4960.17
496115,4961.15
496211,4962.11
496309,4963.09
496409,4964.09
496502,4965.02
496596,4965.96
496691,4966.91
496787,4967.87
496880,4968.8
496975,4969.75
497071,4970.71
497167,4971.67
497263,4972.63
497361,4973.61
497461,4974.61
497563,4975.63
497665,4976.65
497769,4977.69
497874,4978.74
497976,4979.76
498078,4980.78
498181,4981.81
498282,4982.82
498382,4983.82
498483,4984.83
498584,4985.84
498683,4986.83
498781,4987.81
498880,4988.8
498979,4989.79
499077,4990.77
499175,4991.75
499272,4992.72
499370,4993.7
499470,4994.7
499569,4995.69
499667,4996.67
499767,4997.67
499868,4998.68
499966,4999.66
500062,5000.62
500155,5001.55
500247,5002.47
500336,5003.36
500425,5004.25
500516,5005.16
500605,5006.05
500698,5006.98
500792,5007.92
500886,5008.86
500983,5009.83
501083,5010.83
501182,5011.82
501282,5012.82
501384,5013.84
501483,5014.83
501579,5015.79
501673,5016.73
501767,5017.67
501861,5018.61
501956,5019.56
502049,5020.49
502144,5021.44
502239,5022.39
502332,5023.32
502426,5024.26
502520,5025.2
502615,5026.15
502711,5027.11
502811,5028.11
502912,5029.12
503013,5030.13
503115,5031.15
503221,5032.21
503326,5033.26
503430,5034.3
503536,5035.36
503638,5036.38
503741,5037.41
503843,5038.43
503942,5039.42
504042,5040.42
504142,5041.42
504241,5042.41
504339,5043.39
504439,5044.39
504538,5045.38
504636,5046.36
504736,5047.36
504837,5048.37
504935,5049.35
505034,5050.34
505135,5051.35
505236,5052.36
505335,5053.35
505435,5054.35
505537,5055.37
505637,5056.37
505735,5057.35
505835,5058.35
505937,5059.37
506035,5060.35
506134,5061.34
506234,5062.34
506335,5063.35
506433,5064.33
506535,5065.35
506636,5066.36
506735,5067.35
506833,5068.33
506933,5069.33
507027,5070.27
507121,5071.21
507222,5072.22
507320,5073.2
507418,5074.18
507519,5075.19
507614,5076.14
507710,5077.1
507806,5078.06
507906,5079.06
508003,5080.03
508102,5081.02
508203,5082.03
508302,5083.02
508399,5083.99
508498,5084.98
508598,5085.98
508697,5086.97
508792,5087.92
508889,5088.89
508984,5089.84
509075,5090.75
509166,5091.66
509262,5092.62
509353,5093.53
509446,5094.46
509541,5095.41
509639,5096.39
509736,5097.36
509833,5098.33
509931,5099.31
510031,5100.31
510127,5101.27
510224,5102.24
510320,5103.2
510415,5104.15
510508,5105.08
510591,5105.91
510675,5106.75
510778,5107.78
510882,5108.82
510979,5109.79
511071,5110.71
511163,5111.63
511252,5112.52
511340,5113.4
511427,5114.27
511512,5115.12
511599,5115.99
511687,5116.87
511775,5117.75
511865,5118.65
511960,5119.6
512055,5120.55
512148,5121.48
512244,5122.44
512341,5123.41
512435,5124.35
512529,5125.29
512626,5126.26
512722,5127.22
512816,5128.16
512910,5129.1
513007,5130.07
513104,5131.04
513201,5132.01
513296,5132.96
513395,5133.95
513493,5134.93
513589,5135.89
513684,5136.84
513779,5137.79
513873,5138.73
513968,5139.68
514065,5140.65
514163,5141.63
514267,5142.67
514371,5143.71
514473,5144.73
514575,5145.75
514679,5146.79
514782,5147.82
514883,5148.83
514985,5149.85
515084,5150.84
515182,5151.82
515282,5152.82
515387,5153.87
515490,5154.9
515590,5155.9
515692,5156.92
515794,5157.94
515893,5158.93
515993,5159.93
516095,5160.95
516196,5161.96
516301,5163.01
516410,5164.1
516514,5165.14
516620,5166.2
516725,5167.25
516826,5168.26
516924,5169.24
517021,5170.21
517115,5171.15
517215,5172.15
517316,5173.16
517417,5174.17
517521,5175.21
517626,5176.26
517731,5177.31
517838,5178.38
517943,5179.43
518048,5180.48
518153,5181.53
518250,5182.5
518344,5183.44
518440,5184.4
518535,5185.35
518630,5186.3
518722,5187.22
518816,5188.16
518910,5189.1
519003,5190.03
519094,5190.94
519190,5191.9
519284,5192.84
519381,5193.81
519472,5194.72
519564,5195.64
519658,5196.58
519753,5197.53
519848,5198.48
519943,5199.43
520040,5200.4
520138,5201.38
520237,5202.37
520335,5203.35
520434,5204.34
520535,5205.35
520633,5206.33
520733,5207.33
520833,5208.33
520932,5209.32
521029,5210.29
521128,5211.28
521229,5212.29
521332,5213.32
521433,5214.33
521537,5215.37
521640,5216.4
521741,5217.41
521840,5218.4
521939,5219.39
522033,5220.33
522126,5221.26
522215,5222.15
522304,5223.04
522395,5223.95
522486,5224.86
522580,5225.8
522678,5226.78
522779,5227.79
522879,5228.79
522982,5229.82
523085,5230.85
523187,5231.87
523286,5232.86
523385,5233.85
523479,5234.79
523574,5235.74
523670,5236.7
523764,5237.64
523859,5238.59
523956,5239.56
524053,5240.53
524148,5241.48
524243,5242.43
524341,5243.41
524441,5244.41
524539,5245.39
524637,5246.37
524740,5247.4
524844,5248.44
524945,5249.45
525050,5250.5
525151,5251.51
525251,5252.51
525354,5253.54
525455,5254.55
525556,5255.56
525656,5256.56
525758,5257.58
525860,5258.6
525963,5259.63
526066,5260.66
526168,5261.68
526271,5262.71
526374,5263.74
526474,5264.74
526573,5265.73
526675,5266.75
526777,5267.77
526878,5268.78
526982,5269.82
527086,5270.86
527188,5271.88
527293,5272.93
527398,5273.98
527496,5274.96
527594,5275.94
527687,5276.87
527778,5277.78
527868,5278.68
527957,5279.57
528045,5280.45
528132,5281.32
528218,5282.18
528306,5283.06
528396,5283.96
528488,5284.88
528582,5285.82
528679,5286.79
528776,5287.76
528873,5288.73
528972,5289.72
529072,5290.72
529168,5291.68
529264,5292.64
529360,5293.6
529457,5294.57
529552,5295.52
529644,5296.44
529738,5297.38
529833,5298.33
529928,5299.28
530022,5300.22
530117,5301.17
530214,5302.14
530310,5303.1
530407,5304.07
530506,5305.06
530605,5306.05
530703,5307.03
530802,5308.02
530901,5309.01
531003,5310.03
531106,5311.06
531209,5312.09
531314,5313.14
531417,5314.17
531518,5315.18
531619,5316.19
531721,5317.21
531822,5318.22
531925,5319.25
532027,5320.27
532128,5321.28
532230,5322.3
532333,5323.33
532430,5324.3
532528,5325.28
532627,5326.27
532727,5327.27
532823,5328.23
532919,5329.19
533018,5330.18
533118,5331.18
533216,5332.16
533314,5333.14
533414,5334.14
533513,5335.13
533611,5336.11
533711,5337.11
533811,5338.11
533909,5339.09
534007,5340.07
534108,5341.08
534208,5342.08
534308,5343.08
534410,5344.1
534513,5345.13
534617,5346.17
534718,5347.18
534819,5348.19
534920,5349.2
535020,5350.2
535119,5351.19
535219,5352.19
535319,5353.19
535418,5354.18
535517,5355.17
535617,5356.17
535718,5357.18
535819,5358.19
535921,5359.21
536022,5360.22
536123,5361.23
536222,5362.22
536323,5363.23
536425,5364.25
536528,5365.28
536629,5366.29
536731,5367.31
536834,5368.34
536935,5369.35
537038,5370.38
537142,5371.42
537242,5372.42
537343,5373.43
537448,5374.48
537552,5375.52
537654,5376.54
537751,5377.51
537845,5378.45
537936,5379.36
538027,5380.27
538119,5381.19
538213,5382.13
538312,5383.12
538414,5384.14
538516,5385.16
538619,5386.19
538724,5387.24
538827,5388.27
538931,5389.31
539036,5390.36
539139,5391.39
539235,5392.35
539332,5393.32
539427,5394.27
539522,5395.22
539614,5396.14
539707,5397.07
539803,5398.03
539898,5398.98
539993,5399.93
540087,5400.87
540182,5401.82
540280,5402.8
540376,5403.76
540473,5404.73
540570,5405.7
540670,5406.7
540770,5407.7
540869,5408.69
540970,5409.7
541072,5410.72
541171,5411.71
541269,5412.69
541369,5413.69
541465,5414.65
541562,5415.62
541661,5416.61
541758,5417.58
541857,5418.57
541957,5419.57
542060,5420.6
542162,5421.62
542264,5422.64
542367,5423.67
542471,5424.71
542571,5425.71
542671,5426.71
542770,5427.7
542865,5428.65
542960,5429.6
543057,5430.57
543154,5431.54
543251,5432.51
543349,5433.49
543441,5434.41
543532,5435.32
543624,5436.24
543714,5437.14
543806,5438.06
543898,5438.98
543992,5439.92
544088,5440.88
544186,5441.86
544285,5442.85
544386,5443.86
544489,5444.89
544590,5445.9
544693,5446.93
544794,5447.94
544893,5448.93
544990,5449.9
545088,5450.88
545187,5451.87
545285,5452.85
545380,5453.8
545476,5454.76
545573,5455.73
545668,5456.68
545764,5457.64
545859,5458.59
545953,5459.53
546049,5460.49
546146,5461.46
546242,5462.42
546338,5463.38
546438,5464.38
546538,5465.38
546638,5466.38
546738,5467.38
546841,5468.41
546944,5469.44
547048,5470.48
547153,5471.53
547257,5472.57
547361,5473.61
547467,5474.67
547572,5475.72
547675,5476.75
547776,5477.76
547874,5478.74
547972,5479.72
548070,5480.7
548166,5481.66
548263,5482.63
548360,5483.6
548455,5484.55
548551,5485.51
548648,5486.48
548742,5487.42
548835,5488.35
548929,5489.29
549022,5490.22
549118,5491.18
549214,5492.14
549310,5493.1
549408,5494.08
549507,5495.07
549604,5496.04
549703,5497.03
549801,5498.01
549898,5498.98
549993,5499.93
550089,5500.89
550184,5501.84
550277,5502.77
550369,5503.69
550461,5504.61
550555,5505.55
550648,5506.48
550739,5507.39
550832,5508.32
550925,5509.25
551019,5510.19
551114,5511.14
551212,5512.12
551312,5513.12
551410,5514.1
551509,5515.09
551609,5516.09
551710,5517.1
551809,5518.09
551910,5519.1
552011,5520.11
552111,5521.11
552210,5522.1
552309,5523.09
552406,5524.06
552501,5525.01
552597,5525.97
552695,5526.95
552796,5527.96
552902,5529.02
553010,5530.1
553122,5531.22
553237,5532.37
553350,5533.5
553463,5534.63
553575,5535.75
553688,5536.88
553803,5538.03
553916,5539.16
554029,5540.29
554143,5541.43
554258,5542.58
554369,5543.69
554479,5544.79
554590,5545.9
554703,5547.03
554820,5548.2
554938,5549.38
555055,5550.55
555174,5551.74
555293,5552.93
555411,5554.11
555530,5555.3
555649,5556.49
555764,5557.64
555881,5558.81
555995,5559.95
556107,5561.07
556217,5562.17
556328,5563.28
556441,5564.41
556552,5565.52
556665,5566.65
556780,5567.8
556895,5568.95
557011,5570.11
557129,5571.29
557249,5572.49
557368,5573.68
557488,5574.88
557607,5576.07
557722,5577.22
557836,5578.36
557948,5579.48
558058,5580.58
558169,5581.69
558269,5582.69
558370,5583.7
558476,5584.76
558584,5585.84
558692,5586.92
558789,5587.89
558884,5588.84
558979,5589.79
559071,5590.71
559162,5591.62
559254,5592.54
559343,5593.43
559432,5594.32
559518,5595.18
559602,5596.02
559687,5596.87
559772,5597.72
559857,5598.57
559941,5599.41
560027,5600.27
560113,5601.13
560199,5601.99
560284,5602.84
560371,5603.71
560459,5604.59
560547,5605.47
560633,5606.33
560719,5607.19
560807,5608.07
560895,5608.95
560983,5609.83
561070,5610.7
561157,5611.57
561244,5612.44
561332,5613.32
561420,5614.2
561509,5615.09
561598,5615.98
561687,5616.87
561780,5617.8
561874,5618.74
561968,5619.68
562063,5620.63
562160,5621.6
562255,5622.55
562350,5623.5
562446,5624.46
562540,5625.4
562633,5626.33
562727,5627.27
562823,5628.23
562918,5629.18
563012,5630.12
563108,5631.08
563202,5632.02
563293,5632.93
563383,5633.83
563472,5634.72
563558,5635.58
563645,5636.45
563730,5637.3
563816,5638.16
563902,5639.02
563991,5639.91
564079,5640.79
564169,5641.69
564261,5642.61
564354,5643.54
564448,5644.48
564542,5645.42
564638,5646.38
564735,5647.35
564831,5648.31
564927,5649.27
565022,5650.22
565112,5651.12
565203,5652.03
565293,5652.93
565384,5653.84
565472,5654.72
565558,5655.58
565645,5656.45
565735,5657.35
565824,5658.24
565914,5659.14
566005,5660.05
566099,5660.99
566194,5661.94
566287,5662.87
566381,5663.81
566478,5664.78
566574,5665.74
566670,5666.7
566768,5667.68
566866,5668.66
566965,5669.65
567068,5670.68
567171,5671.71
567273,5672.73
567378,5673.78
567484,5674.84
567588,5675.88
567693,5676.93
567800,5678.0
567905,5679.05
568011,5680.11
568124,5681.24
568236,5682.36
568348,5683.48
568460,5684.6
568572,5685.72
568680,5686.8
568789,5687.89
568900,5689.0
569011,5690.11
569119,5691.19
569226,5692.26
569334,5693.34
569439,5694.39
569541,5695.41
569644,5696.44
569745,5697.45
569845,5698.45
569946,5699.46
570045,5700.45
570145,5701.45
570246,5702.46
570348,5703.48
570447,5704.47
570547,5705.47
570646,5706.46
570740,5707.4
570832,5708.32
570926,5709.26
571015,5710.15
571103,5711.03
571192,5711.92
571280,5712.8
571368,5713.68
571457,5714.57
571544,5715.44
571631,5716.31
571720,5717.2
571809,5718.09
571899,5718.99
571991,5719.91
572084,5720.84
572175,5721.75
572269,5722.69
572363,5723.63
572456,5724.56
572549,5725.49
572641,5726.41
572732,5727.32
572823,5728.23
572913,5729.13
573007,5730.07
573101,5731.01
573196,5731.96
573293,5732.93
573393,5733.93
573491,5734.91
573591,5735.91
573692,5736.92
573794,5737.94
573894,5738.94
573996,5739.96
574098,5740.98
574207,5742.07
574316,5743.16
574420,5744.2
574525,5745.25
574631,5746.31
574735,5747.35
574842,5748.42
574948,5749.48
575051,5750.51
575154,5751.54
575255,5752.55
575350,5753.5
575445,5754.45
575536,5755.36
575628,5756.28
575718,5757.18
575807,5758.07
575897,5758.97
575989,5759.89
576079,5760.79
576170,5761.7
576264,5762.64
576358,5763.58
576451,5764.51
576548,5765.48
576646,5766.46
576743,5767.43
576839,5768.39
576936,5769.36
577034,5770.34
577132,5771.32
577229,5772.29
577327,5773.27
577422,5774.22
577519,5775.19
577613,5776.13
577706,5777.06
577798,5777.98
577892,5778.92
577986,5779.86
578079,5780.79
578175,5781.75
578274,5782.74
578368,5783.68
578466,5784.66
578564,5785.64
578664,5786.64
578760,5787.6
578859,5788.59
578957,5789.57
579059,5790.59
579161,5791.61
579263,5792.63
579367,5793.67
579468,5794.68
579569,5795.69
579671,5796.71
579768,5797.68
579859,5798.59
579953,5799.53
580043,5800.43
580137,5801.37
580235,5802.35
580332,5803.32
580429,5804.29
580527,5805.27
580627,5806.27
580727,5807.27
580828,5808.28
580931,5809.31
581035,5810.35
581137,5811.37
581241,5812.41
581339,5813.39
581434,5814.34
581529,5815.29
581626,5816.26
581722,5817.22
581816,5818.16
581914,5819.14
582015,5820.15
582111,5821.11
582208,5822.08
582311,5823.11
582410,5824.1
582511,5825.11
582623,5826.23
582734,5827.34
582846,5828.46
582959,5829.59
583073,5830.73
583193,5831.93
583315,5833.15
583433,5834.33
583554,5835.54
583674,5836.74
583791,5837.91
583910,5839.1
584027,5840.27
584139,5841.39
584254,5842.54
584371,5843.71
584484,5844.84
584603,5846.03
584725,5847.25
584846,5848.46
584974,5849.74
585101,5851.01
585225,5852.25
585347,5853.47
585473,5854.73
585594,5855.94
585715,5857.15
585831,5858.31
585943,5859.43
586058,5860.58
586175,5861.75
586286,5862.86
586403,5864.03
586513,5865.13
586619,5866.19
586727,5867.27
586832,5868.32
586934,5869.34
587036,5870.36
587136,5871.36
587232,5872.32
587331,5873.31
587427,5874.27
587522,5875.22
587616,5876.16
587709,5877.09
587801,5878.01
587891,5878.91
587979,5879.79
588070,5880.7
588156,5881.56
588247,5882.47
588342,5883.42
588432,5884.32
588523,5885.23
588616,5886.16
588711,5887.11
588807,5888.07
588904,5889.04
589002,5890.02
589100,5891.0
589199,5891.99
589297,5892.97
589396,5893.96
589494,5894.94
589593,5895.93
589694,5896.94
589791,5897.91
589883,5898.83
589975,5899.75
590062,5900.62
590151,5901.51
590232,5902.32
590314,5903.14
590396,5903.96
590479,5904.79
590563,5905.63
590648,5906.48
590734,5907.34
590825,5908.25
590916,5909.16
591006,5910.06
591097,5910.97
591189,5911.89
591282,5912.82
591374,5913.74
591462,5914.62
591548,5915.48
591635,5916.35
591721,5917.21
591807,5918.07
591894,5918.94
591980,5919.8
592064,5920.64
592151,5921.51
592240,5922.4
592330,5923.3
592423,5924.23
592519,5925.19
592615,5926.15
592713,5927.13
592813,5928.13
592917,5929.17
593022,5930.22
593128,5931.28
593238,5932.38
593344,5933.44
593447,5934.47
593552,5935.52
593655,5936.55
593756,5937.56
593857,5938.57
593960,5939.6
594058,5940.58
594154,5941.54
594249,5942.49
594339,5943.39
594430,5944.3
594522,5945.22
594611,5946.11
594704,5947.04
594794,5947.94
594883,5948.83
594974,5949.74
595066,5950.66
595162,5951.62
595256,5952.56
595347,5953.47
595440,5954.4
595533,5955.33
595626,5956.26
595718,5957.18
595811,5958.11
595902,5959.02
595991,5959.91
596080,5960.8
596170,5961.7
596261,5962.61
596349,5963.49
596437,5964.37
596525,5965.25
596612,5966.12
596697,5966.97
596783,5967.83
596867,5968.67
596952,5969.52
597029,5970.29
597106,5971.06
597205,5972.05
597289,5972.89
597375,5973.75
597463,5974.63
597556,5975.56
597647,5976.47
597741,5977.41
597838,5978.38
597938,5979.38
598035,5980.35
598133,5981.33
598231,5982.31
598328,5983.28
598425,5984.25
598519,5985.19
598611,5986.11
598703,5987.03
598795,5987.95
598887,5988.87
598978,5989.78
599071,5990.71
599169,5991.69
599267,5992.67
599374,5993.74
599481,5994.81
599589,5995.89
599698,5996.98
599807,5998.07
599914,5999.14
600024,6000.24
600137,6001.37
600256,6002.56
600376,6003.76
600503,6005.03
600628,6006.28
600755,6007.55
600883,6008.83
601006,6010.06
601131,6011.31
601251,6012.51
601371,6013.71
601490,6014.9
601604,6016.04
601719,6017.19
601834,6018.34
601948,6019.48
602064,6020.64
602181,6021.81
602296,6022.96
602413,6024.13
602531,6025.31
602645,6026.45
602760,6027.6
602872,6028.72
602981,6029.81
603091,6030.91
603198,6031.98
603302,6033.02
603407,6034.07
603510,6035.1
603608,6036.08
603706,6037.06
603800,6038.0
603889,6038.89
603976,6039.76
604062,6040.62
604147,6041.47
604233,6042.33
604317,6043.17
604403,6044.03
604490,6044.9
604579,6045.79
604666,6046.66
604755,6047.55
604845,6048.45
604935,6049.35
605023,6050.23
605110,6051.1
605199,6051.99
605288,6052.88
605377,6053.77
605465,6054.65
605552,6055.52
605639,6056.39
605726,6057.26
605815,6058.15
605904,6059.04
605996,6059.96
606090,6060.9
606182,6061.82
606275,6062.75
606370,6063.7
606466,6064.66
606559,6065.59
606652,6066.52
606743,6067.43
606832,6068.32
606922,6069.22
607010,6070.1
607098,6070.98
607186,6071.86
607277,6072.77
607368,6073.68
607460,6074.6
607554,6075.54
607648,6076.48
607742,6077.42
607837,6078.37
607933,6079.33
608028,6080.28
608123,6081.23
608218,6082.18
608313,6083.13
608406,6084.06
608495,6084.95
608584,6085.84
608672,6086.72
608759,6087.59
608845,6088.45
608936,6089.36
609030,6090.3
609126,6091.26
609223,6092.23
609320,6093.2
609420,6094.2
609521,6095.21
609621,6096.21
609723,6097.23
609828,6098.28
609934,6099.34
610041,6100.41
610147,6101.47
610254,6102.54
610359,6103.59
610465,6104.65
610571,6105.71
610679,6106.79
610786,6107.86
610895,6108.95
611002,6110.02
611111,6111.11
611221,6112.21
611327,6113.27
611433,6114.33
611540,6115.4
611645,6116.45
611749,6117.49
611855,6118.55
611962,6119.62
612071,6120.71
612180,6121.8
612291,6122.91
612401,6124.01
612510,6125.1
612621,6126.21
612731,6127.31
612843,6128.43
612953,6129.53
613061,6130.61
613168,6131.68
613276,6132.76
613382,6133.82
613488,6134.88
613596,6135.96
613704,6137.04
613814,6138.14
613921,6139.21
614026,6140.26
614133,6141.33
614239,6142.39
614342,6143.42
614446,6144.46
614546,6145.46
614642,6146.42
614739,6147.39
614829,6148.29
614916,6149.16
615001,6150.01
615084,6150.84
615168,6151.68
615251,6152.51
615333,6153.33
615418,6154.18
615505,6155.05
615590,6155.9
615676,6156.76
615763,6157.63
615851,6158.51
615941,6159.41
616031,6160.31
616119,6161.19
616208,6162.08
616297,6162.97
616387,6163.87
616477,6164.77
616567,6165.67
616657,6166.57
616745,6167.45
616835,6168.35
616925,6169.25
617018,6170.18
617109,6171.09
617199,6171.99
617288,6172.88
617379,6173.79
617467,6174.67
617556,6175.56
617647,6176.47
617741,6177.41
617834,6178.34
617927,6179.27
618022,6180.22
618117,6181.17
618213,6182.13
618306,6183.06
618400,6184.0
618495,6184.95
618590,6185.9
618683,6186.83
618778,6187.78
618874,6188.74
618967,6189.67
619060,6190.6
619153,6191.53
619245,6192.45
619340,6193.4
619436,6194.36
619526,6195.26
619617,6196.17
619706,6197.06
619794,6197.94
619882,6198.82
619972,6199.72
620063,6200.63
620156,6201.56
620253,6202.53
620350,6203.5
620446,6204.46
620544,6205.44
620644,6206.44
620740,6207.4
620837,6208.37
620934,6209.34
621031,6210.31
621126,6211.26
621218,6212.18
621308,6213.08
621400,6214.0
621493,6214.93
621586,6215.86
621678,6216.78
621771,6217.71
621866,6218.66
621960,6219.6
622054,6220.54
622153,6221.53
622250,6222.5
622351,6223.51
622449,6224.49
622545,6225.45
622638,6226.38
622734,6227.34
622830,6228.3
622925,6229.25
623023,6230.23
623119,6231.19
623218,6232.18
623317,6233.17
623415,6234.15
623512,6235.12
623611,6236.11
623706,6237.06
623802,6238.02
623898,6238.98
623993,6239.93
624085,6240.85
624182,6241.82
624277,6242.77
624370,6243.7
624466,6244.66
624564,6245.64
624662,6246.62
624761,6247.61
624863,6248.63
624966,6249.66
625073,6250.73
625177,6251.77
625280,6252.8
625388,6253.88
625491,6254.91
625595,6255.95
625700,6257.0
625799,6257.99
625895,6258.95
625991,6259.91
626082,6260.82
626173,6261.73
626262,6262.62
626352,6263.52
626443,6264.43
626532,6265.32
626626,6266.26
626719,6267.19
626810,6268.1
626903,6269.03
626998,6269.98
627094,6270.94
627188,6271.88
627283,6272.83
627379,6273.79
627475,6274.75
627569,6275.69
627663,6276.63
627757,6277.57
627853,6278.53
627947,6279.47
628040,6280.4
628134,6281.34
628229,6282.29
628319,6283.19
628411,6284.11
628504,6285.04
628605,6286.05
628705,6287.05
628808,6288.08
628915,6289.15
629021,6290.21
629125,6291.25
629229,6292.29
629332,6293.32
629432,6294.32
629531,6295.31
629631,6296.31
629731,6297.31
629828,6298.28
629928,6299.28
630027,6300.27
630123,6301.23
630221,6302.21
630321,6303.21
630421,6304.21
630520,6305.2
630623,6306.23
630726,6307.26
630827,6308.27
630924,6309.24
631020,6310.2
631111,6311.11
631201,6312.01
631289,6312.89
631381,6313.81
631470,6314.7
631563,6315.63
631663,6316.63
631764,6317.64
631863,6318.63
631962,6319.62
632065,6320.65
632169,6321.69
632269,6322.69
632372,6323.72
632474,6324.74
632573,6325.73
632670,6326.7
632768,6327.68
632868,6328.68
632963,6329.63
633056,6330.56
633149,6331.49
633245,6332.45
633341,6333.41
633436,6334.36
633533,6335.33
633628,6336.28
633723,6337.23
633818,6338.18
633915,6339.15
634011,6340.11
634105,6341.05
634201,6342.01
634297,6342.97
634390,6343.9
634488,6344.88
634585,6345.85
634680,6346.8
634776,6347.76
634874,6348.74
634970,6349.7
635068,6350.68
635168,6351.68
635269,6352.69
635367,6353.67
635464,6354.64
635562,6355.62
635655,6356.55
635746,6357.46
635836,6358.36
635922,6359.22
636008,6360.08
636095,6360.95
636185,6361.85
636277,6362.77
636377,6363.77
636482,6364.82
636592,6365.92
636699,6366.99
636807,6368.07
636917,6369.17
637028,6370.28
637134,6371.34
637235,6372.35
637335,6373.35
637434,6374.34
637531,6375.31
637625,6376.25
637720,6377.2
637817,6378.17
637913,6379.13
638011,6380.11
638112,6381.12
638212,6382.12
638312,6383.12
638413,6384.13
638518,6385.18
638622,6386.22
638725,6387.25
638830,6388.3
638933,6389.33
639035,6390.35
639142,6391.42
639248,6392.48
639354,6393.54
639462,6394.62
639564,6395.64
639665,6396.65
639768,6397.68
639867,6398.67
639965,6399.65
640064,6400.64
640164,6401.64
640261,6402.61
640359,6403.59
640458,6404.58
640555,6405.55
640649,6406.49
640746,6407.46
640842,6408.42
640935,6409.35
641032,6410.32
641131,6411.31
641230,6412.3
641328,6413.28
641430,6414.3
641529,6415.29
641625,6416.25
641722,6417.22
641820,6418.2
641921,6419.21
642021,6420.21
642124,6421.24
642229,6422.29
642332,6423.32
642433,6424.33
642536,6425.36
642635,6426.35
642739,6427.39
642843,6428.43
642945,6429.45
643049,6430.49
643155,6431.55
643258,6432.58
643366,6433.66
643468,6434.68
643566,6435.66
643661,6436.61
643752,6437.52
643842,6438.42
643932,6439.32
644022,6440.22
644116,6441.16
644208,6442.08
644305,6443.05
644405,6444.05
644505,6445.05
644604,6446.04
644707,6447.07
644809,6448.09
644909,6449.09
645006,6450.06
645104,6451.04
645201,6452.01
645295,6452.95
645388,6453.88
645480,6454.8
645573,6455.73
645668,6456.68
645761,6457.61
645856,6458.56
645955,6459.55
646057,6460.57
646158,6461.58
646258,6462.58
646360,6463.6
646463,6464.63
646564,6465.64
646662,6466.62
646762,6467.62
646862,6468.62
646963,6469.63
647069,6470.69
647172,6471.72
647279,6472.79
647386,6473.86
647487,6474.87
647585,6475.85
647678,6476.78
647772,6477.72
647861,6478.61
647951,6479.51
648042,6480.42
648136,6481.36
648230,6482.3
648329,6483.29
648430,6484.3
648529,6485.29
648628,6486.28
648729,6487.29
648829,6488.29
648926,6489.26
649025,6490.25
649124,6491.24
649220,6492.2
649315,6493.15
649413,6494.13
649510,6495.1
649605,6496.05
649700,6497.0
649796,6497.96
649893,6498.93
649987,6499.87
650083,6500.83
650180,6501.8
650280,6502.8
650379,6503.79
650480,6504.8
650583,6505.83
650683,6506.83
650782,6507.82
650886,6508.86
650986,6509.86
651084,6510.84
651185,6511.85
651290,6512.9
651390,6513.9
651488,6514.88
651586,6515.86
651681,6516.81
651778,6517.78
651874,6518.74
651969,6519.69
652064,6520.64
652161,6521.61
652257,6522.57
652351,6523.51
652447,6524.47
652544,6525.44
652642,6526.42
652736,6527.36
652831,6528.31
652926,6529.26
653023,6530.23
653118,6531.18
653214,6532.14
653311,6533.11
653409,6534.09
653507,6535.07
653602,6536.02
653701,6537.01
653804,6538.04
653906,6539.06
654004,6540.04
654102,6541.02
654203,6542.03
654304,6543.04
654402,6544.02
654500,6545.0
654601,6546.01
654701,6547.01
654799,6547.99
654902,6549.02
655005,6550.05
655106,6551.06
655205,6552.05
655308,6553.08
655411,6554.11
655510,6555.1
655610,6556.1
655709,6557.09
655804,6558.04
655896,6558.96
655987,6559.87
656076,6560.76
656165,6561.65
656252,6562.52
656339,6563.39
656426,6564.26
656511,6565.11
656597,6565.97
656684,6566.84
656772,6567.72
656858,6568.58
656947,6569.47
657037,6570.37
657127,6571.27
657218,6572.18
657312,6573.12
657405,6574.05
657500,6575.0
657593,6575.93
657686,6576.86
657779,6577.79
657872,6578.72
657966,6579.66
658060,6580.6
658154,6581.54
658248,6582.48
658340,6583.4
658429,6584.29
658519,6585.19
658609,6586.09
658700,6587.0
658795,6587.95
658893,6588.93
658990,6589.9
659089,6590.89
659190,6591.9
659290,6592.9
659387,6593.87
659484,6594.84
659580,6595.8
659672,6596.72
659765,6597.65
659861,6598.61
659956,6599.56
660051,6600.51
660146,6601.46
660246,6602.46
660346,6603.46
660445,6604.45
660543,6605.43
660644,6606.44
660743,6607.43
660844,6608.44
660944,6609.44
661042,6610.42
661143,6611.43
661247,6612.47
661346,6613.46
661447,6614.47
661540,6615.4
661634,6616.34
661727,6617.27
661817,6618.17
661910,6619.1
662003,6620.03
662098,6620.98
662194,6621.94
662292,6622.92
662387,6623.87
662482,6624.82
662580,6625.8
662678,6626.78
662774,6627.74
662871,6628.71
662969,6629.69
663068,6630.68
663164,6631.64
663261,6632.61
663360,6633.6
663460,6634.6
663561,6635.61
663658,6636.58
663755,6637.55
663853,6638.53
663951,6639.51
664047,6640.47
664140,6641.4
664234,6642.34
664329,6643.29
664425,6644.25
664520,6645.2
664616,6646.16
664715,6647.15
664815,6648.15
664914,6649.14
665015,6650.15
665118,6651.18
665219,6652.19
665319,6653.19
665421,6654.21
665523,6655.23
665623,6656.23
665725,6657.25
665828,6658.28
665928,6659.28
666028,6660.28
666128,6661.28
666228,6662.28
666329,6663.29
666431,6664.31
666531,6665.31
666634,6666.34
666738,6667.38
666840,6668.4
666943,6669.43
667045,6670.45
667140,6671.4
667232,6672.32
667321,6673.21
667409,6674.09
667497,6674.97
667584,6675.84
667672,6676.72
667761,6677.61
667852,6678.52
667950,6679.5
668048,6680.48
668147,6681.47
668247,6682.47
668349,6683.49
668447,6684.47
668545,6685.45
668644,6686.44
668743,6687.43
668838,6688.38
668935,6689.35
669031,6690.31
669125,6691.25
669217,6692.17
669309,6693.09
669398,6693.98
669487,6694.87
669572,6695.72
669658,6696.58
669745,6697.45
669832,6698.32
669920,6699.2
670009,6700.09
670099,6700.99
670190,6701.9
670284,6702.84
670379,6703.79
670477,6704.77
670574,6705.74
670673,6706.73
670772,6707.72
670871,6708.71
670970,6709.7
671067,6710.67
671163,6711.63
671261,6712.61
671358,6713.58
671454,6714.54
671553,6715.53
671653,6716.53
671752,6717.52
671851,6718.51
671952,6719.52
672055,6720.55
672155,6721.55
672257,6722.57
672361,6723.61
672462,6724.62
672564,6725.64
672667,6726.67
672767,6727.67
672866,6728.66
672966,6729.66
673062,6730.62
673158,6731.58
673256,6732.56
673357,6733.57
673457,6734.57
673558,6735.58
673659,6736.59
673761,6737.61
673860,6738.6
673959,6739.59
674062,6740.62
674163,6741.63
674259,6742.59
674357,6743.57
674454,6744.54
674548,6745.48
674648,6746.48
674747,6747.47
674842,6748.42
674941,6749.41
675045,6750.45
675142,6751.42
675237,6752.37
675329,6753.29
675420,6754.2
675510,6755.1
675600,6756.0
675693,6756.93
675783,6757.83
675877,6758.77
675970,6759.7
676065,6760.65
676161,6761.61
676257,6762.57
676351,6763.51
676448,6764.48
676545,6765.45
676642,6766.42
676735,6767.35
676831,6768.31
676924,6769.24
677017,6770.17
677109,6771.09
677202,6772.02
677295,6772.95
677388,6773.88
677482,6774.82
677576,6775.76
677670,6776.7
677767,6777.67
677865,6778.65
677964,6779.64
678061,6780.61
678160,6781.6
678260,6782.6
678358,6783.58
678458,6784.58
678560,6785.6
678663,6786.63
678761,6787.61
678860,6788.6
678957,6789.57
679051,6790.51
679143,6791.43
679237,6792.37
679331,6793.31
679426,6794.26
679524,6795.24
679625,6796.25
679728,6797.28
679830,6798.3
679935,6799.35
680040,6800.4
680141,6801.41
680238,6802.38
680336,6803.36
680432,6804.32
680526,6805.26
680619,6806.19
680717,6807.17
680813,6808.13
680907,6809.07
681001,6810.01
681098,6810.98
681193,6811.93
681289,6812.89
681387,6813.87
681484,6814.84
681580,6815.8
681677,6816.77
681774,6817.74
681869,6818.69
681965,6819.65
682063,6820.63
682160,6821.6
682256,6822.56
682355,6823.55
682455,6824.55
682553,6825.53
682653,6826.53
682754,6827.54
682853,6828.53
682952,6829.52
683052,6830.52
683152,6831.52
683251,6832.51
683351,6833.51
683451,6834.51
683548,6835.48
683645,6836.45
683743,6837.43
683840,6838.4
683936,6839.36
684034,6840.34
684131,6841.31
684229,6842.29
684328,6843.28
684428,6844.28
684527,6845.27
684627,6846.27
684727,6847.27
684825,6848.25
684922,6849.22
685017,6850.17
685109,6851.09
685202,6852.02
685291,6852.91
685380,6853.8
685470,6854.7
685561,6855.61
685653,6856.53
685745,6857.45
685842,6858.42
685939,6859.39
686035,6860.35
686129,6861.29
686225,6862.25
686321,6863.21
686415,6864.15
686506,6865.06
686598,6865.98
686691,6866.91
686782,6867.82
686872,6868.72
686965,6869.65
687059,6870.59
687152,6871.52
687244,6872.44
687339,6873.39
687436,6874.36
687534,6875.34
687632,6876.32
687732,6877.32
687831,6878.31
687928,6879.28
688024,6880.24
688121,6881.21
688223,6882.23
688325,6883.25
688425,6884.25
688526,6885.26
688627,6886.27
688727,6887.27
688826,6888.26
688926,6889.26
689024,6890.24
689120,6891.2
689217,6892.17
689311,6893.11
689400,6894.0
689490,6894.9
689584,6895.84
689676,6896.76
689770,6897.7
689868,6898.68
689965,6899.65
690060,6900.6
690155,6901.55
690252,6902.52
690348,6903.48
690443,6904.43
690539,6905.39
690635,6906.35
690729,6907.29
690823,6908.23
690920,6909.2
691014,6910.14
691108,6911.08
691207,6912.07
691302,6913.02
691395,6913.95
691489,6914.89
691585,6915.85
691683,6916.83
691780,6917.8
691880,6918.8
691981,6919.81
692079,6920.79
692175,6921.75
692275,6922.75
692374,6923.74
692471,6924.71
692570,6925.7
692669,6926.69
692766,6927.66
692864,6928.64
692962,6929.62
693061,6930.61
693158,6931.58
693256,6932.56
693352,6933.52
693448,6934.48
693542,6935.42
693637,6936.37
693730,6937.3
693814,6938.14
693899,6938.99
694013,6940.13
694106,6941.06
694200,6942.0
694295,6942.95
694389,6943.89
694486,6944.86
694586,6945.86
694686,6946.86
694786,6947.86
694872,6948.72
694959,6949.59
695077,6950.77
695171,6951.71
695262,6952.62
695350,6953.5
695437,6954.37
695524,6955.24
695611,6956.11
695699,6956.99
695789,6957.89
695878,6958.78
695969,6959.69
696059,6960.59
696149,6961.49
696241,6962.41
696333,6963.33
696425,6964.25
696516,6965.16
696609,6966.09
696703,6967.03
696797,6967.97
696889,6968.89
696983,6969.83
697077,6970.77
697170,6971.7
697261,6972.61
697353,6973.53
697447,6974.47
697542,6975.42
697637,6976.37
697732,6977.32
697829,6978.29
697928,6979.28
698026,6980.26
698126,6981.26
698225,6982.25
698320,6983.2
698415,6984.15
698509,6985.09
698603,6986.03
698699,6986.99
698794,6987.94
698890,6988.9
698986,6989.86
699085,6990.85
699184,6991.84
699282,6992.82
699380,6993.8
699482,6994.82
699582,6995.82
699680,6996.8
699780,6997.8
699877,6998.77
699974,6999.74
700066,7000.66
700158,7001.58
700245,7002.45
700334,7003.34
700421,7004.21
700511,7005.11
700598,7005.98
700688,7006.88
700781,7007.81
700874,7008.74
700967,7009.67
701064,7010.64
701161,7011.61
701256,7012.56
701353,7013.53
701450,7014.5
701546,7015.46
701640,7016.4
701736,7017.36
701832,7018.32
701927,7019.27
702020,7020.2
702114,7021.14
702209,7022.09
702302,7023.02
702393,7023.93
702486,7024.86
702580,7025.8
702677,7026.77
702774,7027.74
702871,7028.71
702967,7029.67
703064,7030.64
703158,7031.58
703253,7032.53
703350,7033.5
703449,7034.49
703548,7035.48
703650,7036.5
703755,7037.55
703857,7038.57
703960,7039.6
704063,7040.63
704165,7041.65
704265,7042.65
704365,7043.65
704462,7044.62
704557,7045.57
704653,7046.53
704747,7047.47
704842,7048.42
704940,7049.4
705040,7050.4
705139,7051.39
705235,7052.35
705332,7053.32
705431,7054.31
705527,7055.27
705624,7056.24
705726,7057.26
705825,7058.25
705925,7059.25
706027,7060.27
706128,7061.28
706227,7062.27
706327,7063.27
706427,7064.27
706525,7065.25
706620,7066.2
706717,7067.17
706815,7068.15
706910,7069.1
707005,7070.05
707103,7071.03
707202,7072.02
707298,7072.98
707393,7073.93
707492,7074.92
707589,7075.89
707685,7076.85
707784,7077.84
707882,7078.82
707976,7079.76
708070,7080.7
708168,7081.68
708265,7082.65
708363,7083.63
708465,7084.65
708566,7085.66
708665,7086.65
708765,7087.65
708866,7088.66
708966,7089.66
709062,7090.62
709160,7091.6
709256,7092.56
709351,7093.51
709446,7094.46
709544,7095.44
709641,7096.41
709737,7097.37
709832,7098.32
709927,7099.27
710019,7100.19
710111,7101.11
710202,7102.02
710291,7102.91
710381,7103.81
710473,7104.73
710565,7105.65
710656,7106.56
710750,7107.5
710844,7108.44
710938,7109.38
711030,7110.3
711125,7111.25
711220,7112.2
711313,7113.13
711404,7114.04
711498,7114.98
711589,7115.89
711682,7116.82
711774,7117.74
711865,7118.65
711959,7119.59
712053,7120.53
712148,7121.48
712241,7122.41
712336,7123.36
712431,7124.31
712525,7125.25
712617,7126.17
712712,7127.12
712807,7128.07
712903,7129.03
712997,7129.97
713092,7130.92
713191,7131.91
713289,7132.89
713386,7133.86
713481,7134.81
713578,7135.78
713676,7136.76
713774,7137.74
713871,7138.71
713971,7139.71
714072,7140.72
714171,7141.71
714272,7142.72
714374,7143.74
714471,7144.71
714572,7145.72
714670,7146.7
714766,7147.66
714861,7148.61
714959,7149.59
715054,7150.54
715150,7151.5
715249,7152.49
715349,7153.49
715444,7154.44
715541,7155.41
715638,7156.38
715733,7157.33
715832,7158.32
715931,7159.31
716028,7160.28
716127,7161.27
716227,7162.27
716325,7163.25
716421,7164.21
716517,7165.17
716611,7166.11
716704,7167.04
716800,7168.0
716896,7168.96
716989,7169.89
717082,7170.82
717176,7171.76
717270,7172.7
717362,7173.62
717454,7174.54
717548,7175.48
717640,7176.4
717732,7177.32
717824,7178.24
717917,7179.17
718009,7180.09
718100,7181.0
718192,7181.92
718288,7182.88
718382,7183.82
718475,7184.75
718572,7185.72
718669,7186.69
718764,7187.64
718859,7188.59
718955,7189.55
719051,7190.51
719145,7191.45
719239,7192.39
719333,7193.33
719428,7194.28
719523,7195.23
719620,7196.2
719717,7197.17
719813,7198.13
719909,7199.09
720005,7200.05
720102,7201.02
720197,7201.97
720293,7202.93
720389,7203.89
720486,7204.86
720582,7205.82
720676,7206.76
720772,7207.72
720869,7208.69
720967,7209.67
721065,7210.65
721164,7211.64
721264,7212.64
721363,7213.63
721460,7214.6
721558,7215.58
721655,7216.55
721749,7217.49
721839,7218.39
721931,7219.31
722025,7220.25
722116,7221.16
722208,7222.08
722301,7223.01
722396,7223.96
722491,7224.91
722585,7225.85
722679,7226.79
722775,7227.75
722869,7228.69
722961,7229.61
723054,7230.54
723148,7231.48
723242,7232.42
723334,7233.34
723425,7234.25
723517,7235.17
723609,7236.09
723701,7237.01
723796,7237.96
723892,7238.92
723989,7239.89
724085,7240.85
724180,7241.8
724279,7242.79
724379,7243.79
724475,7244.75
724571,7245.71
724669,7246.69
724768,7247.68
724865,7248.65
724963,7249.63
725062,7250.62
725157,7251.57
725253,7252.53
725349,7253.49
725442,7254.42
725534,7255.34
725628,7256.28
725722,7257.22
725813,7258.13
725904,7259.04
725998,7259.98
726091,7260.91
726182,7261.82
726273,7262.73
726366,7263.66
726458,7264.58
726549,7265.49
726643,7266.43
726738,7267.38
726831,7268.31
726924,7269.24
727020,7270.2
727117,7271.17
727211,7272.11
727306,7273.06
727404,7274.04
727502,7275.02
727597,7275.97
727688,7276.88
727778,7277.78
727866,7278.66
727953,7279.53
728039,7280.39
728125,7281.25
728211,7282.11
728298,7282.98
728385,7283.85
728472,7284.72
728559,7285.59
728647,7286.47
728736,7287.36
728824,7288.24
728913,7289.13
729005,7290.05
729094,7290.94
729184,7291.84
729276,7292.76
729368,7293.68
729457,7294.57
729547,7295.47
729639,7296.39
729732,7297.32
729823,7298.23
729916,7299.16
730010,7300.1
730100,7301.0
730191,7301.91
730284,7302.84
730379,7303.79
730474,7304.74
730572,7305.72
730674,7306.74
730776,7307.76
730879,7308.79
730984,7309.84
731087,7310.87
731191,7311.91
731294,7312.94
731394,7313.94
731495,7314.95
731595,7315.95
731694,7316.94
731792,7317.92
731893,7318.93
731994,7319.94
732093,7320.93
732194,7321.94
732295,7322.95
732392,7323.92
732489,7324.89
732587,7325.87
732686,7326.86
732785,7327.85
732886,7328.86
732986,7329.86
733084,7330.84
733181,7331.81
733273,7332.73
733365,7333.65
733454,7334.54
733544,7335.44
733633,7336.33
733721,7337.21
733811,7338.11
733902,7339.02
733991,7339.91
734082,7340.82
734175,7341.75
734267,7342.67
734358,7343.58
734453,7344.53
734549,7345.49
734643,7346.43
734738,7347.38
734833,7348.33
734930,7349.3
735026,7350.26
735121,7351.21
735216,7352.16
735312,7353.12
735408,7354.08
735504,7355.04
735601,7356.01
735697,7356.97
735794,7357.94
735891,7358.91
735988,7359.88
736083,7360.83
736179,7361.79
736276,7362.76
736374,7363.74
736471,7364.71
736570,7365.7
736669,7366.69
736767,7367.67
736866,7368.66
736965,7369.65
737064,7370.64
737161,7371.61
737258,7372.58
737355,7373.55
737449,7374.49
737543,7375.43
737641,7376.41
737740,7377.4
737836,7378.36
737932,7379.32
738033,7380.33
738132,7381.32
738229,7382.29
738326,7383.26
738423,7384.23
738522,7385.22
738622,7386.22
738725,7387.25
738829,7388.29
738930,7389.3
739032,7390.32
739134,7391.34
739234,7392.34
739333,7393.33
739430,7394.3
739525,7395.25
739621,7396.21
739713,7397.13
739803,7398.03
739895,7398.95
739988,7399.88
740079,7400.79
740174,7401.74
740269,7402.69
740362,7403.62
740457,7404.57
740554,7405.54
740651,7406.51
740746,7407.46
740844,7408.44
740942,7409.42
741037,7410.37
741133,7411.33
741231,7412.31
741327,7413.27
741424,7414.24
741523,7415.23
741620,7416.2
741717,7417.17
741816,7418.16
741912,7419.12
742004,7420.04
742096,7420.96
742185,7421.85
742276,7422.76
742366,7423.66
742456,7424.56
742547,7425.47
742640,7426.4
742731,7427.31
742825,7428.25
742921,7429.21
743015,7430.15
743111,7431.11
743207,7432.07
743303,7433.03
743399,7433.99
743494,7434.94
743591,7435.91
743687,7436.87
743782,7437.82
743876,7438.76
743971,7439.71
744066,7440.66
744162,7441.62
744260,7442.6
744356,7443.56
744451,7444.51
744548,7445.48
744644,7446.44
744739,7447.39
744833,7448.33
744927,7449.27
745022,7450.22
745117,7451.17
745212,7452.12
745309,7453.09
745408,7454.08
745505,7455.05
745604,7456.04
745704,7457.04
745801,7458.01
745899,7458.99
745998,7459.98
746097,7460.97
746194,7461.94
746292,7462.92
746390,7463.9
746486,7464.86
746583,7465.83
746680,7466.8
746777,7467.77
746874,7468.74
746973,7469.73
747073,7470.73
747171,7471.71
747273,7472.73
747372,7473.72
747467,7474.67
747560,7475.6
747649,7476.49
747738,7477.38
747825,7478.25
747913,7479.13
748000,7480.0
748087,7480.87
748172,7481.72
748258,7482.58
748342,7483.42
748429,7484.29
748516,7485.16
748602,7486.02
748688,7486.88
748775,7487.75
748862,7488.62
748949,7489.49
749036,7490.36
749124,7491.24
749213,7492.13
749302,7493.02
749392,7493.92
749482,7494.82
749575,7495.75
749668,7496.68
749759,7497.59
749852,7498.52
749943,7499.43
750035,7500.35
750130,7501.3
750226,7502.26
750324,7503.24
750421,7504.21
750521,7505.21
750621,7506.21
750722,7507.22
750822,7508.22
750924,7509.24
751026,7510.26
751126,7511.26
751227,7512.27
751328,7513.28
751426,7514.26
751525,7515.25
751626,7516.26
751728,7517.28
751827,7518.27
751927,7519.27
752027,7520.27
752124,7521.24
752221,7522.21
752323,7523.23
752425,7524.25
752524,7525.24
752623,7526.23
752724,7527.24
752821,7528.21
752917,7529.17
753015,7530.15
753109,7531.09
753203,7532.03
753299,7532.99
753392,7533.92
753485,7534.85
753578,7535.78
753674,7536.74
753770,7537.7
753865,7538.65
753962,7539.62
754058,7540.58
754153,7541.53
754248,7542.48
754346,7543.46
754443,7544.43
754539,7545.39
754633,7546.33
754728,7547.28
754824,7548.24
754922,7549.22
755017,7550.17
755113,7551.13
755210,7552.1
755308,7553.08
755403,7554.03
755498,7554.98
755594,7555.94
755689,7556.89
755785,7557.85
755882,7558.82
755979,7559.79
756076,7560.76
756175,7561.75
756274,7562.74
756371,7563.71
756470,7564.7
756570,7565.7
756665,7566.65
756761,7567.61
756858,7568.58
756954,7569.54
757051,7570.51
757151,7571.51
757253,7572.53
757353,7573.53
757455,7574.55
757558,7575.58
757658,7576.58
757757,7577.57
757855,7578.55
757952,7579.52
758047,7580.47
758139,7581.39
758232,7582.32
758324,7583.24
758415,7584.15
758509,7585.09
758604,7586.04
758700,7587.0
758795,7587.95
758893,7588.93
758992,7589.92
759090,7590.9
759188,7591.88
759287,7592.87
759385,7593.85
759481,7594.81
759577,7595.77
759675,7596.75
759771,7597.71
759865,7598.65
759961,7599.61
760058,7600.58
760154,7601.54
760248,7602.48
760343,7603.43
760438,7604.38
760535,7605.35
760630,7606.3
760726,7607.26
760824,7608.24
760920,7609.2
761016,7610.16
761113,7611.13
761210,7612.1
761304,7613.04
761398,7613.98
761494,7614.94
761590,7615.9
761686,7616.86
761785,7617.85
761888,7618.88
761989,7619.89
762088,7620.88
762189,7621.89
762289,7622.89
762387,7623.87
762485,7624.85
762585,7625.85
762682,7626.82
762780,7627.8
762880,7628.8
762979,7629.79
763078,7630.78
763179,7631.79
763279,7632.79
763378,7633.78
763479,7634.79
763582,7635.82
763681,7636.81
763782,7637.82
763884,7638.84
763981,7639.81
764078,7640.78
764175,7641.75
764272,7642.72
764369,7643.69
764466,7644.66
764563,7645.63
764659,7646.59
764755,7647.55
764851,7648.51
764948,7649.48
765043,7650.43
765135,7651.35
765231,7652.31
765326,7653.26
765422,7654.22
765516,7655.16
765610,7656.1
765708,7657.08
765806,7658.06
765902,7659.02
765998,7659.98
766096,7660.96
766192,7661.92
766286,7662.86
766385,7663.85
766484,7664.84
766582,7665.82
766680,7666.8
766779,7667.79
766880,7668.8
766979,7669.79
767076,7670.76
767175,7671.75
767272,7672.72
767368,7673.68
767465,7674.65
767560,7675.6
767655,7676.55
767748,7677.48
767841,7678.41
767938,7679.38
768033,7680.33
768126,7681.26
768219,7682.19
768314,7683.14
768406,7684.06
768498,7684.98
768592,7685.92
768686,7686.86
768779,7687.79
768871,7688.71
768967,7689.67
769059,7690.59
769151,7691.51
769245,7692.45
769342,7693.42
769438,7694.38
769533,7695.33
769629,7696.29
769728,7697.28
769824,7698.24
769918,7699.18
770015,7700.15
770109,7701.09
770200,7702.0
770294,7702.94
770389,7703.89
770485,7704.85
770581,7705.81
770679,7706.79
770778,7707.78
770878,7708.78
770977,7709.77
771079,7710.79
771180,7711.8
771276,7712.76
771373,7713.73
771467,7714.67
771558,7715.58
771650,7716.5
771744,7717.44
771836,7718.36
771928,7719.28
772021,7720.21
772116,7721.16
772208,7722.08
772299,7722.99
772396,7723.96
772489,7724.89
772583,7725.83
772680,7726.8
772776,7727.76
772871,7728.71
772967,7729.67
773065,7730.65
773161,7731.61
773257,7732.57
773356,7733.56
773455,7734.55
773550,7735.5
773645,7736.45
773742,7737.42
773839,7738.39
773930,7739.3
774025,7740.25
774122,7741.22
774214,7742.14
774308,7743.08
774404,7744.04
774498,7744.98
774593,7745.93
774689,7746.89
774785,7747.85
774879,7748.79
774973,7749.73
775068,7750.68
775159,7751.59
775251,7752.51
775345,7753.45
775437,7754.37
775529,7755.29
775625,7756.25
775719,7757.19
775813,7758.13
775908,7759.08
776004,7760.04
776100,7761.0
776194,7761.94
776290,7762.9
776388,7763.88
776484,7764.84
776579,7765.79
776678,7766.78
776778,7767.78
776875,7768.75
776973,7769.73
777073,7770.73
777171,7771.71
777266,7772.66
777363,7773.63
777459,7774.59
777554,7775.54
777648,7776.48
777742,7777.42
777835,7778.35
777927,7779.27
778018,7780.18
778115,7781.15
778207,7782.07
778299,7782.99
778392,7783.92
778489,7784.89
778586,7785.86
778680,7786.8
778776,7787.76
778875,7788.75
778973,7789.73
779067,7790.67
779163,7791.63
779261,7792.61
779355,7793.55
779449,7794.49
779546,7795.46
779644,7796.44
779740,7797.4
779836,7798.36
779936,7799.36
780032,7800.32
780127,7801.27
780225,7802.25
780322,7803.22
780418,7804.18
780512,7805.12
780610,7806.1
780704,7807.04
780798,7807.98
780897,7808.97
780993,7809.93
781086,7810.86
781184,7811.84
781282,7812.82
781376,7813.76
781469,7814.69
781565,7815.65
781658,7816.58
781753,7817.53
781847,7818.47
781942,7819.42
782034,7820.34
782129,7821.29
782223,7822.23
782319,7823.19
782412,7824.12
782505,7825.05
782600,7826.0
782695,7826.95
782786,7827.86
782877,7828.77
782969,7829.69
783060,7830.6
783148,7831.48
783241,7832.41
783333,7833.33
783425,7834.25
783519,7835.19
783616,7836.16
783713,7837.13
783808,7838.08
783907,7839.07
784005,7840.05
784101,7841.01
784196,7841.96
784293,7842.93
784387,7843.87
784479,7844.79
784575,7845.75
784670,7846.7
784763,7847.63
784856,7848.56
784950,7849.5
785044,7850.44
785135,7851.35
785234,7852.34
785333,7853.33
785429,7854.29
785527,7855.27
785627,7856.27
785727,7857.27
785826,7858.26
785928,7859.28
786029,7860.29
786130,7861.3
786233,7862.33
786337,7863.37
786439,7864.39
786539,7865.39
786640,7866.4
786738,7867.38
786833,7868.33
786928,7869.28
787022,7870.22
787113,7871.13
787205,7872.05
787299,7872.99
787392,7873.92
787486,7874.86
787581,7875.81
787677,7876.77
787772,7877.72
787865,7878.65
787958,7879.58
788055,7880.55
788150,7881.5
788245,7882.45
788342,7883.42
788441,7884.41
788540,7885.4
788638,7886.38
788739,7887.39
788840,7888.4
788937,7889.37
789035,7890.35
789134,7891.34
789231,7892.31
789328,7893.28
789427,7894.27
789526,7895.26
789623,7896.23
789725,7897.25
789827,7898.27
