sample,time_sec
106,1.06
193,1.93
279,2.79
364,3.64
449,4.49
537,5.37
624,6.24
709,7.09
796,7.96
879,8.79
963,9.63
1049,10.49
1136,11.36
1225,12.25
1312,13.12
1399,13.99
1482,14.82
1565,15.65
1650,16.5
1734,17.34
1819,18.19
1904,19.04
1988,19.88
2071,20.71
2154,21.54
2237,22.37
2320,23.2
2403,24.03
2487,24.87
2569,25.69
2650,26.5
2732,27.32
2815,28.15
2897,28.97
2980,29.8
3059,30.59
3137,31.37
3215,32.15
3292,32.92
3371,33.71
3451,34.51
3530,35.3
3607,36.07
3686,36.86
3765,37.65
3844,38.44
3922,39.22
4001,40.01
4082,40.82
4161,41.61
4240,42.4
4321,43.21
4403,44.03
4483,44.83
4562,45.62
4640,46.4
4719,47.19
4797,47.97
4876,48.76
4955,49.55
5039,50.39
5123,51.23
5205,52.05
5288,52.88
5372,53.72
5457,54.57
5544,55.44
5631,56.31
5714,57.14
5796,57.96
5879,58.79
5963,59.63
6049,60.49
6134,61.34
6218,62.18
6301,63.01
6386,63.86
6474,64.74
6560,65.6
6645,66.45
6729,67.29
6814,68.14
6897,68.97
6981,69.81
7068,70.68
7155,71.55
7242,72.42
7327,73.27
7411,74.11
7496,74.96
7579,75.79
7663,76.63
7749,77.49
7835,78.35
7920,79.2
8005,80.05
8089,80.89
8172,81.72
8259,82.59
8346,83.46
8428,84.28
8512,85.12
8594,85.94
8677,86.77
8761,87.61
8847,88.47
8934,89.34
9018,90.18
9101,91.01
9182,91.82
9264,92.64
9347,93.47
9430,94.3
9511,95.11
9594,95.94
9676,96.76
9757,97.57
9840,98.4
9922,99.22
10002,100.02
10083,100.83
10164,101.64
10245,102.45
10325,103.25
10404,104.04
10484,104.84
10564,105.64
10644,106.44
10723,107.23
10802,108.02
10883,108.83
10961,109.61
11039,110.39
11118,111.18
11200,112.0
11279,112.79
11358,113.58
11437,114.37
11515,115.15
11594,115.94
11671,116.71
11749,117.49
11827,118.27
11905,119.05
11984,119.84
12061,120.61
12141,121.41
12220,122.2
12300,123.0
12379,123.79
12458,124.58
12539,125.39
12621,126.21
12701,127.01
12780,127.8
12860,128.6
12942,129.42
13023,130.23
13104,131.04
13184,131.84
13263,132.63
13343,133.43
13422,134.22
13500,135.0
13578,135.78
13656,136.56
13734,137.34
13814,138.14
13892,138.92
13970,139.7
14048,140.48
14127,141.27
14204,142.04
14282,142.82
14360,143.6
14438,144.38
14514,145.14
14592,145.92
14670,146.7
14751,147.51
14832,148.32
14911,149.11
14989,149.89
15070,150.7
15152,151.52
15234,152.34
15313,153.13
15392,153.92
15470,154.7
15550,155.5
15630,156.3
15712,157.12
15793,157.93
15871,158.71
15950,159.5
16030,160.3
16110,161.1
16191,161.91
16271,162.71
16350,163.5
16431,164.31
16514,165.14
16606,166.06
16697,166.97
16787,167.87
16874,168.74
16961,169.61
17046,170.46
17129,171.29
17211,172.11
17295,172.95
17387,173.87
17480,174.8
17568,175.68
17657,176.57
17744,177.44
17829,178.29
17914,179.14
17998,179.98
18087,180.87
18175,181.75
18261,182.61
18345,183.45
18430,184.3
18514,185.14
18596,185.96
18677,186.77
18758,187.58
18841,188.41
18923,189.23
19010,190.1
19098,190.98
19184,191.84
19270,192.7
19355,193.55
19440,194.4
19524,195.24
19608,196.08
19691,196.91
19775,197.75
19860,198.6
19945,199.45
20026,200.26
20106,201.06
20186,201.86
20265,202.65
20344,203.44
20423,204.23
20500,205.0
20578,205.78
20656,206.56
20738,207.38
20821,208.21
20906,209.06
20991,209.91
21075,210.75
21156,211.56
21236,212.36
21316,213.16
21396,213.96
21481,214.81
21566,215.66
21651,216.51
21734,217.34
21817,218.17
21898,218.98
21978,219.78
22057,220.57
22136,221.36
22215,222.15
22294,222.94
22371,223.71
22448,224.48
22528,225.28
22609,226.09
22688,226.88
22761,227.61
22835,228.35
22911,229.11
22985,229.85
23061,230.61
23137,231.37
23213,232.13
23288,232.88
23366,233.66
23447,234.47
23529,235.29
23613,236.13
23694,236.94
23775,237.75
23860,238.6
23945,239.45
24030,240.3
24113,241.13
24196,241.96
24278,242.78
24358,243.58
24440,244.4
24522,245.22
24604,246.04
24684,246.84
24763,247.63
24842,248.42
24923,249.23
25002,250.02
25084,250.84
25167,251.67
25249,252.49
25332,253.32
25413,254.13
25493,254.93
25576,255.76
25659,256.59
25742,257.42
25824,258.24
25904,259.04
25984,259.84
26067,260.67
26150,261.5
26232,262.32
26315,263.15
26396,263.96
26476,264.76
26553,265.53
26631,266.31
26707,267.07
26784,267.84
26861,268.61
26939,269.39
27018,270.18
27095,270.95
27171,271.71
27248,272.48
27325,273.25
27403,274.03
27483,274.83
27563,275.63
27645,276.45
27727,277.27
27810,278.1
27893,278.93
27976,279.76
28058,280.58
28140,281.4
28223,282.23
28305,283.05
28389,283.89
28471,284.71
28552,285.52
28633,286.33
28715,287.15
28794,287.94
28872,288.72
28950,289.5
29028,290.28
29107,291.07
29187,291.87
29269,292.69
29351,293.51
29434,294.34
29517,295.17
29600,296.0
29683,296.83
29765,297.65
29849,298.49
29931,299.31
30014,300.14
30096,300.96
30177,301.77
30259,302.59
30340,303.4
30424,304.24
30508,305.08
30590,305.9
30673,306.73
30756,307.56
30838,308.38
30920,309.2
31001,310.01
31085,310.85
31167,311.67
31251,312.51
31335,313.35
31419,314.19
31502,315.02
31585,315.85
31669,316.69
31753,317.53
31834,318.34
31916,319.16
31997,319.97
32077,320.77
32155,321.55
32234,322.34
32316,323.16
32396,323.96
32477,324.77
32560,325.6
32643,326.43
32727,327.27
32809,328.09
32892,328.92
32977,329.77
33063,330.63
33148,331.48
33232,332.32
33317,333.17
33403,334.03
33491,334.91
33579,335.79
33667,336.67
33753,337.53
33837,338.37
33920,339.2
34004,340.04
34089,340.89
34174,341.74
34259,342.59
34344,343.44
34429,344.29
34512,345.12
34596,345.96
34679,346.79
34761,347.61
34845,348.45
34929,349.29
35013,350.13
35098,350.98
35182,351.82
35266,352.66
35349,353.49
35431,354.31
35513,355.13
35595,355.95
35677,356.77
35760,357.6
35842,358.42
35924,359.24
36005,360.05
36086,360.86
36166,361.66
36246,362.46
36326,363.26
36405,364.05
36483,364.83
36561,365.61
36639,366.39
36718,367.18
36796,367.96
36873,368.73
36950,369.5
37028,370.28
37104,371.04
37182,371.82
37260,372.6
37337,373.37
37413,374.13
37488,374.88
37564,375.64
37638,376.38
37712,377.12
37787,377.87
37862,378.62
37943,379.43
38025,380.25
38105,381.05
38184,381.84
38265,382.65
38346,383.46
38425,384.25
38504,385.04
38584,385.84
38665,386.65
38748,387.48
38830,388.3
38912,389.12
38995,389.95
39076,390.76
39157,391.57
39237,392.37
39317,393.17
39396,393.96
39474,394.74
39552,395.52
39629,396.29
39708,397.08
39786,397.86
39865,398.65
39943,399.43
40021,400.21
40099,400.99
40178,401.78
40257,402.57
40337,403.37
40419,404.19
40498,404.98
40576,405.76
40656,406.56
40735,407.35
40815,408.15
40893,408.93
40971,409.71
41048,410.48
41126,411.26
41204,412.04
41282,412.82
41360,413.6
41438,414.38
41517,415.17
41595,415.95
41674,416.74
41754,417.54
41833,418.33
41913,419.13
41991,419.91
42072,420.72
42154,421.54
42233,422.33
42313,423.13
42393,423.93
42474,424.74
42556,425.56
42636,426.36
42717,427.17
42801,428.01
42887,428.87
42972,429.72
43057,430.57
43144,431.44
43233,432.33
43322,433.22
43410,434.1
43498,434.98
43586,435.86
43672,436.72
43756,437.56
43839,438.39
43922,439.22
44006,440.06
44092,440.92
44177,441.77
44263,442.63
44349,443.49
44434,444.34
44518,445.18
44602,446.02
44685,446.85
44773,447.73
44863,448.63
44952,449.52
45040,450.4
45126,451.26
45211,452.11
45296,452.96
45381,453.81
45469,454.69
45556,455.56
45643,456.43
45730,457.3
45817,458.17
45903,459.03
45989,459.89
46074,460.74
46157,461.57
46242,462.42
46328,463.28
46417,464.17
46505,465.05
46593,465.93
46680,466.8
46766,467.66
46851,468.51
46937,469.37
47024,470.24
47112,471.12
47199,471.99
47285,472.85
47373,473.73
47461,474.61
47549,475.49
47636,476.36
47724,477.24
47812,478.12
47897,478.97
47981,479.81
48065,480.65
48153,481.53
48241,482.41
48328,483.28
48412,484.12
48496,484.96
48577,485.77
48655,486.55
48734,487.34
48811,488.11
48893,488.93
48975,489.75
49047,490.47
49119,491.19
49209,492.09
49300,493.0
49384,493.84
49466,494.66
49548,495.48
49629,496.29
49713,497.13
49801,498.01
49890,498.9
49976,499.76
50061,500.61
50145,501.45
50229,502.29
50316,503.16
50403,504.03
50488,504.88
50571,505.71
50655,506.55
50741,507.41
50826,508.26
50911,509.11
50995,509.95
51080,510.8
51164,511.64
51249,512.49
51333,513.33
51416,514.16
51499,514.99
51582,515.82
51665,516.65
51750,517.5
51836,518.36
51920,519.2
52003,520.03
52087,520.87
52175,521.75
52263,522.63
52349,523.49
52435,524.35
52521,525.21
52608,526.08
52697,526.97
52784,527.84
52872,528.72
52961,529.61
53047,530.47
53133,531.33
53216,532.16
53298,532.98
53378,533.78
53458,534.58
53539,535.39
53622,536.22
53703,537.03
53783,537.83
53864,538.64
53947,539.47
54029,540.29
54113,541.13
54197,541.97
54280,542.8
54364,543.64
54449,544.49
54535,545.35
54620,546.2
54704,547.04
54789,547.89
54873,548.73
54957,549.57
55041,550.41
55124,551.24
55210,552.1
55296,552.96
55384,553.84
55473,554.73
55560,555.6
55644,556.44
55727,557.27
55809,558.09
55892,558.92
55976,559.76
56061,560.61
56146,561.46
56230,562.3
56312,563.12
56394,563.94
56475,564.75
56554,565.54
56638,566.38
56723,567.23
56804,568.04
56885,568.85
56963,569.63
57042,570.42
57121,571.21
57200,572.0
57281,572.81
57361,573.61
57441,574.41
57520,575.2
57601,576.01
57683,576.83
57767,577.67
57850,578.5
57932,579.32
58013,580.13
58093,580.93
58177,581.77
58261,582.61
58344,583.44
58426,584.26
58509,585.09
58590,585.9
58671,586.71
58754,587.54
58834,588.34
58914,589.14
58994,589.94
59078,590.78
59160,591.6
59242,592.42
59323,593.23
59404,594.04
59485,594.85
59565,595.65
59648,596.48
59733,597.33
59817,598.17
59900,599.0
59983,599.83
60064,600.64
60146,601.46
60234,602.34
60324,603.24
60412,604.12
60500,605.0
60586,605.86
60671,606.71
60757,607.57
60843,608.43
60930,609.3
61017,610.17
61104,611.04
61189,611.89
61272,612.72
61354,613.54
61439,614.39
61524,615.24
61610,616.1
61697,616.97
61783,617.83
61867,618.67
61951,619.51
62038,620.38
62128,621.28
62216,622.16
62302,623.02
62384,623.84
62465,624.65
62545,625.45
62623,626.23
62701,627.01
62779,627.79
62856,628.56
62934,629.34
63012,630.12
63089,630.89
63167,631.67
63245,632.45
63322,633.22
63398,633.98
63474,634.74
63548,635.48
63624,636.24
63700,637.0
63774,637.74
63848,638.48
63922,639.22
63995,639.95
64068,640.68
64139,641.39
64211,642.11
64283,642.83
64355,643.55
64428,644.28
64502,645.02
64576,645.76
64652,646.52
64730,647.3
64808,648.08
64888,648.88
64969,649.69
65048,650.48
65127,651.27
65209,652.09
65293,652.93
65377,653.77
65459,654.59
65540,655.4
65620,656.2
65704,657.04
65787,657.87
65868,658.68
65949,659.49
66033,660.33
66116,661.16
66200,662.0
66283,662.83
66365,663.65
66446,664.46
66527,665.27
66608,666.08
66692,666.92
66777,667.77
66860,668.6
66943,669.43
67024,670.24
67105,671.05
67185,671.85
67267,672.67
67350,673.5
67433,674.33
67515,675.15
67596,675.96
67680,676.8
67764,677.64
67848,678.48
67931,679.31
68013,680.13
68095,680.95
68178,681.78
68262,682.62
68345,683.45
68430,684.3
68514,685.14
68596,685.96
68677,686.77
68758,687.58
68842,688.42
68925,689.25
69008,690.08
69089,690.89
69170,691.7
69250,692.5
69331,693.31
69413,694.13
69499,694.99
69584,695.84
69667,696.67
69750,697.5
69833,698.33
69916,699.16
70001,700.01
70084,700.84
70166,701.66
70248,702.48
70330,703.3
70414,704.14
70497,704.97
70580,705.8
70663,706.63
70746,707.46
70830,708.3
70912,709.12
70994,709.94
71076,710.76
71159,711.59
71241,712.41
71325,713.25
71406,714.06
71486,714.86
71566,715.66
71644,716.44
71723,717.23
71802,718.02
71884,718.84
71966,719.66
72049,720.49
72130,721.3
72212,722.12
72292,722.92
72376,723.76
72459,724.59
72543,725.43
72627,726.27
72710,727.1
72793,727.93
72876,728.76
72960,729.6
73044,730.44
73129,731.29
73211,732.11
73296,732.96
73381,733.81
73465,734.65
73551,735.51
73634,736.34
73717,737.17
73800,738.0
73884,738.84
73967,739.67
74051,740.51
74135,741.35
74218,742.18
74301,743.01
74382,743.82
74464,744.64
74547,745.47
74633,746.33
74720,747.2
74808,748.08
74893,748.93
74976,749.76
75059,750.59
75143,751.43
75228,752.28
75313,753.13
75397,753.97
75479,754.79
75561,755.61
75643,756.43
75726,757.26
75810,758.1
75894,758.94
75979,759.79
76065,760.65
76151,761.51
76237,762.37
76322,763.22
76408,764.08
76497,764.97
76588,765.88
76678,766.78
76765,767.65
76851,768.51
76935,769.35
77019,770.19
77105,771.05
77192,771.92
77280,772.8
77368,773.68
77454,774.54
77539,775.39
77623,776.23
77707,777.07
77790,777.9
77872,778.72
77959,779.59
78045,780.45
78131,781.31
78217,782.17
78301,783.01
78385,783.85
78468,784.68
78555,785.55
78642,786.42
78729,787.29
78816,788.16
78902,789.02
78987,789.87
79070,790.7
79152,791.52
79236,792.36
79318,793.18
79400,794.0
79480,794.8
79560,795.6
79639,796.39
79719,797.19
79800,798.0
79880,798.8
79960,799.6
80040,800.4
80119,801.19
80198,801.98
80277,802.77
80354,803.54
80430,804.3
80505,805.05
80579,805.79
80657,806.57
80734,807.34
80811,808.11
80890,808.9
80968,809.68
81047,810.47
81125,811.25
81205,812.05
81286,812.86
81367,813.67
81447,814.47
81530,815.3
81612,816.12
81697,816.97
81782,817.82
81866,818.66
81949,819.49
82032,820.32
82113,821.13
82194,821.94
82277,822.77
82361,823.61
82446,824.46
82530,825.3
82613,826.13
82695,826.95
82779,827.79
82863,828.63
82947,829.47
83027,830.27
83107,831.07
83185,831.85
83265,832.65
83345,833.45
83425,834.25
83505,835.05
83586,835.86
83666,836.66
83747,837.47
83826,838.26
83905,839.05
83983,839.83
84062,840.62
84141,841.41
84220,842.2
84298,842.98
84375,843.75
84454,844.54
84533,845.33
84613,846.13
84693,846.93
84773,847.73
84854,848.54
84939,849.39
85022,850.22
85104,851.04
85187,851.87
85272,852.72
85358,853.58
85445,854.45
85532,855.32
85616,856.16
85700,857.0
85787,857.87
85876,858.76
85965,859.65
86052,860.52
86139,861.39
86226,862.26
86311,863.11
86396,863.96
86483,864.83
86566,865.66
86650,866.5
86734,867.34
86819,868.19
86907,869.07
86995,869.95
87080,870.8
87163,871.63
87246,872.46
87330,873.3
87414,874.14
87499,874.99
87582,875.82
87665,876.65
87747,877.47
87828,878.28
87909,879.09
87988,879.88
88067,880.67
88145,881.45
88225,882.25
88309,883.09
88389,883.89
88472,884.72
88553,885.53
88633,886.33
88716,887.16
88799,887.99
88883,888.83
88968,889.68
89056,890.56
89143,891.43
89228,892.28
89312,893.12
89394,893.94
89478,894.78
89563,895.63
89646,896.46
89730,897.3
89812,898.12
89894,898.94
89974,899.74
90054,900.54
90136,901.36
90219,902.19
90303,903.03
90385,903.85
90467,904.67
90549,905.49
90634,906.34
90718,907.18
90803,908.03
90886,908.86
90968,909.68
91049,910.49
91130,911.3
91214,912.14
91299,912.99
91384,913.84
91468,914.68
91551,915.51
91633,916.33
91713,917.13
91794,917.94
91879,918.79
91963,919.63
92050,920.5
92133,921.33
92216,922.16
92297,922.97
92378,923.78
92460,924.6
92543,925.43
92626,926.26
92708,927.08
92790,927.9
92872,928.72
92952,929.52
93033,930.33
93116,931.16
93202,932.02
93286,932.86
93370,933.7
93453,934.53
93535,935.35
93615,936.15
93697,936.97
93780,937.8
93863,938.63
93946,939.46
94027,940.27
94108,941.08
94190,941.9
94274,942.74
94357,943.57
94440,944.4
94523,945.23
94605,946.05
94685,946.85
94766,947.66
94847,948.47
94926,949.26
95006,950.06
95086,950.86
95166,951.66
95248,952.48
95329,953.29
95410,954.1
95493,954.93
95576,955.76
95657,956.57
95739,957.39
95821,958.21
95906,959.06
95991,959.91
96073,960.73
96156,961.56
96240,962.4
96325,963.25
96410,964.1
96494,964.94
96576,965.76
96659,966.59
96744,967.44
96831,968.31
96915,969.15
96999,969.99
97083,970.83
97169,971.69
97253,972.53
97338,973.38
97423,974.23
97507,975.07
97591,975.91
97673,976.73
97756,977.56
97841,978.41
97923,979.23
98004,980.04
98085,980.85
98166,981.66
98246,982.46
98326,983.26
98406,984.06
98485,984.85
98564,985.64
98643,986.43
98725,987.25
98808,988.08
98890,988.9
98971,989.71
99053,990.53
99135,991.35
99217,992.17
99297,992.97
99377,993.77
99458,994.58
99539,995.39
99622,996.22
99703,997.03
99783,997.83
99865,998.65
99949,999.49
100030,1000.3
100113,1001.13
100196,1001.96
100282,1002.82
100366,1003.66
100450,1004.5
100532,1005.32
100613,1006.13
100695,1006.95
100777,1007.77
100860,1008.6
100943,1009.43
101025,1010.25
101106,1011.06
101186,1011.86
101268,1012.68
101349,1013.49
101430,1014.3
101511,1015.11
101591,1015.91
101671,1016.71
101754,1017.54
101836,1018.36
101919,1019.19
102000,1020.0
102081,1020.81
102163,1021.63
102246,1022.46
102327,1023.27
102408,1024.08
102490,1024.9
102571,1025.71
102652,1026.52
102734,1027.34
102814,1028.14
102894,1028.94
102976,1029.76
103059,1030.59
103142,1031.42
103225,1032.25
103306,1033.06
103388,1033.88
103468,1034.68
103548,1035.48
103628,1036.28
103710,1037.1
103789,1037.89
103869,1038.69
103948,1039.48
104029,1040.29
104109,1041.09
104190,1041.9
104271,1042.71
104350,1043.5
104431,1044.31
104510,1045.1
104590,1045.9
104672,1046.72
104755,1047.55
104837,1048.37
104920,1049.2
105001,1050.01
105084,1050.84
105164,1051.64
105243,1052.43
105320,1053.2
105397,1053.97
105475,1054.75
105553,1055.53
105632,1056.32
105713,1057.13
105793,1057.93
105874,1058.74
105955,1059.55
106037,1060.37
106118,1061.18
106199,1061.99
106280,1062.8
106362,1063.62
106445,1064.45
106526,1065.26
106608,1066.08
106692,1066.92
106777,1067.77
106861,1068.61
106945,1069.45
107028,1070.28
107111,1071.11
107196,1071.96
107281,1072.81
107366,1073.66
107450,1074.5
107534,1075.34
107618,1076.18
107702,1077.02
107787,1077.87
107871,1078.71
107954,1079.54
108038,1080.38
108123,1081.23
108205,1082.05
108288,1082.88
108370,1083.7
108454,1084.54
108539,1085.39
108622,1086.22
108706,1087.06
108789,1087.89
108871,1088.71
108953,1089.53
109036,1090.36
109121,1091.21
109207,1092.07
109291,1092.91
109373,1093.73
109455,1094.55
109538,1095.38
109621,1096.21
109703,1097.03
109784,1097.84
109864,1098.64
109946,1099.46
110029,1100.29
110110,1101.1
110193,1101.93
110277,1102.77
110365,1103.65
110454,1104.54
110539,1105.39
110624,1106.24
110709,1107.09
110795,1107.95
110881,1108.81
110965,1109.65
111048,1110.48
111132,1111.32
111214,1112.14
111297,1112.97
111379,1113.79
111463,1114.63
111545,1115.45
111627,1116.27
111708,1117.08
111789,1117.89
111869,1118.69
111949,1119.49
112028,1120.28
112107,1121.07
112187,1121.87
112270,1122.7
112352,1123.52
112432,1124.32
112512,1125.12
112593,1125.93
112675,1126.75
112757,1127.57
112839,1128.39
112919,1129.19
113001,1130.01
113084,1130.84
113166,1131.66
113247,1132.47
113328,1133.28
113413,1134.13
113497,1134.97
113581,1135.81
113666,1136.66
113752,1137.52
113837,1138.37
113923,1139.23
114013,1140.13
114103,1141.03
114191,1141.91
114277,1142.77
114362,1143.62
114448,1144.48
114538,1145.38
114627,1146.27
114716,1147.16
114804,1148.04
114889,1148.89
114972,1149.72
115056,1150.56
115140,1151.4
115225,1152.25
115309,1153.09
115394,1153.94
115477,1154.77
115561,1155.61
115647,1156.47
115733,1157.33
115817,1158.17
115901,1159.01
115984,1159.84
116069,1160.69
116155,1161.55
116240,1162.4
116325,1163.25
116409,1164.09
116491,1164.91
116574,1165.74
116659,1166.59
116742,1167.42
116824,1168.24
116906,1169.06
116988,1169.88
117069,1170.69
117150,1171.5
117230,1172.3
117311,1173.11
117393,1173.93
117475,1174.75
117556,1175.56
117636,1176.36
117715,1177.15
117793,1177.93
117871,1178.71
117948,1179.48
118025,1180.25
118103,1181.03
118181,1181.81
118259,1182.59
118338,1183.38
118420,1184.2
118502,1185.02
118583,1185.83
118664,1186.64
118746,1187.46
118826,1188.26
118906,1189.06
118987,1189.87
119070,1190.7
119150,1191.5
119231,1192.31
119311,1193.11
119392,1193.92
119473,1194.73
119555,1195.55
119637,1196.37
119722,1197.22
119807,1198.07
119891,1198.91
119974,1199.74
120056,1200.56
120137,1201.37
120218,1202.18
120299,1202.99
120379,1203.79
120459,1204.59
120538,1205.38
120617,1206.17
120698,1206.98
120778,1207.78
120857,1208.57
120936,1209.36
121014,1210.14
121094,1210.94
121175,1211.75
121256,1212.56
121335,1213.35
121416,1214.16
121496,1214.96
121576,1215.76
121656,1216.56
121735,1217.35
121815,1218.15
121897,1218.97
121979,1219.79
122061,1220.61
122142,1221.42
122222,1222.22
122308,1223.08
122392,1223.92
122480,1224.8
122564,1225.64
122647,1226.47
122730,1227.3
122812,1228.12
122894,1228.94
122977,1229.77
123058,1230.58
123139,1231.39
123222,1232.22
123305,1233.05
123389,1233.89
123471,1234.71
123551,1235.51
123631,1236.31
123711,1237.11
123792,1237.92
123875,1238.75
123955,1239.55
124035,1240.35
124116,1241.16
124197,1241.97
124278,1242.78
124361,1243.61
124444,1244.44
124527,1245.27
124609,1246.09
124690,1246.9
124770,1247.7
124858,1248.58
124943,1249.43
125031,1250.31
125119,1251.19
125203,1252.03
125285,1252.85
125366,1253.66
125446,1254.46
125525,1255.25
125603,1256.03
125682,1256.82
125760,1257.6
125840,1258.4
125919,1259.19
125999,1259.99
126078,1260.78
126158,1261.58
126237,1262.37
126318,1263.18
126398,1263.98
126478,1264.78
126557,1265.57
126636,1266.36
126714,1267.14
126793,1267.93
126872,1268.72
126952,1269.52
127030,1270.3
127107,1271.07
127183,1271.83
127260,1272.6
127337,1273.37
127415,1274.15
127494,1274.94
127572,1275.72
127650,1276.5
127732,1277.32
127815,1278.15
127896,1278.96
127979,1279.79
128064,1280.64
128150,1281.5
128235,1282.35
128320,1283.2
128408,1284.08
128498,1284.98
128588,1285.88
128678,1286.78
128766,1287.66
128852,1288.52
128939,1289.39
129027,1290.27
129116,1291.16
129206,1292.06
129294,1292.94
129380,1293.8
129466,1294.66
129554,1295.54
129643,1296.43
129731,1297.31
129818,1298.18
129905,1299.05
129994,1299.94
130082,1300.82
130169,1301.69
130258,1302.58
130344,1303.44
130429,1304.29
130513,1305.13
130594,1305.94
130676,1306.76
130757,1307.57
130839,1308.39
130924,1309.24
131009,1310.09
131094,1310.94
131181,1311.81
131267,1312.67
131351,1313.51
131434,1314.34
131519,1315.19
131605,1316.05
131692,1316.92
131777,1317.77
131860,1318.6
131942,1319.42
132026,1320.26
132108,1321.08
132188,1321.88
132267,1322.67
132346,1323.46
132424,1324.24
132504,1325.04
132582,1325.82
132660,1326.6
132742,1327.42
132824,1328.24
132907,1329.07
132988,1329.88
133071,1330.71
133156,1331.56
133237,1332.37
133319,1333.19
133402,1334.02
133485,1334.85
133570,1335.7
133652,1336.52
133734,1337.34
133815,1338.15
133899,1338.99
133984,1339.84
134067,1340.67
134150,1341.5
134231,1342.31
134314,1343.14
134397,1343.97
134482,1344.82
134569,1345.69
134654,1346.54
134736,1347.36
134818,1348.18
134901,1349.01
134987,1349.87
135071,1350.71
135156,1351.56
135240,1352.4
135322,1353.22
135403,1354.03
135486,1354.86
135571,1355.71
135656,1356.56
135739,1357.39
135821,1358.21
135904,1359.04
135989,1359.89
136074,1360.74
136157,1361.57
136239,1362.39
136319,1363.19
136401,1364.01
136484,1364.84
136565,1365.65
136646,1366.46
136727,1367.27
136811,1368.11
136894,1368.94
136977,1369.77
137057,1370.57
137136,1371.36
137219,1372.19
137301,1373.01
137383,1373.83
137463,1374.63
137545,1375.45
137627,1376.27
137709,1377.09
137789,1377.89
137870,1378.7
137950,1379.5
138033,1380.33
138116,1381.16
138197,1381.97
138277,1382.77
138360,1383.6
138442,1384.42
138524,1385.24
138605,1386.05
138686,1386.86
138768,1387.68
138851,1388.51
138933,1389.33
139013,1390.13
139095,1390.95
139177,1391.77
139260,1392.6
139343,1393.43
139424,1394.24
139505,1395.05
139585,1395.85
139665,1396.65
139747,1397.47
139828,1398.28
139909,1399.09
139989,1399.89
140071,1400.71
140153,1401.53
140235,1402.35
140315,1403.15
140395,1403.95
140475,1404.75
140556,1405.56
140638,1406.38
140718,1407.18
140798,1407.98
140876,1408.76
140956,1409.56
141037,1410.37
141117,1411.17
141196,1411.96
141276,1412.76
141357,1413.57
141437,1414.37
141517,1415.17
141597,1415.97
141675,1416.75
141753,1417.53
141830,1418.3
141906,1419.06
141983,1419.83
142061,1420.61
142140,1421.4
142222,1422.22
142301,1423.01
142382,1423.82
142463,1424.63
142543,1425.43
142625,1426.25
142707,1427.07
142790,1427.9
142872,1428.72
142954,1429.54
143038,1430.38
143122,1431.22
143205,1432.05
143287,1432.87
143374,1433.74
143460,1434.6
143545,1435.45
143628,1436.28
143714,1437.14
143801,1438.01
143888,1438.88
143974,1439.74
144058,1440.58
144143,1441.43
144228,1442.28
144312,1443.12
144398,1443.98
144483,1444.83
144567,1445.67
144651,1446.51
144735,1447.35
144817,1448.17
144899,1448.99
144980,1449.8
145063,1450.63
145147,1451.47
145232,1452.32
145314,1453.14
145395,1453.95
145478,1454.78
145561,1455.61
145643,1456.43
145724,1457.24
145806,1458.06
145890,1458.9
145972,1459.72
146057,1460.57
146142,1461.42
146227,1462.27
146311,1463.11
146395,1463.95
146480,1464.8
146564,1465.64
146649,1466.49
146731,1467.31
146814,1468.14
146901,1469.01
146987,1469.87
147072,1470.72
147156,1471.56
147238,1472.38
147321,1473.21
147403,1474.03
147483,1474.83
147565,1475.65
147648,1476.48
147729,1477.29
147810,1478.1
147891,1478.91
147974,1479.74
148057,1480.57
148139,1481.39
148222,1482.22
148304,1483.04
148387,1483.87
148469,1484.69
148551,1485.51
148634,1486.34
148718,1487.18
148801,1488.01
148883,1488.83
148966,1489.66
149050,1490.5
149132,1491.32
149214,1492.14
149298,1492.98
149380,1493.8
149462,1494.62
149544,1495.44
149624,1496.24
149703,1497.03
149784,1497.84
149865,1498.65
149945,1499.45
150024,1500.24
150102,1501.02
150180,1501.8
150257,1502.57
150332,1503.32
150408,1504.08
150485,1504.85
150562,1505.62
150636,1506.36
150702,1507.02
150770,1507.7
150838,1508.38
150907,1509.07
150973,1509.73
151038,1510.38
151103,1511.03
151172,1511.72
151241,1512.41
151308,1513.08
151375,1513.75
151444,1514.44
151514,1515.14
151585,1515.85
151656,1516.56
151722,1517.22
151788,1517.88
151868,1518.68
151948,1519.48
152023,1520.23
152098,1520.98
152174,1521.74
152248,1522.48
152323,1523.23
152398,1523.98
152475,1524.75
152552,1525.52
152628,1526.28
152703,1527.03
152778,1527.78
152853,1528.53
152926,1529.26
153000,1530.0
153074,1530.74
153148,1531.48
153225,1532.25
153304,1533.04
153382,1533.82
153461,1534.61
153541,1535.41
153622,1536.22
153705,1537.05
153787,1537.87
153872,1538.72
153958,1539.58
154045,1540.45
154130,1541.3
154216,1542.16
154303,1543.03
154391,1543.91
154481,1544.81
154569,1545.69
154658,1546.58
154748,1547.48
154835,1548.35
154920,1549.2
155002,1550.02
155081,1550.81
155158,1551.58
155234,1552.34
155312,1553.12
155390,1553.9
155468,1554.68
155548,1555.48
155630,1556.3
155710,1557.1
155790,1557.9
155870,1558.7
155949,1559.49
156030,1560.3
156110,1561.1
156189,1561.89
156268,1562.68
156350,1563.5
156432,1564.32
156514,1565.14
156595,1565.95
156677,1566.77
156759,1567.59
156841,1568.41
156925,1569.25
157010,1570.1
157092,1570.92
157174,1571.74
157256,1572.56
157340,1573.4
157425,1574.25
157508,1575.08
157591,1575.91
157673,1576.73
157756,1577.56
157840,1578.4
157925,1579.25
158006,1580.06
158086,1580.86
158166,1581.66
158247,1582.47
158329,1583.29
158411,1584.11
158495,1584.95
158580,1585.8
158663,1586.63
158745,1587.45
158828,1588.28
158910,1589.1
158989,1589.89
159069,1590.69
159146,1591.46
159222,1592.22
159298,1592.98
159377,1593.77
159457,1594.57
159539,1595.39
159622,1596.22
159708,1597.08
159794,1597.94
159874,1598.74
159954,1599.54
160036,1600.36
160118,1601.18
160198,1601.98
160275,1602.75
160354,1603.54
160432,1604.32
160509,1605.09
160586,1605.86
160663,1606.63
160741,1607.41
160818,1608.18
160895,1608.95
160973,1609.73
161051,1610.51
161129,1611.29
161206,1612.06
161285,1612.85
161365,1613.65
161447,1614.47
161527,1615.27
161606,1616.06
161688,1616.88
161770,1617.7
161851,1618.51
161931,1619.31
162010,1620.1
162086,1620.86
162162,1621.62
162238,1622.38
162315,1623.15
162390,1623.9
162464,1624.64
162538,1625.38
162613,1626.13
162688,1626.88
162763,1627.63
162838,1628.38
162913,1629.13
162988,1629.88
163065,1630.65
163142,1631.42
163217,1632.17
163297,1632.97
163377,1633.77
163458,1634.58
163541,1635.41
163626,1636.26
163708,1637.08
163788,1637.88
163868,1638.68
163948,1639.48
164029,1640.29
164109,1641.09
164191,1641.91
164274,1642.74
164358,1643.58
164440,1644.4
164522,1645.22
164601,1646.01
164681,1646.81
164763,1647.63
164843,1648.43
164924,1649.24
165004,1650.04
165084,1650.84
165165,1651.65
165249,1652.49
165330,1653.3
165409,1654.09
165490,1654.9
165574,1655.74
165660,1656.6
165742,1657.42
165821,1658.21
165898,1658.98
165974,1659.74
166050,1660.5
166127,1661.27
166205,1662.05
166282,1662.82
166358,1663.58
166434,1664.34
166509,1665.09
166586,1665.86
166662,1666.62
166738,1667.38
166815,1668.15
166893,1668.93
166970,1669.7
167047,1670.47
167125,1671.25
167202,1672.02
167277,1672.77
167352,1673.52
167428,1674.28
167504,1675.04
167579,1675.79
167654,1676.54
167732,1677.32
167809,1678.09
167884,1678.84
167960,1679.6
168037,1680.37
168113,1681.13
168187,1681.87
168261,1682.61
168336,1683.36
168411,1684.11
168485,1684.85
168558,1685.58
168633,1686.33
168708,1687.08
168781,1687.81
168853,1688.53
168925,1689.25
168996,1689.96
169068,1690.68
169142,1691.42
169215,1692.15
169288,1692.88
169363,1693.63
169439,1694.39
169514,1695.14
169588,1695.88
169663,1696.63
169741,1697.41
169820,1698.2
169897,1698.97
169973,1699.73
170049,1700.49
170127,1701.27
170207,1702.07
170287,1702.87
170366,1703.66
170446,1704.46
170527,1705.27
170609,1706.09
170689,1706.89
170768,1707.68
170849,1708.49
170932,1709.32
171016,1710.16
171098,1710.98
171178,1711.78
171257,1712.57
171338,1713.38
171421,1714.21
171503,1715.03
171586,1715.86
171667,1716.67
171747,1717.47
171827,1718.27
171908,1719.08
171992,1719.92
172076,1720.76
172159,1721.59
172240,1722.4
172320,1723.2
172399,1723.99
172477,1724.77
172556,1725.56
172636,1726.36
172719,1727.19
172800,1728.0
172879,1728.79
172958,1729.58
173039,1730.39
173127,1731.27
173216,1732.16
173300,1733.0
173384,1733.84
173466,1734.66
173548,1735.48
173632,1736.32
173718,1737.18
173801,1738.01
173882,1738.82
173963,1739.63
174043,1740.43
174126,1741.26
174210,1742.1
174292,1742.92
174375,1743.75
174455,1744.55
174534,1745.34
174612,1746.12
174692,1746.92
174773,1747.73
174856,1748.56
174939,1749.39
175020,1750.2
175100,1751.0
175179,1751.79
175260,1752.6
175342,1753.42
175426,1754.26
175508,1755.08
175587,1755.87
175665,1756.65
175743,1757.43
175822,1758.22
175900,1759.0
175978,1759.78
176054,1760.54
176128,1761.28
176204,1762.04
176281,1762.81
176361,1763.61
176439,1764.39
176516,1765.16
176593,1765.93
176673,1766.73
176754,1767.54
176832,1768.32
176909,1769.09
176987,1769.87
177064,1770.64
177143,1771.43
177219,1772.19
177294,1772.94
177371,1773.71
177448,1774.48
177524,1775.24
177602,1776.02
177680,1776.8
177758,1777.58
177836,1778.36
177912,1779.12
177988,1779.88
178064,1780.64
178140,1781.4
178215,1782.15
178290,1782.9
178365,1783.65
178439,1784.39
178511,1785.11
178584,1785.84
178659,1786.59
178735,1787.35
178810,1788.1
178883,1788.83
178956,1789.56
179029,1790.29
179103,1791.03
179177,1791.77
179248,1792.48
179321,1793.21
179392,1793.92
179463,1794.63
179533,1795.33
179605,1796.05
179677,1796.77
179751,1797.51
179825,1798.25
179895,1798.95
179958,1799.58
180021,1800.21
180099,1800.99
180167,1801.67
180243,1802.43
180311,1803.11
180380,1803.8
180449,1804.49
180518,1805.18
180586,1805.86
180655,1806.55
180724,1807.24
180792,1807.92
180861,1808.61
180929,1809.29
180997,1809.97
181065,1810.65
181134,1811.34
181203,1812.03
181275,1812.75
181348,1813.48
181421,1814.21
181495,1814.95
181569,1815.69
181643,1816.43
181717,1817.17
181791,1817.91
181867,1818.67
181944,1819.44
182020,1820.2
182095,1820.95
182171,1821.71
182248,1822.48
182325,1823.25
182401,1824.01
182477,1824.77
182555,1825.55
182634,1826.34
182713,1827.13
182790,1827.9
182867,1828.67
182945,1829.45
183024,1830.24
183104,1831.04
183184,1831.84
183262,1832.62
183340,1833.4
183418,1834.18
183499,1834.99
183581,1835.81
183661,1836.61
183741,1837.41
183819,1838.19
183898,1838.98
183979,1839.79
184058,1840.58
184136,1841.36
184212,1842.12
184286,1842.86
184362,1843.62
184438,1844.38
184512,1845.12
184587,1845.87
184663,1846.63
184738,1847.38
184815,1848.15
184894,1848.94
184974,1849.74
185051,1850.51
185128,1851.28
185207,1852.07
185286,1852.86
185365,1853.65
185442,1854.42
185519,1855.19
185599,1855.99
185680,1856.8
185761,1857.61
185840,1858.4
185921,1859.21
186002,1860.02
186084,1860.84
186164,1861.64
186243,1862.43
186321,1863.21
186401,1864.01
186482,1864.82
186561,1865.61
186641,1866.41
186723,1867.23
186806,1868.06
186886,1868.86
186966,1869.66
187045,1870.45
187125,1871.25
187205,1872.05
187284,1872.84
187361,1873.61
187440,1874.4
187522,1875.22
187603,1876.03
187684,1876.84
187762,1877.62
187840,1878.4
187919,1879.19
187998,1879.98
188079,1880.79
188157,1881.57
188235,1882.35
188312,1883.12
188391,1883.91
188472,1884.72
188554,1885.54
188633,1886.33
188711,1887.11
188789,1887.89
188867,1888.67
188946,1889.46
189026,1890.26
189105,1891.05
189183,1891.83
189262,1892.62
189343,1893.43
189423,1894.23
189503,1895.03
189580,1895.8
189659,1896.59
189740,1897.4
189822,1898.22
189902,1899.02
189980,1899.8
190058,1900.58
190137,1901.37
190218,1902.18
190298,1902.98
190376,1903.76
190455,1904.55
190536,1905.36
190615,1906.15
190693,1906.93
190769,1907.69
190846,1908.46
190924,1909.24
191003,1910.03
191079,1910.79
191155,1911.55
191233,1912.33
191313,1913.13
191392,1913.92
191471,1914.71
191549,1915.49
191632,1916.32
191714,1917.14
191798,1917.98
191879,1918.79
191959,1919.59
192041,1920.41
192122,1921.22
192203,1922.03
192283,1922.83
192363,1923.63
192445,1924.45
192528,1925.28
192610,1926.1
192691,1926.91
192770,1927.7
192850,1928.5
192931,1929.31
193014,1930.14
193097,1930.97
193176,1931.76
193254,1932.54
193332,1933.32
193411,1934.11
193488,1934.88
193564,1935.64
193639,1936.39
193715,1937.15
193792,1937.92
193867,1938.67
193944,1939.44
194022,1940.22
194102,1941.02
194181,1941.81
194258,1942.58
194337,1943.37
194417,1944.17
194500,1945.0
194583,1945.83
194665,1946.65
194749,1947.49
194831,1948.31
194915,1949.15
195002,1950.02
195089,1950.89
195170,1951.7
195252,1952.52
195333,1953.33
195417,1954.17
195502,1955.02
195584,1955.84
195665,1956.65
195745,1957.45
195827,1958.27
195909,1959.09
195991,1959.91
196073,1960.73
196153,1961.53
196235,1962.35
196318,1963.18
196401,1964.01
196481,1964.81
196560,1965.6
196640,1966.4
196721,1967.21
196804,1968.04
196885,1968.85
196966,1969.66
197047,1970.47
197130,1971.3
197211,1972.11
197291,1972.91
197372,1973.72
197450,1974.5
197529,1975.29
197608,1976.08
197688,1976.88
197765,1977.65
197842,1978.42
197919,1979.19
197997,1979.97
198077,1980.77
198156,1981.56
198235,1982.35
198313,1983.13
198392,1983.92
198471,1984.71
198549,1985.49
198628,1986.28
198708,1987.08
198789,1987.89
198871,1988.71
198951,1989.51
199032,1990.32
199114,1991.14
199194,1991.94
199273,1992.73
199354,1993.54
199436,1994.36
199518,1995.18
199600,1996.0
199681,1996.81
199764,1997.64
199846,1998.46
199927,1999.27
200006,2000.06
200084,2000.84
200164,2001.64
200247,2002.47
200328,2003.28
200407,2004.07
200484,2004.84
200563,2005.63
200644,2006.44
200724,2007.24
200803,2008.03
200883,2008.83
200964,2009.64
201046,2010.46
201126,2011.26
201204,2012.04
201283,2012.83
201364,2013.64
201445,2014.45
201525,2015.25
201607,2016.07
201693,2016.93
201780,2017.8
201865,2018.65
201948,2019.48
202029,2020.29
202110,2021.1
202193,2021.93
202277,2022.77
202360,2023.6
202440,2024.4
202522,2025.22
202602,2026.02
202682,2026.82
202764,2027.64
202847,2028.47
202928,2029.28
203008,2030.08
203088,2030.88
203170,2031.7
203251,2032.51
203329,2033.29
203408,2034.08
203488,2034.88
203571,2035.71
203652,2036.52
203733,2037.33
203815,2038.15
203899,2038.99
203984,2039.84
204064,2040.64
204144,2041.44
204224,2042.24
204306,2043.06
204389,2043.89
204471,2044.71
204551,2045.51
204629,2046.29
204710,2047.1
204791,2047.91
204872,2048.72
204951,2049.51
205030,2050.3
205111,2051.11
205192,2051.92
205272,2052.72
205351,2053.51
205430,2054.3
205511,2055.11
205591,2055.91
205670,2056.7
205748,2057.48
205827,2058.27
205907,2059.07
205986,2059.86
206064,2060.64
206142,2061.42
206221,2062.21
206303,2063.03
206383,2063.83
206461,2064.61
206540,2065.4
206617,2066.17
206693,2066.93
206770,2067.7
206846,2068.46
206922,2069.22
206999,2069.99
207077,2070.77
207155,2071.55
207232,2072.32
207309,2073.09
207389,2073.89
207469,2074.69
207548,2075.48
207627,2076.27
207708,2077.08
207791,2077.91
207875,2078.75
207958,2079.58
208040,2080.4
208125,2081.25
208211,2082.11
208295,2082.95
208378,2083.78
208459,2084.59
208541,2085.41
208625,2086.25
208709,2087.09
208791,2087.91
208873,2088.73
208954,2089.54
209036,2090.36
209117,2091.17
209198,2091.98
209277,2092.77
209355,2093.55
209435,2094.35
209517,2095.17
209597,2095.97
209676,2096.76
209754,2097.54
209834,2098.34
209916,2099.16
209997,2099.97
210077,2100.77
210157,2101.57
210242,2102.42
210326,2103.26
210409,2104.09
210493,2104.93
210578,2105.78
210661,2106.61
210744,2107.44
210826,2108.26
210909,2109.09
210992,2109.92
211073,2110.73
211153,2111.53
211236,2112.36
211322,2113.22
211406,2114.06
211489,2114.89
211570,2115.7
211654,2116.54
211738,2117.38
211819,2118.19
211899,2118.99
211980,2119.8
212065,2120.65
212148,2121.48
212231,2122.31
212311,2123.11
212393,2123.93
212476,2124.76
212558,2125.58
212638,2126.38
212718,2127.18
212803,2128.03
212889,2128.89
212970,2129.7
213050,2130.5
213131,2131.31
213213,2132.13
213296,2132.96
213377,2133.77
213456,2134.56
213537,2135.37
213620,2136.2
213701,2137.01
213780,2137.8
213860,2138.6
213942,2139.42
214022,2140.22
214100,2141.0
214178,2141.78
214258,2142.58
214339,2143.39
214418,2144.18
214497,2144.97
214578,2145.78
214661,2146.61
214741,2147.41
214821,2148.21
214904,2149.04
214987,2149.87
215067,2150.67
215146,2151.46
215227,2152.27
215309,2153.09
215389,2153.89
215469,2154.69
215550,2155.5
215632,2156.32
215712,2157.12
215791,2157.91
215870,2158.7
215951,2159.51
216033,2160.33
216112,2161.12
216191,2161.91
216272,2162.72
216355,2163.55
216435,2164.35
216515,2165.15
216594,2165.94
216675,2166.75
216757,2167.57
216838,2168.38
216918,2169.18
217000,2170.0
217084,2170.84
217166,2171.66
217247,2172.47
217328,2173.28
217412,2174.12
217494,2174.94
217574,2175.74
217654,2176.54
217735,2177.35
217818,2178.18
217899,2178.99
217979,2179.79
218057,2180.57
218138,2181.38
218220,2182.2
218301,2183.01
218381,2183.81
218460,2184.6
218541,2185.41
218623,2186.23
218701,2187.01
218780,2187.8
218862,2188.62
218945,2189.45
219026,2190.26
219106,2191.06
219186,2191.86
219266,2192.66
219348,2193.48
219427,2194.27
219505,2195.05
219583,2195.83
219664,2196.64
219744,2197.44
219823,2198.23
219901,2199.01
219980,2199.8
220061,2200.61
220141,2201.41
220220,2202.2
220298,2202.98
220378,2203.78
220459,2204.59
220538,2205.38
220617,2206.17
220698,2206.98
220779,2207.79
220859,2208.59
220937,2209.37
221015,2210.15
221096,2210.96
221176,2211.76
221256,2212.56
221334,2213.34
221414,2214.14
221495,2214.95
221575,2215.75
221653,2216.53
221731,2217.31
221811,2218.11
221891,2218.91
221970,2219.7
222046,2220.46
222124,2221.24
222204,2222.04
222283,2222.83
222361,2223.61
222439,2224.39
222521,2225.21
222601,2226.01
222680,2226.8
222760,2227.6
222840,2228.4
222920,2229.2
223001,2230.01
223084,2230.84
223164,2231.64
223243,2232.43
223323,2233.23
223405,2234.05
223488,2234.88
223569,2235.69
223649,2236.49
223728,2237.28
223808,2238.08
223888,2238.88
223967,2239.67
224046,2240.46
224126,2241.26
224206,2242.06
224285,2242.85
224362,2243.62
224442,2244.42
224523,2245.23
224602,2246.02
224680,2246.8
224758,2247.58
224838,2248.38
224919,2249.19
224998,2249.98
225077,2250.77
225157,2251.57
225235,2252.35
225312,2253.12
225389,2253.89
225468,2254.68
225548,2255.48
225626,2256.26
225703,2257.03
225782,2257.82
225861,2258.61
225939,2259.39
226016,2260.16
226095,2260.95
226175,2261.75
226253,2262.53
226331,2263.31
226412,2264.12
226495,2264.95
226575,2265.75
226654,2266.54
226734,2267.34
226814,2268.14
226894,2268.94
226972,2269.72
227050,2270.5
227130,2271.3
227210,2272.1
227289,2272.89
227367,2273.67
227448,2274.48
227530,2275.3
227609,2276.09
227688,2276.88
227769,2277.69
227850,2278.5
227929,2279.29
228006,2280.06
228083,2280.83
228163,2281.63
228243,2282.43
228322,2283.22
228403,2284.03
228489,2284.89
228571,2285.71
228651,2286.51
228731,2287.31
228812,2288.12
228891,2288.91
228970,2289.7
229047,2290.47
229126,2291.26
229204,2292.04
229282,2292.82
229360,2293.6
229440,2294.4
229519,2295.19
229597,2295.97
229673,2296.73
229752,2297.52
229832,2298.32
229910,2299.1
229988,2299.88
230066,2300.66
230146,2301.46
230227,2302.27
230305,2303.05
230383,2303.83
230463,2304.63
230545,2305.45
230624,2306.24
230704,2307.04
230785,2307.85
230865,2308.65
230942,2309.42
231019,2310.19
231095,2310.95
231170,2311.7
231244,2312.44
231319,2313.19
231394,2313.94
231469,2314.69
231543,2315.43
231619,2316.19
231696,2316.96
231773,2317.73
231851,2318.51
231931,2319.31
232011,2320.11
232092,2320.92
232171,2321.71
232252,2322.52
232335,2323.35
232420,2324.2
232504,2325.04
232586,2325.86
232666,2326.66
232749,2327.49
232833,2328.33
232915,2329.15
232995,2329.95
233076,2330.76
233159,2331.59
233244,2332.44
233326,2333.26
233406,2334.06
233487,2334.87
233570,2335.7
233652,2336.52
233732,2337.32
233811,2338.11
233892,2338.92
233975,2339.75
234056,2340.56
234137,2341.37
234224,2342.24
234309,2343.09
234392,2343.92
234474,2344.74
234557,2345.57
234640,2346.4
234720,2347.2
234799,2347.99
234879,2348.79
234960,2349.6
235040,2350.4
235118,2351.18
235196,2351.96
235276,2352.76
235357,2353.57
235436,2354.36
235514,2355.14
235594,2355.94
235675,2356.75
235753,2357.53
235831,2358.31
235910,2359.1
235991,2359.91
236071,2360.71
236149,2361.49
236228,2362.28
236310,2363.1
236390,2363.9
236469,2364.69
236552,2365.52
236635,2366.35
236716,2367.16
236798,2367.98
236882,2368.82
236964,2369.64
237045,2370.45
237127,2371.27
237208,2372.08
237292,2372.92
237376,2373.76
237457,2374.57
237538,2375.38
237617,2376.17
237698,2376.98
237779,2377.79
237860,2378.6
237940,2379.4
238018,2380.18
238097,2380.97
238176,2381.76
238254,2382.54
238331,2383.31
238410,2384.1
238491,2384.91
238570,2385.7
238649,2386.49
238728,2387.28
238806,2388.06
238886,2388.86
238967,2389.67
239046,2390.46
239123,2391.23
239202,2392.02
239282,2392.82
239363,2393.63
239442,2394.42
239520,2395.2
239601,2396.01
239683,2396.83
239764,2397.64
239844,2398.44
239927,2399.27
240010,2400.1
240091,2400.91
240170,2401.7
240251,2402.51
240334,2403.34
240414,2404.14
240493,2404.93
240572,2405.72
240656,2406.56
240736,2407.36
240817,2408.17
240897,2408.97
240981,2409.81
241064,2410.64
241145,2411.45
241226,2412.26
241311,2413.11
241395,2413.95
241476,2414.76
241556,2415.56
241638,2416.38
241719,2417.19
241798,2417.98
241880,2418.8
241962,2419.62
242042,2420.42
242122,2421.22
242203,2422.03
242285,2422.85
242365,2423.65
242443,2424.43
242524,2425.24
242607,2426.07
242686,2426.86
242765,2427.65
242842,2428.42
242927,2429.27
243012,2430.12
243093,2430.93
243176,2431.76
243258,2432.58
243339,2433.39
243417,2434.17
243497,2434.97
243577,2435.77
243656,2436.56
243736,2437.36
243818,2438.18
243900,2439.0
243980,2439.8
244061,2440.61
244143,2441.43
244222,2442.22
244301,2443.01
244383,2443.83
244466,2444.66
244547,2445.47
244627,2446.27
244709,2447.09
244792,2447.92
244872,2448.72
244951,2449.51
245030,2450.3
245110,2451.1
245191,2451.91
245270,2452.7
245348,2453.48
245428,2454.28
245507,2455.07
245586,2455.86
245662,2456.62
245739,2457.39
245818,2458.18
245896,2458.96
245972,2459.72
246049,2460.49
246129,2461.29
246207,2462.07
246284,2462.84
246360,2463.6
246438,2464.38
246517,2465.17
246594,2465.94
246671,2466.71
246749,2467.49
246829,2468.29
246907,2469.07
246984,2469.84
247062,2470.62
247141,2471.41
247220,2472.2
247297,2472.97
247377,2473.77
247459,2474.59
247541,2475.41
247622,2476.22
247705,2477.05
247791,2477.91
247877,2478.77
247958,2479.58
248040,2480.4
248122,2481.22
248203,2482.03
248285,2482.85
248365,2483.65
248448,2484.48
248532,2485.32
248614,2486.14
248694,2486.94
248774,2487.74
248854,2488.54
248936,2489.36
249016,2490.16
249095,2490.95
249173,2491.73
249252,2492.52
249333,2493.33
249414,2494.14
249493,2494.93
249571,2495.71
249651,2496.51
249731,2497.31
249809,2498.09
249892,2498.92
249974,2499.74
250058,2500.58
250142,2501.42
250224,2502.24
250305,2503.05
250386,2503.86
250466,2504.66
250547,2505.47
250629,2506.29
250712,2507.12
250791,2507.91
250868,2508.68
250945,2509.45
251023,2510.23
251100,2511.0
251176,2511.76
251254,2512.54
251332,2513.32
251411,2514.11
251493,2514.93
251574,2515.74
251655,2516.55
251735,2517.35
251818,2518.18
251901,2519.01
251982,2519.82
252061,2520.61
252142,2521.42
252223,2522.23
252305,2523.05
252384,2523.84
252464,2524.64
252546,2525.46
252630,2526.3
252711,2527.11
252790,2527.9
252870,2528.7
252953,2529.53
253034,2530.34
253114,2531.14
253195,2531.95
253276,2532.76
253357,2533.57
253437,2534.37
253520,2535.2
253604,2536.04
253688,2536.88
253770,2537.7
253850,2538.5
253931,2539.31
254015,2540.15
254100,2541.0
254183,2541.83
254265,2542.65
254351,2543.51
254437,2544.37
254519,2545.19
254600,2546.0
254680,2546.8
254761,2547.61
254845,2548.45
254927,2549.27
255007,2550.07
255086,2550.86
255167,2551.67
255250,2552.5
255331,2553.31
255411,2554.11
255489,2554.89
255569,2555.69
255649,2556.49
255729,2557.29
255807,2558.07
255886,2558.86
255967,2559.67
256045,2560.45
256123,2561.23
256207,2562.07
256287,2562.87
256366,2563.66
256445,2564.45
256525,2565.25
256605,2566.05
256682,2566.82
256762,2567.62
256842,2568.42
256921,2569.21
256997,2569.97
257075,2570.75
257156,2571.56
257235,2572.35
257312,2573.12
257390,2573.9
257470,2574.7
257548,2575.48
257625,2576.25
257707,2577.07
257790,2577.9
257871,2578.71
257951,2579.51
258034,2580.34
258121,2581.21
258202,2582.02
258283,2582.83
258368,2583.68
258455,2584.55
258538,2585.38
258622,2586.22
258711,2587.11
258797,2587.97
258878,2588.78
258958,2589.58
259042,2590.42
259127,2591.27
259210,2592.1
259293,2592.93
259381,2593.81
259466,2594.66
259549,2595.49
259633,2596.33
259718,2597.18
259801,2598.01
259881,2598.81
259962,2599.62
260047,2600.47
260133,2601.33
260219,2602.19
260302,2603.02
260383,2603.83
260462,2604.62
260541,2605.41
260622,2606.22
260704,2607.04
260785,2607.85
260866,2608.66
260948,2609.48
261031,2610.31
261110,2611.1
261191,2611.91
261276,2612.76
261360,2613.6
261440,2614.4
261521,2615.21
261604,2616.04
261685,2616.85
261764,2617.64
261846,2618.46
261928,2619.28
262010,2620.1
262089,2620.89
262170,2621.7
262252,2622.52
262333,2623.33
262412,2624.12
262494,2624.94
262577,2625.77
262655,2626.55
262734,2627.34
262816,2628.16
262896,2628.96
262974,2629.74
263055,2630.55
263136,2631.36
263214,2632.14
263292,2632.92
263374,2633.74
263455,2634.55
263535,2635.35
263614,2636.14
263696,2636.96
263778,2637.78
263857,2638.57
263935,2639.35
264015,2640.15
264095,2640.95
264172,2641.72
264250,2642.5
264330,2643.3
264409,2644.09
264486,2644.86
264565,2645.65
264646,2646.46
264725,2647.25
264803,2648.03
264880,2648.8
264960,2649.6
265040,2650.4
265119,2651.19
265196,2651.96
265275,2652.75
265356,2653.56
265436,2654.36
265517,2655.17
265600,2656.0
265685,2656.85
265767,2657.67
265846,2658.46
265926,2659.26
266008,2660.08
266091,2660.91
266172,2661.72
266251,2662.51
266332,2663.32
266416,2664.16
266499,2664.99
266580,2665.8
266659,2666.59
266743,2667.43
266829,2668.29
266914,2669.14
266997,2669.97
267082,2670.82
267165,2671.65
267247,2672.47
267329,2673.29
267411,2674.11
267493,2674.93
267575,2675.75
267660,2676.6
267742,2677.42
267821,2678.21
267901,2679.01
267986,2679.86
268069,2680.69
268149,2681.49
268230,2682.3
268314,2683.14
268398,2683.98
268478,2684.78
268557,2685.57
268636,2686.36
268715,2687.15
268793,2687.93
268871,2688.71
268947,2689.47
269028,2690.28
269112,2691.12
269192,2691.92
269272,2692.72
269356,2693.56
269442,2694.42
269525,2695.25
269607,2696.07
269691,2696.91
269773,2697.73
269854,2698.54
269936,2699.36
270023,2700.23
270110,2701.1
270194,2701.94
270276,2702.76
270360,2703.6
270442,2704.42
270522,2705.22
270603,2706.03
270687,2706.87
270774,2707.74
270856,2708.56
270938,2709.38
271023,2710.23
271106,2711.06
271187,2711.87
271268,2712.68
271356,2713.56
271444,2714.44
271528,2715.28
271609,2716.09
271688,2716.88
271769,2717.69
271850,2718.5
271929,2719.29
272007,2720.07
272086,2720.86
272166,2721.66
272245,2722.45
272323,2723.23
272402,2724.02
272485,2724.85
272565,2725.65
272645,2726.45
272725,2727.25
272808,2728.08
272888,2728.88
272967,2729.67
273046,2730.46
273130,2731.3
273212,2732.12
273292,2732.92
273369,2733.69
273449,2734.49
273532,2735.32
273611,2736.11
273690,2736.9
273767,2737.67
273847,2738.47
273930,2739.3
274010,2740.1
274089,2740.89
274167,2741.67
274249,2742.49
274330,2743.3
274409,2744.09
274486,2744.86
274568,2745.68
274648,2746.48
274726,2747.26
274805,2748.05
274891,2748.91
274974,2749.74
275055,2750.55
275133,2751.33
275214,2752.14
275294,2752.94
275372,2753.72
275451,2754.51
275533,2755.33
275615,2756.15
275695,2756.95
275772,2757.72
275851,2758.51
275932,2759.32
276011,2760.11
276088,2760.88
276166,2761.66
276248,2762.48
276328,2763.28
276406,2764.06
276484,2764.84
276566,2765.66
276647,2766.47
276727,2767.27
276804,2768.04
276885,2768.85
276967,2769.67
277048,2770.48
277126,2771.26
277204,2772.04
277285,2772.85
277368,2773.68
277448,2774.48
277527,2775.27
277604,2776.04
277682,2776.82
277761,2777.61
277837,2778.37
277912,2779.12
277989,2779.89
278067,2780.67
278144,2781.44
278220,2782.2
278298,2782.98
278381,2783.81
278462,2784.62
278541,2785.41
278622,2786.22
278704,2787.04
278785,2787.85
278865,2788.65
278946,2789.46
279028,2790.28
279112,2791.12
279194,2791.94
279274,2792.74
279354,2793.54
279438,2794.38
279521,2795.21
279603,2796.03
279683,2796.83
279766,2797.66
279849,2798.49
279930,2799.3
280009,2800.09
280089,2800.89
280171,2801.71
280254,2802.54
280335,2803.35
280417,2804.17
280500,2805.0
280585,2805.85
280665,2806.65
280742,2807.42
280820,2808.2
280900,2809.0
280979,2809.79
281057,2810.57
281134,2811.34
281213,2812.13
281296,2812.96
281380,2813.8
281459,2814.59
281540,2815.4
281622,2816.22
281702,2817.02
281780,2817.8
281860,2818.6
281943,2819.43
282024,2820.24
282104,2821.04
282183,2821.83
282263,2822.63
282344,2823.44
282423,2824.23
282500,2825.0
282578,2825.78
282659,2826.59
282738,2827.38
282815,2828.15
282892,2828.92
282976,2829.76
283057,2830.57
283136,2831.36
283216,2832.16
283302,2833.02
283388,2833.88
283467,2834.67
283546,2835.46
283623,2836.23
283701,2837.01
283781,2837.81
283860,2838.6
283937,2839.37
284015,2840.15
284098,2840.98
284179,2841.79
284258,2842.58
284335,2843.35
284418,2844.18
284501,2845.01
284581,2845.81
284660,2846.6
284741,2847.41
284825,2848.25
284909,2849.09
284989,2849.89
285070,2850.7
285154,2851.54
285239,2852.39
285319,2853.19
285399,2853.99
285481,2854.81
285564,2855.64
285644,2856.44
285723,2857.23
285802,2858.02
285883,2858.83
285965,2859.65
286046,2860.46
286124,2861.24
286202,2862.02
286281,2862.81
286359,2863.59
286437,2864.37
286512,2865.12
286587,2865.87
286664,2866.64
286741,2867.41
286818,2868.18
286893,2868.93
286971,2869.71
287050,2870.5
287128,2871.28
287205,2872.05
287280,2872.8
287356,2873.56
287434,2874.34
287510,2875.1
287586,2875.86
287662,2876.62
287738,2877.38
287815,2878.15
287889,2878.89
287963,2879.63
288038,2880.38
288112,2881.12
288184,2881.84
288258,2882.58
288330,2883.3
288403,2884.03
288475,2884.75
288548,2885.48
288623,2886.23
288699,2886.99
288776,2887.76
288853,2888.53
288933,2889.33
289016,2890.16
289097,2890.97
289176,2891.76
289260,2892.6
289343,2893.43
289427,2894.27
289508,2895.08
289590,2895.9
289672,2896.72
289754,2897.54
289833,2898.33
289913,2899.13
289995,2899.95
290077,2900.77
290158,2901.58
290235,2902.35
290314,2903.14
290393,2903.93
290470,2904.7
290545,2905.45
290620,2906.2
290699,2906.99
290778,2907.78
290855,2908.55
290934,2909.34
291016,2910.16
291097,2910.97
291176,2911.76
291255,2912.55
291334,2913.34
291414,2914.14
291492,2914.92
291569,2915.69
291650,2916.5
291730,2917.3
291808,2918.08
291889,2918.89
291970,2919.7
292050,2920.5
292128,2921.28
292207,2922.07
292289,2922.89
292375,2923.75
292458,2924.58
292541,2925.41
292622,2926.22
292705,2927.05
292785,2927.85
292864,2928.64
292945,2929.45
293027,2930.27
293107,2931.07
293185,2931.85
293260,2932.6
293335,2933.35
293413,2934.13
293490,2934.9
293566,2935.66
293644,2936.44
293726,2937.26
293806,2938.06
293885,2938.85
293969,2939.69
294055,2940.55
294138,2941.38
294225,2942.25
294310,2943.1
294392,2943.92
294477,2944.77
294561,2945.61
294645,2946.45
294726,2947.26
294805,2948.05
294885,2948.85
294968,2949.68
295049,2950.49
295131,2951.31
295218,2952.18
295306,2953.06
295387,2953.87
295466,2954.66
295543,2955.43
295621,2956.21
295698,2956.98
295775,2957.75
295851,2958.51
295930,2959.3
296012,2960.12
296093,2960.93
296171,2961.71
296248,2962.48
296327,2963.27
296407,2964.07
296486,2964.86
296566,2965.66
296655,2966.55
296740,2967.4
296823,2968.23
296906,2969.06
296992,2969.92
297077,2970.77
297159,2971.59
297239,2972.39
297321,2973.21
297407,2974.07
297490,2974.9
297571,2975.71
297651,2976.51
297735,2977.35
297820,2978.2
297902,2979.02
297982,2979.82
298064,2980.64
298145,2981.45
298227,2982.27
298306,2983.06
298385,2983.85
298467,2984.67
298551,2985.51
298632,2986.32
298713,2987.13
298795,2987.95
298877,2988.77
298959,2989.59
299037,2990.37
299116,2991.16
299198,2991.98
299280,2992.8
299360,2993.6
299442,2994.42
299524,2995.24
299605,2996.05
299683,2996.83
299760,2997.6
299840,2998.4
299918,2999.18
299994,2999.94
300069,3000.69
300148,3001.48
300228,3002.28
300306,3003.06
300384,3003.84
300466,3004.66
300552,3005.52
300635,3006.35
300715,3007.15
300798,3007.98
300880,3008.8
300961,3009.61
301042,3010.42
301131,3011.31
301216,3012.16
301299,3012.99
301385,3013.85
301471,3014.71
301554,3015.54
301638,3016.38
301723,3017.23
301808,3018.08
301892,3018.92
301972,3019.72
302055,3020.55
302144,3021.44
302229,3022.29
302311,3023.11
302392,3023.92
302474,3024.74
302559,3025.59
302641,3026.41
302720,3027.2
302799,3027.99
302877,3028.77
302954,3029.54
303029,3030.29
303104,3031.04
303185,3031.85
303266,3032.66
303347,3033.47
303437,3034.37
303527,3035.27
303611,3036.11
303693,3036.93
303775,3037.75
303856,3038.56
303938,3039.38
304018,3040.18
304102,3041.02
304186,3041.86
304266,3042.66
304345,3043.45
304429,3044.29
304511,3045.11
304591,3045.91
304671,3046.71
304754,3047.54
304836,3048.36
304916,3049.16
304993,3049.93
305069,3050.69
305148,3051.48
305226,3052.26
305303,3053.03
305381,3053.81
305467,3054.67
305550,3055.5
305632,3056.32
305716,3057.16
305803,3058.03
305885,3058.85
305967,3059.67
306048,3060.48
306131,3061.31
306212,3062.12
306291,3062.91
306372,3063.72
306456,3064.56
306541,3065.41
306621,3066.21
306700,3067.0
306780,3067.8
306862,3068.62
306942,3069.42
307021,3070.21
307101,3071.01
307184,3071.84
307265,3072.65
307344,3073.44
307422,3074.22
307504,3075.04
307585,3075.85
307665,3076.65
307742,3077.42
307824,3078.24
307907,3079.07
307987,3079.87
308066,3080.66
308149,3081.49
308232,3082.32
308312,3083.12
308392,3083.92
308476,3084.76
308561,3085.61
308642,3086.42
308721,3087.21
308804,3088.04
308889,3088.89
308969,3089.69
309048,3090.48
309130,3091.3
309215,3092.15
309296,3092.96
309377,3093.77
309457,3094.57
309541,3095.41
309627,3096.27
309708,3097.08
309788,3097.88
309866,3098.66
309946,3099.46
310025,3100.25
310102,3101.02
310177,3101.77
310254,3102.54
310333,3103.33
310412,3104.12
310488,3104.88
310573,3105.73
310659,3106.59
310747,3107.47
310829,3108.29
310911,3109.11
310994,3109.94
311076,3110.76
311157,3111.57
311238,3112.38
311319,3113.19
311398,3113.98
311476,3114.76
311558,3115.58
311639,3116.39
311718,3117.18
311795,3117.95
311871,3118.71
311948,3119.48
312025,3120.25
312100,3121.0
312174,3121.74
312249,3122.49
312329,3123.29
312407,3124.07
312484,3124.84
312567,3125.67
312650,3126.5
312731,3127.31
312816,3128.16
312905,3129.05
312988,3129.88
313071,3130.71
313152,3131.52
313235,3132.35
313317,3133.17
313396,3133.96
313476,3134.76
313558,3135.58
313641,3136.41
313721,3137.21
313801,3138.01
313883,3138.83
313966,3139.66
314047,3140.47
314126,3141.26
314208,3142.08
314294,3142.94
314378,3143.78
314460,3144.6
314540,3145.4
314623,3146.23
314704,3147.04
314783,3147.83
314864,3148.64
314947,3149.47
315029,3150.29
315109,3151.09
315186,3151.86
315264,3152.64
315346,3153.46
315426,3154.26
315503,3155.03
315582,3155.82
315666,3156.66
315748,3157.48
315828,3158.28
315905,3159.05
315987,3159.87
316069,3160.69
316148,3161.48
316225,3162.25
316300,3163.0
316377,3163.77
316453,3164.53
316528,3165.28
316603,3166.03
316683,3166.83
316763,3167.63
316842,3168.42
316921,3169.21
317007,3170.07
317089,3170.89
317170,3171.7
317249,3172.49
317332,3173.32
317412,3174.12
317491,3174.91
317569,3175.69
317654,3176.54
317736,3177.36
317818,3178.18
317898,3178.98
317981,3179.81
318062,3180.62
318141,3181.41
318221,3182.21
318305,3183.05
318385,3183.85
318463,3184.63
318539,3185.39
318613,3186.13
318689,3186.89
318765,3187.65
318840,3188.4
318914,3189.14
318992,3189.92
319071,3190.71
319150,3191.5
319229,3192.29
319305,3193.05
319383,3193.83
319464,3194.64
319543,3195.43
319620,3196.2
319698,3196.98
319780,3197.8
319861,3198.61
319941,3199.41
320021,3200.21
320103,3201.03
320185,3201.85
320264,3202.64
320343,3203.43
320424,3204.24
320505,3205.05
320585,3205.85
320667,3206.67
320755,3207.55
320840,3208.4
320921,3209.21
321003,3210.03
321087,3210.87
321172,3211.72
321253,3212.53
321334,3213.34
321414,3214.14
321496,3214.96
321575,3215.75
321653,3216.53
321730,3217.3
321816,3218.16
321903,3219.03
321985,3219.85
322064,3220.64
322142,3221.42
322219,3222.19
322296,3222.96
322370,3223.7
322444,3224.44
322521,3225.21
322597,3225.97
322672,3226.72
322748,3227.48
322825,3228.25
322907,3229.07
322989,3229.89
323071,3230.71
323152,3231.52
323231,3232.31
323311,3233.11
323394,3233.94
323476,3234.76
323554,3235.54
323633,3236.33
323713,3237.13
323791,3237.91
323870,3238.7
323951,3239.51
324032,3240.32
324110,3241.1
324192,3241.92
324276,3242.76
324359,3243.59
324439,3244.39
324519,3245.19
324602,3246.02
324686,3246.86
324771,3247.71
324857,3248.57
324939,3249.39
325023,3250.23
325106,3251.06
325191,3251.91
325274,3252.74
325357,3253.57
325442,3254.42
325526,3255.26
325607,3256.07
325687,3256.87
325767,3257.67
325849,3258.49
325931,3259.31
326011,3260.11
326088,3260.88
326168,3261.68
326252,3262.52
326332,3263.32
326410,3264.1
326492,3264.92
326575,3265.75
326654,3266.54
326730,3267.3
326807,3268.07
326887,3268.87
326967,3269.67
327045,3270.45
327126,3271.26
327207,3272.07
327285,3272.85
327367,3273.67
327452,3274.52
327533,3275.33
327612,3276.12
327693,3276.93
327774,3277.74
327852,3278.52
327929,3279.29
328012,3280.12
328094,3280.94
328173,3281.73
328251,3282.51
328330,3283.3
328408,3284.08
328485,3284.85
328560,3285.6
328635,3286.35
328713,3287.13
328789,3287.89
328864,3288.64
328941,3289.41
329022,3290.22
329104,3291.04
329184,3291.84
329262,3292.62
329343,3293.43
329427,3294.27
329508,3295.08
329588,3295.88
329668,3296.68
329753,3297.53
329835,3298.35
329913,3299.13
329992,3299.92
330076,3300.76
330159,3301.59
330238,3302.38
330320,3303.2
330405,3304.05
330486,3304.86
330565,3305.65
330646,3306.46
330730,3307.3
330813,3308.13
330895,3308.95
330974,3309.74
331050,3310.5
331133,3311.33
331216,3312.16
331297,3312.97
331377,3313.77
331461,3314.61
331542,3315.42
331620,3316.2
331699,3316.99
331782,3317.82
331863,3318.63
331943,3319.43
332021,3320.21
332104,3321.04
332185,3321.85
332264,3322.64
332344,3323.44
332426,3324.26
332507,3325.07
332587,3325.87
332673,3326.73
332758,3327.58
332839,3328.39
332919,3329.19
333001,3330.01
333085,3330.85
333165,3331.65
333242,3332.42
333320,3333.2
333399,3333.99
333480,3334.8
333558,3335.58
333634,3336.34
333709,3337.09
333789,3337.89
333868,3338.68
333945,3339.45
334027,3340.27
334116,3341.16
334200,3342.0
334281,3342.81
334360,3343.6
334441,3344.41
334521,3345.21
334600,3346.0
334677,3346.77
334758,3347.58
334838,3348.38
334915,3349.15
334993,3349.93
335071,3350.71
335148,3351.48
335225,3352.25
335298,3352.98
335372,3353.72
335449,3354.49
335524,3355.24
335597,3355.97
335674,3356.74
335756,3357.56
335838,3358.38
335918,3359.18
336002,3360.02
336086,3360.86
336166,3361.66
336247,3362.47
336328,3363.28
336408,3364.08
336486,3364.86
336564,3365.64
336646,3366.46
336728,3367.28
336807,3368.07
336889,3368.89
336974,3369.74
337056,3370.56
337135,3371.35
337213,3372.13
337292,3372.92
337372,3373.72
337451,3374.51
337529,3375.29
337606,3376.06
337684,3376.84
337764,3377.64
337843,3378.43
337921,3379.21
338000,3380.0
338082,3380.82
338164,3381.64
338244,3382.44
338322,3383.22
338404,3384.04
338484,3384.84
338563,3385.63
338640,3386.4
338719,3387.19
338802,3388.02
338883,3388.83
338961,3389.61
339040,3390.4
339121,3391.21
339200,3392.0
339278,3392.78
339354,3393.54
339432,3394.32
339511,3395.11
339588,3395.88
339663,3396.63
339737,3397.37
339814,3398.14
339890,3398.9
339968,3399.68
340056,3400.56
340145,3401.45
340228,3402.28
340309,3403.09
340391,3403.91
340472,3404.72
340551,3405.51
340633,3406.33
340717,3407.17
340798,3407.98
340877,3408.77
340957,3409.57
341040,3410.4
341120,3411.2
341197,3411.97
341276,3412.76
341358,3413.58
341438,3414.38
341517,3415.17
341592,3415.92
341669,3416.69
341750,3417.5
341832,3418.32
341911,3419.11
341992,3419.92
342080,3420.8
342163,3421.63
342244,3422.44
342323,3423.23
342406,3424.06
342489,3424.89
342570,3425.7
342650,3426.5
342734,3427.34
342817,3428.17
342896,3428.96
342974,3429.74
343056,3430.56
343136,3431.36
343215,3432.15
343291,3432.91
343368,3433.68
343446,3434.46
343524,3435.24
343601,3436.01
343680,3436.8
343766,3437.66
343847,3438.47
343926,3439.26
344004,3440.04
344086,3440.86
344167,3441.67
344245,3442.45
344322,3443.22
344403,3444.03
344484,3444.84
344563,3445.63
344639,3446.39
344714,3447.14
344791,3447.91
344870,3448.7
344947,3449.47
345023,3450.23
345100,3451.0
345180,3451.8
345259,3452.59
345336,3453.36
345415,3454.15
345498,3454.98
345577,3455.77
345655,3456.55
345733,3457.33
345815,3458.15
345896,3458.96
345974,3459.74
346051,3460.51
346130,3461.3
346213,3462.13
346293,3462.93
346369,3463.69
346447,3464.47
346530,3465.3
346610,3466.1
346687,3466.87
346764,3467.64
346844,3468.44
346926,3469.26
347004,3470.04
347079,3470.79
347154,3471.54
347232,3472.32
347311,3473.11
347389,3473.89
347465,3474.65
347543,3475.43
347626,3476.26
347706,3477.06
347784,3477.84
347862,3478.62
347945,3479.45
348026,3480.26
348105,3481.05
348182,3481.82
348263,3482.63
348344,3483.44
348424,3484.24
348501,3485.01
348577,3485.77
348655,3486.55
348731,3487.31
348806,3488.06
348878,3488.78
348952,3489.52
349027,3490.27
349101,3491.01
349174,3491.74
349249,3492.49
349329,3493.29
349407,3494.07
349484,3494.84
349568,3495.68
349653,3496.53
349731,3497.31
349809,3498.09
349895,3498.95
349977,3499.77
350056,3500.56
350133,3501.33
350211,3502.11
350291,3502.91
350370,3503.7
350447,3504.47
350527,3505.27
350610,3506.1
350689,3506.89
350767,3507.67
350842,3508.42
350918,3509.18
350997,3509.97
351076,3510.76
351152,3511.52
351230,3512.3
351312,3513.12
351393,3513.93
351471,3514.71
351548,3515.48
351629,3516.29
351710,3517.1
351789,3517.89
351866,3518.66
351946,3519.46
352028,3520.28
352107,3521.07
352184,3521.84
352261,3522.61
352340,3523.4
352417,3524.17
352492,3524.92
352568,3525.68
352643,3526.43
352717,3527.17
352789,3527.89
352865,3528.65
352949,3529.49
353029,3530.29
353108,3531.08
353187,3531.87
353269,3532.69
353355,3533.55
353435,3534.35
353515,3535.15
353596,3535.96
353680,3536.8
353763,3537.63
353841,3538.41
353919,3539.19
354003,3540.03
354084,3540.84
354163,3541.63
354241,3542.41
354323,3543.23
354406,3544.06
354487,3544.87
354567,3545.67
354651,3546.51
354731,3547.31
354813,3548.13
354899,3548.99
354985,3549.85
355065,3550.65
355147,3551.47
355227,3552.27
355306,3553.06
355384,3553.84
355463,3554.63
355544,3555.44
355625,3556.25
355704,3557.04
355780,3557.8
355859,3558.59
355941,3559.41
356021,3560.21
356099,3560.99
356177,3561.77
356257,3562.57
356335,3563.35
356410,3564.1
356484,3564.84
356560,3565.6
356635,3566.35
356708,3567.08
356784,3567.84
356863,3568.63
356942,3569.42
357021,3570.21
357109,3571.09
357193,3571.93
357274,3572.74
357357,3573.57
357446,3574.46
357535,3575.35
357618,3576.18
357700,3577.0
357784,3577.84
357868,3578.68
357949,3579.49
358028,3580.28
358109,3581.09
358189,3581.89
358267,3582.67
358344,3583.44
358425,3584.25
358505,3585.05
358582,3585.82
358657,3586.57
358730,3587.3
358804,3588.04
358880,3588.8
358956,3589.56
359031,3590.31
359110,3591.1
359196,3591.96
359278,3592.78
359357,3593.57
359443,3594.43
359531,3595.31
359615,3596.15
359697,3596.97
359782,3597.82
359867,3598.67
359948,3599.48
360028,3600.28
360109,3601.09
360194,3601.94
360275,3602.75
360356,3603.56
360438,3604.38
360518,3605.18
360596,3605.96
360670,3606.7
360746,3607.46
360821,3608.21
360896,3608.96
360968,3609.68
361041,3610.41
361120,3611.2
361198,3611.98
361274,3612.74
361354,3613.54
361441,3614.41
361523,3615.23
361604,3616.04
361686,3616.86
361768,3617.68
361849,3618.49
361928,3619.28
362014,3620.14
362096,3620.96
362176,3621.76
362257,3622.57
362341,3623.41
362422,3624.22
362502,3625.02
362579,3625.79
362659,3626.59
362738,3627.38
362815,3628.15
362889,3628.89
362965,3629.65
363042,3630.42
363116,3631.16
363188,3631.88
363261,3632.61
363339,3633.39
363420,3634.2
363498,3634.98
363576,3635.76
363660,3636.6
363744,3637.44
363824,3638.24
363905,3639.05
363991,3639.91
364073,3640.73
364153,3641.53
364236,3642.36
364326,3643.26
364412,3644.12
364495,3644.95
364578,3645.78
364665,3646.65
364747,3647.47
364827,3648.27
364906,3649.06
364985,3649.85
365064,3650.64
365141,3651.41
365217,3652.17
365295,3652.95
365380,3653.8
365463,3654.63
365544,3655.44
365622,3656.22
365708,3657.08
365797,3657.97
365880,3658.8
365960,3659.6
366046,3660.46
366130,3661.3
366214,3662.14
366294,3662.94
366372,3663.72
366452,3664.52
366536,3665.36
366616,3666.16
366695,3666.95
366773,3667.73
366853,3668.53
366930,3669.3
367006,3670.06
367080,3670.8
367155,3671.55
367230,3672.3
367304,3673.04
367376,3673.76
367452,3674.52
367544,3675.44
367636,3676.36
367721,3677.21
367808,3678.08
367896,3678.96
367979,3679.79
368061,3680.61
368143,3681.43
368226,3682.26
368306,3683.06
368387,3683.87
368469,3684.69
368550,3685.5
368628,3686.28
368707,3687.07
368789,3687.89
368869,3688.69
368945,3689.45
369020,3690.2
369099,3690.99
369177,3691.77
369253,3692.53
369327,3693.27
369408,3694.08
369494,3694.94
369575,3695.75
369655,3696.55
369743,3697.43
369830,3698.3
369912,3699.12
369994,3699.94
370079,3700.79
370161,3701.61
370241,3702.41
370318,3703.18
370398,3703.98
370482,3704.82
370566,3705.66
370645,3706.45
370724,3707.24
370808,3708.08
370890,3708.9
370969,3709.69
371045,3710.45
371121,3711.21
371198,3711.98
371275,3712.75
371350,3713.5
371427,3714.27
371511,3715.11
371596,3715.96
371677,3716.77
371756,3717.56
371840,3718.4
371920,3719.2
371999,3719.99
372077,3720.77
372160,3721.6
372243,3722.43
372323,3723.23
372401,3724.01
372480,3724.8
372560,3725.6
372638,3726.38
372715,3727.15
372794,3727.94
372874,3728.74
372952,3729.52
373028,3730.28
373102,3731.02
373178,3731.78
373255,3732.55
373329,3733.29
373403,3734.03
373484,3734.84
373564,3735.64
373641,3736.41
373720,3737.2
373802,3738.02
373883,3738.83
373960,3739.6
374040,3740.4
374121,3741.21
374200,3742.0
374278,3742.78
374353,3743.53
374432,3744.32
374516,3745.16
374596,3745.96
374676,3746.76
374752,3747.52
374830,3748.3
374906,3749.06
374981,3749.81
375054,3750.54
375128,3751.28
375207,3752.07
375287,3752.87
375363,3753.63
375442,3754.42
375527,3755.27
375609,3756.09
375689,3756.89
375766,3757.66
375845,3758.45
375925,3759.25
376003,3760.03
376079,3760.79
376153,3761.53
376229,3762.29
376306,3763.06
376381,3763.81
376454,3764.54
376530,3765.3
376611,3766.11
376690,3766.9
376768,3767.68
376851,3768.51
376933,3769.33
377012,3770.12
377090,3770.9
377172,3771.72
377256,3772.56
377337,3773.37
377416,3774.16
377494,3774.94
377578,3775.78
377660,3776.6
377740,3777.4
377818,3778.18
377897,3778.97
377981,3779.81
378061,3780.61
378139,3781.39
378215,3782.15
378289,3782.89
378365,3783.65
378440,3784.4
378514,3785.14
378586,3785.86
378659,3786.59
378734,3787.34
378813,3788.13
378891,3788.91
378966,3789.66
379049,3790.49
379133,3791.33
379219,3792.19
379300,3793.0
379382,3793.82
379467,3794.67
379548,3795.48
379628,3796.28
379710,3797.1
379793,3797.93
379874,3798.74
379953,3799.53
380034,3800.34
380115,3801.15
380194,3801.94
380271,3802.71
380349,3803.49
380428,3804.28
380506,3805.06
380583,3805.83
380659,3806.59
380736,3807.36
380819,3808.19
380899,3808.99
380979,3809.79
381063,3810.63
381144,3811.44
381223,3812.23
381300,3813.0
381380,3813.8
381461,3814.61
381540,3815.4
381617,3816.17
381695,3816.95
381777,3817.77
381857,3818.57
381935,3819.35
382016,3820.16
382099,3820.99
382182,3821.82
382261,3822.61
382337,3823.37
382415,3824.15
382496,3824.96
382576,3825.76
382653,3826.53
382728,3827.28
382806,3828.06
382887,3828.87
382965,3829.65
383041,3830.41
383114,3831.14
383189,3831.89
383265,3832.65
383338,3833.38
383411,3834.11
383489,3834.89
383566,3835.66
383642,3836.42
383721,3837.21
383806,3838.06
383888,3838.88
383968,3839.68
384048,3840.48
384131,3841.31
384214,3842.14
384294,3842.94
384374,3843.74
384449,3844.49
384525,3845.25
384610,3846.1
384695,3846.95
384777,3847.77
384859,3848.59
384939,3849.39
385017,3850.17
385094,3850.94
385170,3851.7
385248,3852.48
385325,3853.25
385399,3853.99
385477,3854.77
385558,3855.58
385636,3856.36
385713,3857.13
385794,3857.94
385875,3858.75
385953,3859.53
386030,3860.3
386109,3861.09
386190,3861.9
386269,3862.69
386347,3863.47
386425,3864.25
386504,3865.04
386582,3865.82
386658,3866.58
386737,3867.37
386819,3868.19
386899,3868.99
386976,3869.76
387051,3870.51
387127,3871.27
387202,3872.02
387276,3872.76
387350,3873.5
387431,3874.31
387511,3875.11
387589,3875.89
387667,3876.67
387751,3877.51
387832,3878.32
387911,3879.11
387989,3879.89
388074,3880.74
388160,3881.6
388241,3882.41
388320,3883.2
388401,3884.01
388489,3884.89
388572,3885.72
388652,3886.52
388732,3887.32
388814,3888.14
388894,3888.94
388974,3889.74
389049,3890.49
389125,3891.25
389201,3892.01
389277,3892.77
389349,3893.49
389420,3894.2
389494,3894.94
389567,3895.67
389639,3896.39
389710,3897.1
389786,3897.86
389865,3898.65
389943,3899.43
390019,3900.19
390097,3900.97
390177,3901.77
390257,3902.57
390333,3903.33
390414,3904.14
390496,3904.96
390575,3905.75
390655,3906.55
390737,3907.37
390820,3908.2
390899,3908.99
390976,3909.76
391055,3910.55
391135,3911.35
391215,3912.15
391292,3912.92
391365,3913.65
391438,3914.38
391513,3915.13
391586,3915.86
391658,3916.58
391732,3917.32
391810,3918.1
391891,3918.91
391971,3919.71
392046,3920.46
392124,3921.24
392207,3922.07
392289,3922.89
392368,3923.68
392455,3924.55
392543,3925.43
392633,3926.33
392717,3927.17
392801,3928.01
392885,3928.85
392966,3929.66
393045,3930.45
393126,3931.26
393209,3932.09
393290,3932.9
393369,3933.69
393447,3934.47
393529,3935.29
393612,3936.12
393692,3936.92
393769,3937.69
393848,3938.48
393930,3939.3
394009,3940.09
394086,3940.86
394160,3941.6
394235,3942.35
394312,3943.12
394388,3943.88
394462,3944.62
394537,3945.37
394616,3946.16
394695,3946.95
394773,3947.73
394851,3948.51
394933,3949.33
395016,3950.16
395097,3950.97
395173,3951.73
395253,3952.53
395337,3953.37
395417,3954.17
395495,3954.95
395575,3955.75
395658,3956.58
395740,3957.4
395822,3958.22
395899,3958.99
395975,3959.75
396054,3960.54
396133,3961.33
396210,3962.1
396284,3962.84
396358,3963.58
396434,3964.34
396511,3965.11
396585,3965.85
396659,3966.59
396738,3967.38
396820,3968.2
396898,3968.98
396975,3969.75
397056,3970.56
397135,3971.35
397212,3972.12
397290,3972.9
397375,3973.75
397457,3974.57
397536,3975.36
397614,3976.14
397698,3976.98
397779,3977.79
397859,3978.59
397936,3979.36
398016,3980.16
398098,3980.98
398178,3981.78
398255,3982.55
398331,3983.31
398407,3984.07
398488,3984.88
398568,3985.68
398647,3986.47
398723,3987.23
398800,3988.0
398878,3988.78
398955,3989.55
399031,3990.31
399110,3991.1
399189,3991.89
399267,3992.67
399344,3993.44
399426,3994.26
399509,3995.09
399590,3995.9
399668,3996.68
399748,3997.48
399828,3998.28
399906,3999.06
399981,3999.81
400060,4000.6
400142,4001.42
400222,4002.22
400298,4002.98
400378,4003.78
400461,4004.61
400541,4005.41
400618,4006.18
400697,4006.97
400776,4007.76
400852,4008.52
400928,4009.28
401001,4010.01
401074,4010.74
401149,4011.49
401223,4012.23
401295,4012.95
401369,4013.69
401448,4014.48
401528,4015.28
401607,4016.07
401684,4016.84
401768,4017.68
401852,4018.52
401934,4019.34
402014,4020.14
402098,4020.98
402180,4021.8
402260,4022.6
402341,4023.41
402427,4024.27
402508,4025.08
402587,4025.87
402666,4026.66
402748,4027.48
402828,4028.28
402906,4029.06
402982,4029.82
403059,4030.59
403137,4031.37
403215,4032.15
403291,4032.91
403365,4033.65
403438,4034.38
403517,4035.17
403595,4035.95
403677,4036.77
403755,4037.55
403835,4038.35
403924,4039.24
404014,4040.14
404098,4040.98
404182,4041.82
404266,4042.66
404346,4043.46
404424,4044.24
404504,4045.04
404586,4045.86
404668,4046.68
404746,4047.46
404825,4048.25
404906,4049.06
404985,4049.85
405062,4050.62
405142,4051.42
405222,4052.22
405300,4053.0
405376,4053.76
405449,4054.49
405523,4055.23
405600,4056.0
405675,4056.75
405748,4057.48
405820,4058.2
405899,4058.99
405980,4059.8
406059,4060.59
406138,4061.38
406221,4062.21
406305,4063.05
406385,4063.85
406463,4064.63
406544,4065.44
406629,4066.29
406710,4067.1
406789,4067.89
406869,4068.69
406951,4069.51
407033,4070.33
407110,4071.1
407190,4071.9
407270,4072.7
407352,4073.52
407432,4074.32
407508,4075.08
407584,4075.84
407659,4076.59
407736,4077.36
407814,4078.14
407889,4078.89
407968,4079.68
408045,4080.45
408126,4081.26
408203,4082.03
408282,4082.82
408363,4083.63
408444,4084.44
408522,4085.22
408597,4085.97
408676,4086.76
408757,4087.57
408837,4088.37
408916,4089.16
408993,4089.93
409075,4090.75
409159,4091.59
409240,4092.4
409319,4093.19
409398,4093.98
409483,4094.83
409565,4095.65
409644,4096.44
409720,4097.2
409795,4097.95
409871,4098.71
409946,4099.46
410019,4100.19
410092,4100.92
410171,4101.71
410253,4102.53
410332,4103.32
410409,4104.09
410488,4104.88
410572,4105.72
410653,4106.53
410733,4107.33
410811,4108.11
410893,4108.93
410975,4109.75
411055,4110.55
411135,4111.35
411217,4112.17
411301,4113.01
411383,4113.83
411462,4114.62
411542,4115.42
411626,4116.26
411707,4117.07
411786,4117.86
411861,4118.61
411937,4119.37
412014,4120.14
412090,4120.9
412162,4121.62
412235,4122.35
412311,4123.11
412391,4123.91
412469,4124.69
412545,4125.45
412624,4126.24
412711,4127.11
412793,4127.93
412872,4128.72
412954,4129.54
413036,4130.36
413116,4131.16
413194,4131.94
413272,4132.72
413354,4133.54
413433,4134.33
413511,4135.11
413587,4135.87
413669,4136.69
413756,4137.56
413839,4138.39
413922,4139.22
414002,4140.02
414081,4140.81
414159,4141.59
414235,4142.35
414308,4143.08
414384,4143.84
414467,4144.67
414549,4145.49
414628,4146.28
414706,4147.06
414789,4147.89
414876,4148.76
414957,4149.57
415037,4150.37
415118,4151.18
415201,4152.01
415283,4152.83
415363,4153.63
415441,4154.41
415524,4155.24
415607,4156.07
415688,4156.88
415765,4157.65
415844,4158.44
415928,4159.28
416008,4160.08
416087,4160.87
416162,4161.62
416238,4162.38
416314,4163.14
416389,4163.89
416462,4164.62
416536,4165.36
416616,4166.16
416698,4166.98
416778,4167.78
416856,4168.56
416935,4169.35
417020,4170.2
417100,4171.0
417178,4171.78
417258,4172.58
417340,4173.4
417420,4174.2
417499,4174.99
417577,4175.77
417658,4176.58
417744,4177.44
417824,4178.24
417903,4179.03
417980,4179.8
418059,4180.59
418139,4181.39
418217,4182.17
418294,4182.94
418368,4183.68
418442,4184.42
418519,4185.19
418595,4185.95
418670,4186.7
418749,4187.49
418838,4188.38
418924,4189.24
419006,4190.06
419087,4190.87
419173,4191.73
419256,4192.56
419336,4193.36
419415,4194.15
419497,4194.97
419580,4195.8
419662,4196.62
419741,4197.41
419819,4198.19
419903,4199.03
419985,4199.85
420064,4200.64
420141,4201.41
420218,4202.18
420295,4202.95
420372,4203.72
420445,4204.45
420518,4205.18
420594,4205.94
420668,4206.68
420744,4207.44
420819,4208.19
420896,4208.96
420973,4209.73
421050,4210.5
421130,4211.3
421212,4212.12
421291,4212.91
421371,4213.71
421456,4214.56
421539,4215.39
421619,4216.19
421700,4217.0
421783,4217.83
421867,4218.67
421948,4219.48
422027,4220.27
422107,4221.07
422190,4221.9
422274,4222.74
422355,4223.55
422433,4224.33
422516,4225.16
422598,4225.98
422679,4226.79
422758,4227.58
422834,4228.34
422909,4229.09
422986,4229.86
423063,4230.63
423138,4231.38
423216,4232.16
423300,4233.0
423380,4233.8
423459,4234.59
423541,4235.41
423626,4236.26
423707,4237.07
423787,4237.87
423869,4238.69
423951,4239.51
424032,4240.32
424109,4241.09
424192,4241.92
424275,4242.75
424355,4243.55
424433,4244.33
424516,4245.16
424598,4245.98
424677,4246.77
424754,4247.54
424830,4248.3
424909,4249.09
424986,4249.86
425062,4250.62
425136,4251.36
425213,4252.13
425291,4252.91
425368,4253.68
425442,4254.42
425518,4255.18
425596,4255.96
425671,4256.71
425744,4257.44
425822,4258.22
425906,4259.06
425986,4259.86
426066,4260.66
426146,4261.46
426231,4262.31
426313,4263.13
426393,4263.93
426473,4264.73
426551,4265.51
426634,4266.34
426718,4267.18
426799,4267.99
426886,4268.86
426973,4269.73
427055,4270.55
427135,4271.35
427214,4272.14
427289,4272.89
427366,4273.66
427450,4274.5
427534,4275.34
427616,4276.16
427697,4276.97
427782,4277.82
427868,4278.68
427953,4279.53
428035,4280.35
428114,4281.14
428192,4281.92
428279,4282.79
428367,4283.67
428451,4284.51
428533,4285.33
428614,4286.14
428693,4286.93
428772,4287.72
428850,4288.5
428925,4289.25
428999,4289.99
429073,4290.73
429150,4291.5
429228,4292.28
429305,4293.05
429391,4293.91
429482,4294.82
429568,4295.68
429651,4296.51
429733,4297.33
429815,4298.15
429894,4298.94
429973,4299.73
430051,4300.51
430128,4301.28
430209,4302.09
430295,4302.95
430378,4303.78
430459,4304.59
430542,4305.42
430627,4306.27
430708,4307.08
430788,4307.88
430870,4308.7
430953,4309.53
431033,4310.33
431110,4311.1
431184,4311.84
431260,4312.6
431337,4313.37
431413,4314.13
431486,4314.86
431562,4315.62
431642,4316.42
431725,4317.25
431805,4318.05
431885,4318.85
431968,4319.68
432052,4320.52
432134,4321.34
432215,4322.15
432298,4322.98
432381,4323.81
432462,4324.62
432541,4325.41
432625,4326.25
432711,4327.11
432792,4327.92
432872,4328.72
432951,4329.51
433032,4330.32
433111,4331.11
433187,4331.87
433262,4332.62
433342,4333.42
433421,4334.21
433501,4335.01
433593,4335.93
433686,4336.86
433772,4337.72
433857,4338.57
433943,4339.43
434027,4340.27
434108,4341.08
434188,4341.88
434269,4342.69
434349,4343.49
434427,4344.27
434503,4345.03
434582,4345.82
434659,4346.59
434734,4347.34
434808,4348.08
434883,4348.83
434961,4349.61
435038,4350.38
435113,4351.13
435193,4351.93
435279,4352.79
435360,4353.6
435440,4354.4
435520,4355.2
435601,4356.01
435681,4356.81
435762,4357.62
435843,4358.43
435923,4359.23
436002,4360.02
436084,4360.84
436167,4361.67
436247,4362.47
436327,4363.27
436409,4364.09
436492,4364.92
436572,4365.72
436650,4366.5
436725,4367.25
436800,4368.0
436879,4368.79
436957,4369.57
437034,4370.34
437117,4371.17
437203,4372.03
437284,4372.84
437366,4373.66
437451,4374.51
437536,4375.36
437619,4376.19
437700,4377.0
437784,4377.84
437868,4378.68
437950,4379.5
438031,4380.31
438113,4381.13
438199,4381.99
438285,4382.85
438366,4383.66
438447,4384.47
438528,4385.28
438607,4386.07
438685,4386.85
438761,4387.61
438835,4388.35
438909,4389.09
438987,4389.87
439066,4390.66
439146,4391.46
439236,4392.36
439324,4393.24
439407,4394.07
439490,4394.9
439579,4395.79
439667,4396.67
439751,4397.51
439834,4398.34
439919,4399.19
440007,4400.07
440092,4400.92
440175,4401.75
440263,4402.63
440347,4403.47
440428,4404.28
440507,4405.07
440585,4405.85
440667,4406.67
440749,4407.49
440832,4408.32
440913,4409.13
440999,4409.99
441082,4410.82
441164,4411.64
441243,4412.43
441324,4413.24
441411,4414.11
441494,4414.94
441578,4415.78
441665,4416.65
441748,4417.48
441830,4418.3
441913,4419.13
441996,4419.96
442077,4420.77
442156,4421.56
442238,4422.38
442321,4423.21
442402,4424.02
442480,4424.8
442560,4425.6
442638,4426.38
442715,4427.15
442789,4427.89
442865,4428.65
442946,4429.46
443026,4430.26
443107,4431.07
443199,4431.99
443286,4432.86
443371,4433.71
443451,4434.51
443533,4435.33
443614,4436.14
443692,4436.92
443772,4437.72
443853,4438.53
443933,4439.33
444014,4440.14
444093,4440.93
444172,4441.72
444253,4442.53
444331,4443.31
444408,4444.08
444482,4444.82
444558,4445.58
444634,4446.34
444708,4447.08
444782,4447.82
444858,4448.58
444939,4449.39
445017,4450.17
445093,4450.93
445173,4451.73
445256,4452.56
445337,4453.37
445416,4454.16
445495,4454.95
445580,4455.8
445667,4456.67
445749,4457.49
445830,4458.3
445917,4459.17
446002,4460.02
446082,4460.82
446160,4461.6
446239,4462.39
446317,4463.17
446393,4463.93
446473,4464.73
446570,4465.7
446668,4466.68
446755,4467.55
446845,4468.45
446936,4469.36
447022,4470.22
447107,4471.07
447191,4471.91
447276,4472.76
447358,4473.58
447441,4474.41
447525,4475.25
447605,4476.05
447683,4476.83
447760,4477.6
447835,4478.35
447912,4479.12
447989,4479.89
448064,4480.64
448144,4481.44
448227,4482.27
448309,4483.09
448389,4483.89
448472,4484.72
448559,4485.59
448642,4486.42
448722,4487.22
448802,4488.02
448883,4488.83
448963,4489.63
449040,4490.4
449118,4491.18
449197,4491.97
449274,4492.74
449350,4493.5
449428,4494.28
449510,4495.1
449590,4495.9
449668,4496.68
449747,4497.47
449832,4498.32
449914,4499.14
449994,4499.94
450073,4500.73
450156,4501.56
450240,4502.4
450320,4503.2
450401,4504.01
450482,4504.82
450563,4505.63
450642,4506.42
450718,4507.18
450797,4507.97
450874,4508.74
450950,4509.5
451023,4510.23
451098,4510.98
451174,4511.74
451249,4512.49
451324,4513.24
451401,4514.01
451478,4514.78
451554,4515.54
451630,4516.3
451705,4517.05
451779,4517.79
451853,4518.53
451927,4519.27
452002,4520.02
452076,4520.76
452149,4521.49
452222,4522.22
452295,4522.95
452366,4523.66
452437,4524.37
452509,4525.09
452580,4525.8
452652,4526.52
452722,4527.22
452794,4527.94
452866,4528.66
452938,4529.38
453011,4530.11
453086,4530.86
453163,4531.63
453239,4532.39
453315,4533.15
453391,4533.91
453468,4534.68
453547,4535.47
453624,4536.24
453701,4537.01
453779,4537.79
453860,4538.6
453941,4539.41
454021,4540.21
454099,4540.99
454174,4541.74
454249,4542.49
454325,4543.25
454402,4544.02
454479,4544.79
454555,4545.55
454633,4546.33
454713,4547.13
454793,4547.93
454871,4548.71
454949,4549.49
455027,4550.27
455110,4551.1
455191,4551.91
455270,4552.7
455347,4553.47
455422,4554.22
455497,4554.97
455574,4555.74
455655,4556.55
455733,4557.33
455811,4558.11
455892,4558.92
455975,4559.75
456057,4560.57
456138,4561.38
456217,4562.17
456296,4562.96
456375,4563.75
456454,4564.54
456531,4565.31
456607,4566.07
456683,4566.83
456764,4567.64
456847,4568.47
456929,4569.29
457014,4570.14
457099,4570.99
457183,4571.83
457266,4572.66
457349,4573.49
457431,4574.31
457513,4575.13
457593,4575.93
457672,4576.72
457750,4577.5
457827,4578.27
457903,4579.03
457987,4579.87
458070,4580.7
458152,4581.52
458235,4582.35
458319,4583.19
458403,4584.03
458485,4584.85
458565,4585.65
458642,4586.42
458718,4587.18
458795,4587.95
458874,4588.74
458954,4589.54
459033,4590.33
459115,4591.15
459198,4591.98
459280,4592.8
459358,4593.58
459436,4594.36
459513,4595.13
459591,4595.91
459668,4596.68
459747,4597.47
459828,4598.28
459914,4599.14
460001,4600.01
460084,4600.84
460166,4601.66
460249,4602.49
460332,4603.32
460413,4604.13
460496,4604.96
460578,4605.78
460657,4606.57
460734,4607.34
460809,4608.09
460885,4608.85
460964,4609.64
461044,4610.44
461125,4611.25
461211,4612.11
461297,4612.97
461381,4613.81
461462,4614.62
461542,4615.42
461620,4616.2
461699,4616.99
461777,4617.77
461854,4618.54
461931,4619.31
462019,4620.19
462107,4621.07
462191,4621.91
462275,4622.75
462360,4623.6
462446,4624.46
462529,4625.29
462611,4626.11
462690,4626.9
462767,4627.67
462844,4628.44
462923,4629.23
463005,4630.05
463086,4630.86
463167,4631.67
463252,4632.52
463337,4633.37
463419,4634.19
463500,4635.0
463582,4635.82
463661,4636.61
463740,4637.4
463818,4638.18
463894,4638.94
463970,4639.7
464052,4640.52
464134,4641.34
464214,4642.14
464294,4642.94
464376,4643.76
464458,4644.58
464538,4645.38
464619,4646.19
464702,4647.02
464785,4647.85
464869,4648.69
464951,4649.51
465033,4650.33
465114,4651.14
465194,4651.94
465272,4652.72
465349,4653.49
465425,4654.25
465503,4655.03
465582,4655.82
465662,4656.62
465747,4657.47
465832,4658.32
465915,4659.15
466000,4660.0
466087,4660.87
466175,4661.75
466259,4662.59
466341,4663.41
466421,4664.21
466500,4665.0
466578,4665.78
466655,4666.55
466731,4667.31
466808,4668.08
466891,4668.91
466975,4669.75
467057,4670.57
467141,4671.41
467225,4672.25
467307,4673.07
467388,4673.88
467470,4674.7
467551,4675.51
467630,4676.3
467709,4677.09
467791,4677.91
467876,4678.76
467960,4679.6
468044,4680.44
468129,4681.29
468215,4682.15
468300,4683.0
468382,4683.82
468469,4684.69
468558,4685.58
468643,4686.43
468730,4687.3
468813,4688.13
468895,4688.95
468975,4689.75
469054,4690.54
469132,4691.32
469207,4692.07
469286,4692.86
469368,4693.68
469450,4694.5
469530,4695.3
469612,4696.12
469700,4697.0
469783,4697.83
469866,4698.66
469954,4699.54
470041,4700.41
470127,4701.27
470210,4702.1
470293,4702.93
470376,4703.76
470455,4704.55
470532,4705.32
470609,4706.09
470687,4706.87
470766,4707.66
470844,4708.44
470925,4709.25
471010,4710.1
471091,4710.91
471172,4711.72
471256,4712.56
471342,4713.42
471425,4714.25
471508,4715.08
471597,4715.97
471681,4716.81
471763,4717.63
471843,4718.43
471922,4719.22
471999,4719.99
472076,4720.76
472153,4721.53
472229,4722.29
472303,4723.03
472379,4723.79
472458,4724.58
472538,4725.38
472618,4726.18
472703,4727.03
472787,4727.87
472868,4728.68
472949,4729.49
473033,4730.33
473117,4731.17
473203,4732.03
473292,4732.92
473380,4733.8
473464,4734.64
473545,4735.45
473624,4736.24
473704,4737.04
473781,4737.81
473856,4738.56
473936,4739.36
474027,4740.27
474119,4741.19
474204,4742.04
474287,4742.87
474372,4743.72
474461,4744.61
474549,4745.49
474633,4746.33
474715,4747.15
474798,4747.98
474882,4748.82
474965,4749.65
475047,4750.47
475125,4751.25
475207,4752.07
475288,4752.88
475368,4753.68
475450,4754.5
475528,4755.28
475611,4756.11
475697,4756.97
475783,4757.83
475864,4758.64
475948,4759.48
476035,4760.35
476119,4761.19
476205,4762.05
476290,4762.9
476375,4763.75
476458,4764.58
476538,4765.38
476615,4766.15
476694,4766.94
476772,4767.72
476848,4768.48
476929,4769.29
477018,4770.18
477104,4771.04
477188,4771.88
477272,4772.72
477359,4773.59
477444,4774.44
477531,4775.31
477613,4776.13
477695,4776.95
477778,4777.78
477859,4778.59
477938,4779.38
478015,4780.15
478093,4780.93
478171,4781.71
478248,4782.48
478328,4783.28
478408,4784.08
478486,4784.86
478564,4785.64
478652,4786.52
478736,4787.36
478818,4788.18
478898,4788.98
478981,4789.81
479067,4790.67
479150,4791.5
479235,4792.35
479325,4793.25
479411,4794.11
479492,4794.92
479571,4795.71
479648,4796.48
479724,4797.24
479804,4798.04
479889,4798.89
479970,4799.7
480053,4800.53
480143,4801.43
480232,4802.32
480316,4803.16
480400,4804.0
480486,4804.86
480572,4805.72
480658,4806.58
480740,4807.4
480823,4808.23
480914,4809.14
481000,4810.0
481081,4810.81
481161,4811.61
481238,4812.38
481316,4813.16
481395,4813.95
481474,4814.74
481551,4815.51
481631,4816.31
481714,4817.14
481797,4817.97
481877,4818.77
481957,4819.57
482040,4820.4
482122,4821.22
482201,4822.01
482280,4822.8
482362,4823.62
482444,4824.44
482525,4825.25
482603,4826.03
482678,4826.78
482753,4827.53
482832,4828.32
482908,4829.08
482982,4829.82
483058,4830.58
483150,4831.5
483242,4832.42
483327,4833.27
483411,4834.11
483496,4834.96
483579,4835.79
483659,4836.59
483738,4837.38
483820,4838.2
483900,4839.0
483979,4839.79
484057,4840.57
484135,4841.35
484213,4842.13
484290,4842.9
484377,4843.77
484460,4844.6
484547,4845.47
484631,4846.31
484718,4847.18
484806,4848.06
484892,4848.92
484974,4849.74
485057,4850.57
485139,4851.39
485223,4852.23
485307,4853.07
485388,4853.88
485470,4854.7
485555,4855.55
485640,4856.4
485720,4857.2
485799,4857.99
485876,4858.76
485953,4859.53
486033,4860.33
486110,4861.1
486185,4861.85
486259,4862.59
486338,4863.38
486419,4864.19
486501,4865.01
486586,4865.86
486675,4866.75
486760,4867.6
486845,4868.45
486931,4869.31
487020,4870.2
487102,4871.02
487183,4871.83
487268,4872.68
487352,4873.52
487435,4874.35
487514,4875.14
487592,4875.92
487671,4876.71
487750,4877.5
487827,4878.27
487903,4879.03
487976,4879.76
488053,4880.53
488134,4881.34
488214,4882.14
488293,4882.93
488377,4883.77
488465,4884.65
488547,4885.47
488630,4886.3
488715,4887.15
488799,4887.99
488881,4888.81
488965,4889.65
489049,4890.49
489129,4891.29
489210,4892.1
489294,4892.94
489378,4893.78
489459,4894.59
489538,4895.38
489621,4896.21
489704,4897.04
489784,4897.84
489861,4898.61
489938,4899.38
490017,4900.17
490098,4900.98
490177,4901.77
490254,4902.54
490344,4903.44
490428,4904.28
490517,4905.17
490598,4905.98
490680,4906.8
490765,4907.65
490848,4908.48
490927,4909.27
491006,4910.06
491088,4910.88
491168,4911.68
491247,4912.47
491322,4913.22
491397,4913.97
491473,4914.73
491548,4915.48
491624,4916.24
491698,4916.98
491780,4917.8
491863,4918.63
491943,4919.43
492024,4920.24
492104,4921.04
492183,4921.83
492261,4922.61
492342,4923.42
492425,4924.25
492507,4925.07
492587,4925.87
492674,4926.74
492762,4927.62
492846,4928.46
492929,4929.29
493016,4930.16
493105,4931.05
493192,4931.92
493276,4932.76
493356,4933.56
493433,4934.33
493511,4935.11
493593,4935.93
493673,4936.73
493755,4937.55
493846,4938.46
493934,4939.34
494019,4940.19
494104,4941.04
494194,4941.94
494284,4942.84
494369,4943.69
494454,4944.54
494542,4945.42
494632,4946.32
494719,4947.19
494803,4948.03
494883,4948.83
494963,4949.63
495042,4950.42
495123,4951.23
495211,4952.11
495298,4952.98
495381,4953.81
495462,4954.62
495542,4955.42
495626,4956.26
495707,4957.07
495787,4957.87
495865,4958.65
495946,4959.46
496027,4960.27
496109,4961.09
496193,4961.93
496283,4962.83
496371,4963.71
496458,4964.58
496541,4965.41
496624,4966.24
496707,4967.07
496791,4967.91
496876,4968.76
496963,4969.63
497047,4970.47
497129,4971.29
497211,4972.11
497293,4972.93
497375,4973.75
497454,4974.54
497534,4975.34
497616,4976.16
497696,4976.96
497776,4977.76
497856,4978.56
497939,4979.39
498019,4980.19
498099,4980.99
498181,4981.81
498261,4982.61
498340,4983.4
498420,4984.2
498501,4985.01
498580,4985.8
498659,4986.59
498740,4987.4
498819,4988.19
498898,4988.98
498977,4989.77
499057,4990.57
499134,4991.34
499211,4992.11
499288,4992.88
499365,4993.65
499441,4994.41
499515,4995.15
499592,4995.92
499669,4996.69
499744,4997.44
499819,4998.19
499895,4998.95
499971,4999.71
500047,5000.47
500121,5001.21
500195,5001.95
500271,5002.71
500347,5003.47
500422,5004.22
500498,5004.98
500576,5005.76
500654,5006.54
500730,5007.3
500809,5008.09
500889,5008.89
500967,5009.67
501046,5010.46
501126,5011.26
501204,5012.04
501282,5012.82
501361,5013.61
501438,5014.38
501515,5015.15
501594,5015.94
501673,5016.73
501750,5017.5
501827,5018.27
501904,5019.04
501981,5019.81
502056,5020.56
502131,5021.31
502208,5022.08
502284,5022.84
502359,5023.59
502432,5024.32
502505,5025.05
502579,5025.79
502651,5026.51
502724,5027.24
502795,5027.95
502868,5028.68
502941,5029.41
503013,5030.13
503085,5030.85
503158,5031.58
503232,5032.32
503305,5033.05
503377,5033.77
503451,5034.51
503526,5035.26
503603,5036.03
503679,5036.79
503755,5037.55
503829,5038.29
503904,5039.04
503981,5039.81
504058,5040.58
504135,5041.35
504211,5042.11
504284,5042.84
504357,5043.57
504430,5044.3
504502,5045.02
504574,5045.74
504645,5046.45
504718,5047.18
504791,5047.91
504864,5048.64
504938,5049.38
505013,5050.13
505090,5050.9
505169,5051.69
505246,5052.46
505323,5053.23
505400,5054.0
505479,5054.79
505558,5055.58
505637,5056.37
505714,5057.14
505792,5057.92
505870,5058.7
505948,5059.48
506025,5060.25
506100,5061.0
506175,5061.75
506250,5062.5
506325,5063.25
506399,5063.99
506474,5064.74
506553,5065.53
506635,5066.35
506716,5067.16
506797,5067.97
506876,5068.76
506956,5069.56
507036,5070.36
507116,5071.16
507194,5071.94
507273,5072.73
507354,5073.54
507438,5074.38
507523,5075.23
507608,5076.08
507691,5076.91
507774,5077.74
507856,5078.56
507937,5079.37
508020,5080.2
508102,5081.02
508184,5081.84
508266,5082.66
508349,5083.49
508433,5084.33
508515,5085.15
508598,5085.98
508681,5086.81
508763,5087.63
508846,5088.46
508928,5089.28
509011,5090.11
509095,5090.95
509178,5091.78
509260,5092.6
509344,5093.44
509427,5094.27
509508,5095.08
509591,5095.91
509675,5096.75
509757,5097.57
509837,5098.37
509918,5099.18
509998,5099.98
510076,5100.76
510154,5101.54
510233,5102.33
510311,5103.11
510389,5103.89
510471,5104.71
510552,5105.52
510632,5106.32
510714,5107.14
510797,5107.97
510878,5108.78
510959,5109.59
511041,5110.41
511121,5111.21
511201,5112.01
511283,5112.83
511365,5113.65
511446,5114.46
511529,5115.29
511610,5116.1
511692,5116.92
511775,5117.75
511857,5118.57
511940,5119.4
512020,5120.2
512100,5121.0
512182,5121.82
512263,5122.63
512342,5123.42
512421,5124.21
512502,5125.02
512582,5125.82
512660,5126.6
512739,5127.39
512818,5128.18
512896,5128.96
512973,5129.73
513050,5130.5
513127,5131.27
513203,5132.03
513279,5132.79
513356,5133.56
513434,5134.34
513510,5135.1
513588,5135.88
513667,5136.67
513745,5137.45
513822,5138.22
513900,5139.0
513979,5139.79
514057,5140.57
514134,5141.34
514212,5142.12
514289,5142.89
514366,5143.66
514442,5144.42
514517,5145.17
514592,5145.92
514665,5146.65
514737,5147.37
514810,5148.1
514883,5148.83
514956,5149.56
515028,5150.28
515102,5151.02
515176,5151.76
515250,5152.5
515323,5153.23
515397,5153.97
515474,5154.74
515551,5155.51
515628,5156.28
515705,5157.05
515782,5157.82
515857,5158.57
515934,5159.34
516012,5160.12
516091,5160.91
516168,5161.68
516245,5162.45
516321,5163.21
516397,5163.97
516473,5164.73
516548,5165.48
516622,5166.22
516696,5166.96
516772,5167.72
516851,5168.51
516929,5169.29
517007,5170.07
517085,5170.85
517163,5171.63
517242,5172.42
517320,5173.2
517398,5173.98
517473,5174.73
517550,5175.5
517631,5176.31
517716,5177.16
517799,5177.99
517883,5178.83
517974,5179.74
518068,5180.68
518161,5181.61
518249,5182.49
518338,5183.38
518427,5184.27
518515,5185.15
518600,5186.0
518686,5186.86
518772,5187.72
518856,5188.56
518940,5189.4
519024,5190.24
519108,5191.08
519191,5191.91
519273,5192.73
519355,5193.55
519439,5194.39
519522,5195.22
519604,5196.04
519688,5196.88
519773,5197.73
519856,5198.56
519939,5199.39
520023,5200.23
520108,5201.08
520192,5201.92
520275,5202.75
520357,5203.57
520441,5204.41
520527,5205.27
520610,5206.1
520694,5206.94
520777,5207.77
520859,5208.59
520941,5209.41
521026,5210.26
521112,5211.12
521195,5211.95
521278,5212.78
521363,5213.63
521448,5214.48
521531,5215.31
521616,5216.16
521701,5217.01
521783,5217.83
521865,5218.65
521948,5219.48
522029,5220.29
522111,5221.11
522195,5221.95
522277,5222.77
522358,5223.58
522440,5224.4
522524,5225.24
522604,5226.04
522685,5226.85
522768,5227.68
522850,5228.5
522929,5229.29
523010,5230.1
523091,5230.91
523170,5231.7
523250,5232.5
523331,5233.31
523411,5234.11
523490,5234.9
523569,5235.69
523649,5236.49
523728,5237.28
523805,5238.05
523884,5238.84
523964,5239.64
524045,5240.45
524125,5241.25
524204,5242.04
524284,5242.84
524363,5243.63
524441,5244.41
524519,5245.19
524597,5245.97
524675,5246.75
524751,5247.51
524828,5248.28
524906,5249.06
524984,5249.84
525060,5250.6
525137,5251.37
525213,5252.13
525290,5252.9
525366,5253.66
525441,5254.41
525515,5255.15
525589,5255.89
525662,5256.62
525735,5257.35
525807,5258.07
525879,5258.79
525952,5259.52
526021,5260.21
526091,5260.91
526160,5261.6
526229,5262.29
526301,5263.01
526373,5263.73
526442,5264.42
526512,5265.12
526585,5265.85
526659,5266.59
526731,5267.31
526803,5268.03
526876,5268.76
526950,5269.5
527026,5270.26
527100,5271.0
527176,5271.76
527251,5272.51
527324,5273.24
527398,5273.98
527473,5274.73
527549,5275.49
527625,5276.25
527701,5277.01
527777,5277.77
527852,5278.52
527930,5279.3
528011,5280.11
528095,5280.95
528178,5281.78
528263,5282.63
528342,5283.42
528422,5284.22
528505,5285.05
528588,5285.88
528672,5286.72
528755,5287.55
528836,5288.36
528916,5289.16
528999,5289.99
529082,5290.82
529164,5291.64
529245,5292.45
529327,5293.27
529409,5294.09
529492,5294.92
529573,5295.73
529654,5296.54
529734,5297.34
529817,5298.17
529901,5299.01
529982,5299.82
530062,5300.62
530141,5301.41
530221,5302.21
530302,5303.02
530382,5303.82
530460,5304.6
530538,5305.38
530622,5306.22
530704,5307.04
530788,5307.88
530873,5308.73
530956,5309.56
531042,5310.42
531128,5311.28
531212,5312.12
531298,5312.98
531388,5313.88
531478,5314.78
531564,5315.64
531651,5316.51
531738,5317.38
531824,5318.24
531909,5319.09
531996,5319.96
532083,5320.83
532168,5321.68
532252,5322.52
532335,5323.35
532417,5324.17
532498,5324.98
532582,5325.82
532666,5326.66
532749,5327.49
532832,5328.32
532916,5329.16
532998,5329.98
533079,5330.79
533161,5331.61
533241,5332.41
533321,5333.21
533403,5334.03
533485,5334.85
533565,5335.65
533647,5336.47
533729,5337.29
533809,5338.09
533889,5338.89
533970,5339.7
534051,5340.51
534131,5341.31
534209,5342.09
534288,5342.88
534368,5343.68
534446,5344.46
534524,5345.24
534605,5346.05
534684,5346.84
534762,5347.62
534842,5348.42
534924,5349.24
535003,5350.03
535080,5350.8
535157,5351.57
535237,5352.37
535317,5353.17
535395,5353.95
535474,5354.74
535554,5355.54
535634,5356.34
535712,5357.12
535792,5357.92
535874,5358.74
535955,5359.55
536035,5360.35
536116,5361.16
536195,5361.95
536274,5362.74
536354,5363.54
536432,5364.32
536511,5365.11
536592,5365.92
536671,5366.71
536750,5367.5
536832,5368.32
536912,5369.12
536991,5369.91
537070,5370.7
537151,5371.51
537230,5372.3
537306,5373.06
537384,5373.84
537461,5374.61
537536,5375.36
537611,5376.11
537689,5376.89
537771,5377.71
537850,5378.5
537928,5379.28
538016,5380.16
538104,5381.04
538187,5381.87
538269,5382.69
538351,5383.51
538435,5384.35
538517,5385.17
538596,5385.96
538677,5386.77
538758,5387.58
538836,5388.36
538915,5389.15
538996,5389.96
539076,5390.76
539153,5391.53
539231,5392.31
539309,5393.09
539386,5393.86
539460,5394.6
539536,5395.36
539618,5396.18
539701,5397.01
539781,5397.81
539865,5398.65
539952,5399.52
540036,5400.36
540117,5401.17
540199,5401.99
540282,5402.82
540361,5403.61
540439,5404.39
540518,5405.18
540597,5405.97
540674,5406.74
540761,5407.61
540849,5408.49
540932,5409.32
541014,5410.14
541099,5410.99
541181,5411.81
541262,5412.62
541343,5413.43
541427,5414.27
541507,5415.07
541587,5415.87
541669,5416.69
541752,5417.52
541833,5418.33
541912,5419.12
541992,5419.92
542071,5420.71
542148,5421.48
542227,5422.27
542312,5423.12
542396,5423.96
542477,5424.77
542557,5425.57
542642,5426.42
542723,5427.23
542801,5428.01
542878,5428.78
542956,5429.56
543033,5430.33
543109,5431.09
543183,5431.83
543259,5432.59
543336,5433.36
543412,5434.12
543488,5434.88
543564,5435.64
543645,5436.45
543726,5437.26
543804,5438.04
543885,5438.85
543969,5439.69
544051,5440.51
544131,5441.31
544210,5442.1
544287,5442.87
544365,5443.65
544446,5444.46
544525,5445.25
544606,5446.06
544704,5447.04
544802,5448.02
544889,5448.89
544976,5449.76
545064,5450.64
545151,5451.51
545234,5452.34
545315,5453.15
545397,5453.97
545487,5454.87
545579,5455.79
545668,5456.68
545754,5457.54
545840,5458.4
545927,5459.27
546016,5460.16
546103,5461.03
546194,5461.94
546283,5462.83
546376,5463.76
546466,5464.66
546555,5465.55
546643,5466.43
546730,5467.3
546813,5468.13
546894,5468.94
546971,5469.71
547050,5470.5
547139,5471.39
547224,5472.24
547308,5473.08
547397,5473.97
547490,5474.9
547577,5475.77
547660,5476.6
547741,5477.41
547820,5478.2
547905,5479.05
547989,5479.89
548077,5480.77
548165,5481.65
548253,5482.53
548338,5483.38
548420,5484.2
548500,5485.0
548577,5485.77
548657,5486.57
548734,5487.34
548809,5488.09
548882,5488.82
548958,5489.58
549038,5490.38
549116,5491.16
549192,5491.92
549268,5492.68
549342,5493.42
549414,5494.14
549488,5494.88
549560,5495.6
549632,5496.32
549705,5497.05
549777,5497.77
549851,5498.51
549923,5499.23
549996,5499.96
550070,5500.7
550147,5501.47
550225,5502.25
550302,5503.02
550380,5503.8
550464,5504.64
550551,5505.51
550635,5506.35
550716,5507.16
550796,5507.96
550878,5508.78
550961,5509.61
551042,5510.42
551120,5511.2
551195,5511.95
551270,5512.7
551348,5513.48
551432,5514.32
551516,5515.16
551599,5515.99
551684,5516.84
551772,5517.72
551855,5518.55
551936,5519.36
552017,5520.17
552101,5521.01
552186,5521.86
552266,5522.66
552346,5523.46
552429,5524.29
552513,5525.13
552593,5525.93
552670,5526.7
552746,5527.46
552824,5528.24
552906,5529.06
552986,5529.86
553064,5530.64
553143,5531.43
553231,5532.31
553318,5533.18
553402,5534.02
553487,5534.87
553572,5535.72
553658,5536.58
553741,5537.41
553822,5538.22
553904,5539.04
553992,5539.92
554078,5540.78
554161,5541.61
554242,5542.42
554322,5543.22
554402,5544.02
554481,5544.81
554557,5545.57
554632,5546.32
554728,5547.28
554825,5548.25
554915,5549.15
555002,5550.02
555089,5550.89
555179,5551.79
555266,5552.66
555351,5553.51
555440,5554.4
555530,5555.3
555620,5556.2
555707,5557.07
555794,5557.94
555883,5558.83
555974,5559.74
556061,5560.61
556148,5561.48
556234,5562.34
556320,5563.2
556406,5564.06
556489,5564.89
556572,5565.72
556658,5566.58
556744,5567.44
556830,5568.3
556917,5569.17
557004,5570.04
557089,5570.89
557172,5571.72
557251,5572.51
557332,5573.32
557413,5574.13
557493,5574.93
557585,5575.85
557678,5576.78
557765,5577.65
557851,5578.51
557942,5579.42
558035,5580.35
558126,5581.26
558215,5582.15
558303,5583.03
558389,5583.89
558477,5584.77
558566,5585.66
558652,5586.52
558736,5587.36
558822,5588.22
558906,5589.06
558987,5589.87
559071,5590.71
559155,5591.55
559238,5592.38
559317,5593.17
559397,5593.97
559487,5594.87
559577,5595.77
559662,5596.62
559749,5597.49
559837,5598.37
559925,5599.25
560012,5600.12
560097,5600.97
560179,5601.79
560261,5602.61
560344,5603.44
560425,5604.25
560505,5605.05
560587,5605.87
560668,5606.68
560746,5607.46
560826,5608.26
560907,5609.07
560988,5609.88
561066,5610.66
561142,5611.42
561219,5612.19
561296,5612.96
561372,5613.72
561446,5614.46
561520,5615.2
561597,5615.97
561676,5616.76
561755,5617.55
561832,5618.32
561909,5619.09
561990,5619.9
562072,5620.72
562151,5621.51
562230,5622.3
562312,5623.12
562394,5623.94
562472,5624.72
562550,5625.5
562630,5626.3
562709,5627.09
562786,5627.86
562863,5628.63
562942,5629.42
563021,5630.21
563099,5630.99
563174,5631.74
563251,5632.51
563330,5633.3
563408,5634.08
563484,5634.84
563561,5635.61
563639,5636.39
563718,5637.18
563794,5637.94
563870,5638.7
563946,5639.46
564023,5640.23
564101,5641.01
564176,5641.76
564250,5642.5
564325,5643.25
564399,5643.99
564471,5644.71
564542,5645.42
564614,5646.14
564684,5646.84
564755,5647.55
564824,5648.24
564898,5648.98
564973,5649.73
565045,5650.45
565117,5651.17
565189,5651.89
565259,5652.59
565328,5653.28
565398,5653.98
565469,5654.69
565540,5655.4
565610,5656.1
565680,5656.8
565749,5657.49
565818,5658.18
565886,5658.86
565955,5659.55
566024,5660.24
566093,5660.93
566162,5661.62
566231,5662.31
566300,5663.0
566368,5663.68
566438,5664.38
566507,5665.07
566578,5665.78
566648,5666.48
566721,5667.21
566797,5667.97
566873,5668.73
566949,5669.49
567024,5670.24
567098,5670.98
567175,5671.75
567254,5672.54
567332,5673.32
567409,5674.09
567485,5674.85
567560,5675.6
567634,5676.34
567709,5677.09
567783,5677.83
567856,5678.56
567928,5679.28
568002,5680.02
568077,5680.77
568154,5681.54
568229,5682.29
568304,5683.04
568379,5683.79
568456,5684.56
568534,5685.34
568615,5686.15
568694,5686.94
568772,5687.72
568852,5688.52
568936,5689.36
569020,5690.2
569102,5691.02
569180,5691.8
569259,5692.59
569340,5693.4
569423,5694.23
569507,5695.07
569586,5695.86
569664,5696.64
569739,5697.39
569814,5698.14
569890,5698.9
569969,5699.69
570048,5700.48
570125,5701.25
570205,5702.05
570295,5702.95
570385,5703.85
570467,5704.67
570550,5705.5
570633,5706.33
570719,5707.19
570803,5708.03
570885,5708.85
570965,5709.65
571042,5710.42
571120,5711.2
571200,5712.0
571279,5712.79
571356,5713.56
571434,5714.34
571517,5715.17
571600,5716.0
571682,5716.82
571762,5717.62
571842,5718.42
571930,5719.3
572017,5720.17
572103,5721.03
572187,5721.87
572270,5722.7
572354,5723.54
572436,5724.36
572517,5725.17
572596,5725.96
572672,5726.72
572748,5727.48
572824,5728.24
572903,5729.03
572981,5729.81
573058,5730.58
573142,5731.42
573231,5732.31
573316,5733.16
573399,5733.99
573483,5734.83
573569,5735.69
573654,5736.54
573736,5737.36
573816,5738.16
573894,5738.94
573970,5739.7
574049,5740.49
574132,5741.32
574213,5742.13
574293,5742.93
574376,5743.76
574459,5744.59
574540,5745.4
574620,5746.2
574698,5746.98
574779,5747.79
574861,5748.61
574945,5749.45
575026,5750.26
575105,5751.05
575191,5751.91
575280,5752.8
575365,5753.65
575449,5754.49
575531,5755.31
575616,5756.16
575698,5756.98
575779,5757.79
575857,5758.57
575934,5759.34
576012,5760.12
576091,5760.91
576171,5761.71
576249,5762.49
576330,5763.3
576421,5764.21
576509,5765.09
576594,5765.94
576678,5766.78
576764,5767.64
576848,5768.48
576930,5769.3
577011,5770.11
577090,5770.9
577168,5771.68
577243,5772.43
577319,5773.19
577396,5773.96
577475,5774.75
577554,5775.54
577630,5776.3
577707,5777.07
577786,5777.86
577866,5778.66
577945,5779.45
578022,5780.22
578100,5781.0
578180,5781.8
578262,5782.62
578342,5783.42
578421,5784.21
578505,5785.05
578592,5785.92
578675,5786.75
578758,5787.58
578838,5788.38
578915,5789.15
578993,5789.93
579073,5790.73
579155,5791.55
579236,5792.36
579317,5793.17
579406,5794.06
579493,5794.93
579578,5795.78
579659,5796.59
579740,5797.4
579822,5798.22
579903,5799.03
579981,5799.81
580059,5800.59
580138,5801.38
580216,5802.16
580293,5802.93
580374,5803.74
580463,5804.63
580552,5805.52
580635,5806.35
580716,5807.16
580799,5807.99
580882,5808.82
580964,5809.64
581044,5810.44
581121,5811.21
581197,5811.97
581275,5812.75
581353,5813.53
581429,5814.29
581508,5815.08
581598,5815.98
581688,5816.88
581774,5817.74
581862,5818.62
581951,5819.51
582039,5820.39
582124,5821.24
582210,5822.1
582297,5822.97
582383,5823.83
582466,5824.66
582546,5825.46
582625,5826.25
582702,5827.02
582779,5827.79
582860,5828.6
582940,5829.4
583018,5830.18
583096,5830.96
583182,5831.82
583271,5832.71
583355,5833.55
583437,5834.37
583521,5835.21
583604,5836.04
583687,5836.87
583769,5837.69
583848,5838.48
583925,5839.25
584002,5840.02
584080,5840.8
584158,5841.58
584233,5842.33
584312,5843.12
584394,5843.94
584476,5844.76
584557,5845.57
584637,5846.37
584722,5847.22
584807,5848.07
584889,5848.89
584970,5849.7
585050,5850.5
585129,5851.29
585208,5852.08
585286,5852.86
585363,5853.63
585440,5854.4
585521,5855.21
585606,5856.06
585689,5856.89
585770,5857.7
585850,5858.5
585932,5859.32
586017,5860.17
586096,5860.96
586175,5861.75
586251,5862.51
586327,5863.27
586406,5864.06
586484,5864.84
586560,5865.6
586639,5866.39
586722,5867.22
586806,5868.06
586887,5868.87
586967,5869.67
587046,5870.46
587128,5871.28
587212,5872.12
587294,5872.94
587375,5873.75
587461,5874.61
587549,5875.49
587637,5876.37
587721,5877.21
587804,5878.04
587884,5878.84
587967,5879.67
588047,5880.47
588126,5881.26
588204,5882.04
588281,5882.81
588357,5883.57
588432,5884.32
588510,5885.1
588589,5885.89
588668,5886.68
588746,5887.46
588824,5888.24
588902,5889.02
588983,5889.83
589065,5890.65
589146,5891.46
589225,5892.25
589308,5893.08
589393,5893.93
589477,5894.77
589559,5895.59
589640,5896.4
589721,5897.21
589799,5897.99
589878,5898.78
589956,5899.56
590032,5900.32
590111,5901.11
590198,5901.98
590283,5902.83
590365,5903.65
590447,5904.47
590532,5905.32
590616,5906.16
590699,5906.99
590780,5907.8
590859,5908.59
590937,5909.37
591014,5910.14
591092,5910.92
591170,5911.7
591246,5912.46
591321,5913.21
591401,5914.01
591485,5914.85
591565,5915.65
591645,5916.45
591730,5917.3
591816,5918.16
591898,5918.98
591979,5919.79
592058,5920.58
592137,5921.37
592215,5922.15
592293,5922.93
592368,5923.68
592445,5924.45
592524,5925.24
592605,5926.05
592685,5926.85
592768,5927.68
592855,5928.55
592940,5929.4
593022,5930.22
593105,5931.05
593191,5931.91
593275,5932.75
593358,5933.58
593438,5934.38
593516,5935.16
593594,5935.94
593670,5936.7
593746,5937.46
593823,5938.23
593902,5939.02
593981,5939.81
594060,5940.6
594139,5941.39
594217,5942.17
594298,5942.98
594381,5943.81
594463,5944.63
594543,5945.43
594623,5946.23
594706,5947.06
594789,5947.89
594870,5948.7
594951,5949.51
595029,5950.29
595107,5951.07
595185,5951.85
595263,5952.63
595341,5953.41
595418,5954.18
595496,5954.96
595572,5955.72
595650,5956.5
595728,5957.28
595808,5958.08
595880,5958.8
595952,5959.52
596037,5960.37
596122,5961.22
596201,5962.01
596283,5962.83
596361,5963.61
596445,5964.45
596529,5965.29
596591,5965.91
596654,5966.54
596725,5967.25
596791,5967.91
596858,5968.58
596927,5969.27
597000,5970.0
597073,5970.73
597142,5971.42
597211,5972.11
597284,5972.84
597354,5973.54
597422,5974.22
597490,5974.9
597560,5975.6
597629,5976.29
597697,5976.97
597764,5977.64
597832,5978.32
597901,5979.01
597971,5979.71
598039,5980.39
598108,5981.08
598177,5981.77
598246,5982.46
598315,5983.15
598383,5983.83
598452,5984.52
598521,5985.21
598590,5985.9
598661,5986.61
598733,5987.33
598805,5988.05
598877,5988.77
598950,5989.5
599025,5990.25
599101,5991.01
599177,5991.77
599253,5992.53
599328,5993.28
599403,5994.03
599477,5994.77
599552,5995.52
599628,5996.28
599703,5997.03
599777,5997.77
599851,5998.51
599923,5999.23
599996,5999.96
600070,6000.7
600144,6001.44
600218,6002.18
600292,6002.92
600369,6003.69
600447,6004.47
600524,6005.24
600600,6006.0
600677,6006.77
600755,6007.55
600834,6008.34
600912,6009.12
600988,6009.88
601064,6010.64
601138,6011.38
601212,6012.12
601289,6012.89
601367,6013.67
601446,6014.46
601523,6015.23
601599,6015.99
601673,6016.73
601748,6017.48
601824,6018.24
601903,6019.03
601981,6019.81
602060,6020.6
602138,6021.38
602215,6022.15
602292,6022.92
602370,6023.7
602450,6024.5
602532,6025.32
602610,6026.1
602688,6026.88
602769,6027.69
602849,6028.49
602929,6029.29
603009,6030.09
603087,6030.87
603163,6031.63
603239,6032.39
603314,6033.14
603390,6033.9
603466,6034.66
603542,6035.42
603620,6036.2
603700,6037.0
603782,6037.82
603862,6038.62
603941,6039.41
604022,6040.22
604107,6041.07
604193,6041.93
604275,6042.75
604355,6043.55
604433,6044.33
604511,6045.11
604588,6045.88
604666,6046.66
604743,6047.43
604820,6048.2
604895,6048.95
604971,6049.71
605050,6050.5
605128,6051.28
605205,6052.05
605282,6052.82
605362,6053.62
605444,6054.44
605525,6055.25
605605,6056.05
605684,6056.84
605766,6057.66
605851,6058.51
605935,6059.35
606018,6060.18
606099,6060.99
606183,6061.83
606268,6062.68
606352,6063.52
606434,6064.34
606515,6065.15
606594,6065.94
606671,6066.71
606748,6067.48
606823,6068.23
606898,6068.98
606972,6069.72
607048,6070.48
607123,6071.23
607198,6071.98
607271,6072.71
607346,6073.46
607421,6074.21
607496,6074.96
607573,6075.73
607648,6076.48
607724,6077.24
607799,6077.99
607875,6078.75
607953,6079.53
608033,6080.33
608111,6081.11
608189,6081.89
608269,6082.69
608349,6083.49
608433,6084.33
608515,6085.15
608595,6085.95
608676,6086.76
608760,6087.6
608845,6088.45
608931,6089.31
609016,6090.16
609099,6090.99
609181,6091.81
609262,6092.62
609345,6093.45
609427,6094.27
609507,6095.07
609586,6095.86
609663,6096.63
609739,6097.39
609815,6098.15
609892,6098.92
609972,6099.72
610052,6100.52
610131,6101.31
610208,6102.08
610287,6102.87
610366,6103.66
610444,6104.44
610521,6105.21
610599,6105.99
610677,6106.77
610759,6107.59
610841,6108.41
610925,6109.25
611009,6110.09
611092,6110.92
611174,6111.74
611256,6112.56
611337,6113.37
611414,6114.14
611491,6114.91
611568,6115.68
611645,6116.45
611723,6117.23
611804,6118.04
611892,6118.92
611980,6119.8
612062,6120.62
612145,6121.45
612229,6122.29
612311,6123.11
612393,6123.93
612474,6124.74
612553,6125.53
612631,6126.31
612710,6127.1
612786,6127.86
612861,6128.61
612941,6129.41
613019,6130.19
613097,6130.97
613174,6131.74
613251,6132.51
613326,6133.26
613401,6134.01
613476,6134.76
613551,6135.51
613627,6136.27
613703,6137.03
613781,6137.81
613861,6138.61
613943,6139.43
614023,6140.23
614104,6141.04
614185,6141.85
614268,6142.68
614352,6143.52
614435,6144.35
614517,6145.17
614597,6145.97
614677,6146.77
614755,6147.55
614833,6148.33
614911,6149.11
614988,6149.88
615065,6150.65
615141,6151.41
615223,6152.23
615302,6153.02
615382,6153.82
615464,6154.64
615548,6155.48
615632,6156.32
615714,6157.14
615795,6157.95
615876,6158.76
615955,6159.55
616038,6160.38
616122,6161.22
616205,6162.05
616288,6162.88
616370,6163.7
616452,6164.52
616542,6165.42
616632,6166.32
616719,6167.19
616805,6168.05
616888,6168.88
616973,6169.73
617057,6170.57
617138,6171.38
617218,6172.18
617296,6172.96
617373,6173.73
617450,6174.5
617532,6175.32
617613,6176.13
617693,6176.93
617773,6177.73
617853,6178.53
617937,6179.37
618019,6180.19
618101,6181.01
618182,6181.82
618271,6182.71
618358,6183.58
618445,6184.45
618533,6185.33
618618,6186.18
618703,6187.03
618787,6187.87
618873,6188.73
618958,6189.58
619042,6190.42
619124,6191.24
619203,6192.03
619283,6192.83
619364,6193.64
619450,6194.5
619537,6195.37
619623,6196.23
619709,6197.09
619794,6197.94
619879,6198.79
619962,6199.62
620044,6200.44
620126,6201.26
620209,6202.09
620291,6202.91
620372,6203.72
620451,6204.51
620529,6205.29
620604,6206.04
620681,6206.81
620760,6207.6
620840,6208.4
620918,6209.18
620996,6209.96
621079,6210.79
621162,6211.62
621243,6212.43
621323,6213.23
621404,6214.04
621486,6214.86
621569,6215.69
621651,6216.51
621735,6217.35
621820,6218.2
621903,6219.03
621983,6219.83
622064,6220.64
622144,6221.44
622223,6222.23
622301,6223.01
622379,6223.79
622463,6224.63
622546,6225.46
622631,6226.31
622716,6227.16
622799,6227.99
622883,6228.83
622967,6229.67
623050,6230.5
623135,6231.35
623219,6232.19
623304,6233.04
623386,6233.86
623469,6234.69
623552,6235.52
623635,6236.35
623716,6237.16
623796,6237.96
623875,6238.75
623952,6239.52
624032,6240.32
624113,6241.13
624193,6241.93
624272,6242.72
624351,6243.51
624429,6244.29
624508,6245.08
624587,6245.87
624666,6246.66
624745,6247.45
624829,6248.29
624912,6249.12
624996,6249.96
625082,6250.82
625169,6251.69
625253,6252.53
625336,6253.36
625417,6254.17
625498,6254.98
625578,6255.78
625657,6256.57
625737,6257.37
625821,6258.21
625908,6259.08
625996,6259.96
626081,6260.81
626166,6261.66
626252,6262.52
626338,6263.38
626423,6264.23
626508,6265.08
626595,6265.95
626680,6266.8
626762,6267.62
626842,6268.42
626921,6269.21
627000,6270.0
627077,6270.77
627156,6271.56
627237,6272.37
627319,6273.19
627401,6274.01
627484,6274.84
627570,6275.7
627653,6276.53
627734,6277.34
627814,6278.14
627894,6278.94
627974,6279.74
628056,6280.56
628138,6281.38
628221,6282.21
628309,6283.09
628394,6283.94
628478,6284.78
628564,6285.64
628650,6286.5
628735,6287.35
628819,6288.19
628901,6289.01
628983,6289.83
629064,6290.64
629143,6291.43
629222,6292.22
629300,6293.0
629378,6293.78
629459,6294.59
629541,6295.41
629623,6296.23
629707,6297.07
629790,6297.9
629872,6298.72
629954,6299.54
630034,6300.34
630114,6301.14
630196,6301.96
630278,6302.78
630360,6303.6
630444,6304.44
630528,6305.28
630614,6306.14
630700,6307.0
630786,6307.86
630870,6308.7
630954,6309.54
631038,6310.38
631122,6311.22
631204,6312.04
631284,6312.84
631364,6313.64
631442,6314.42
631521,6315.21
631607,6316.07
631692,6316.92
631775,6317.75
631857,6318.57
631942,6319.42
632027,6320.27
632111,6321.11
632194,6321.94
632279,6322.79
632366,6323.66
632450,6324.5
632533,6325.33
632617,6326.17
632702,6327.02
632787,6327.87
632870,6328.7
632952,6329.52
633033,6330.33
633112,6331.12
633190,6331.9
633269,6332.69
633346,6333.46
633425,6334.25
633504,6335.04
633583,6335.83
633662,6336.62
633739,6337.39
633816,6338.16
633894,6338.94
633970,6339.7
634045,6340.45
634121,6341.21
634199,6341.99
634281,6342.81
634365,6343.65
634449,6344.49
634534,6345.34
634622,6346.22
634711,6347.11
634797,6347.97
634882,6348.82
634964,6349.64
635046,6350.46
635125,6351.25
635203,6352.03
635282,6352.82
635367,6353.67
635452,6354.52
635538,6355.38
635624,6356.24
635710,6357.1
635795,6357.95
635879,6358.79
635962,6359.62
636044,6360.44
636126,6361.26
636209,6362.09
636294,6362.94
636378,6363.78
636461,6364.61
636543,6365.43
636625,6366.25
636707,6367.07
636789,6367.89
636870,6368.7
636949,6369.49
637029,6370.29
637107,6371.07
637184,6371.84
637262,6372.62
637339,6373.39
637416,6374.16
637496,6374.96
637577,6375.77
637656,6376.56
637736,6377.36
637815,6378.15
637896,6378.96
637977,6379.77
638056,6380.56
638135,6381.35
638213,6382.13
638293,6382.93
638371,6383.71
638451,6384.51
638536,6385.36
638624,6386.24
638710,6387.1
638795,6387.95
638880,6388.8
638966,6389.66
639052,6390.52
639136,6391.36
639219,6392.19
639300,6393.0
639380,6393.8
639460,6394.6
639538,6395.38
639615,6396.15
639695,6396.95
639780,6397.8
639865,6398.65
639948,6399.48
640031,6400.31
640115,6401.15
640200,6402.0
640283,6402.83
640366,6403.66
640447,6404.47
640530,6405.3
640614,6406.14
640696,6406.96
640777,6407.77
640859,6408.59
640942,6409.42
641024,6410.24
641104,6411.04
641183,6411.83
641262,6412.62
641342,6413.42
641420,6414.2
641499,6414.99
641581,6415.81
641662,6416.62
641742,6417.42
641823,6418.23
641904,6419.04
641986,6419.86
642068,6420.68
642150,6421.5
642230,6422.3
642309,6423.09
642389,6423.89
642468,6424.68
642548,6425.48
642633,6426.33
642718,6427.18
642803,6428.03
642888,6428.88
642974,6429.74
643060,6430.6
643143,6431.43
643225,6432.25
643307,6433.07
643389,6433.89
643471,6434.71
643554,6435.54
643644,6436.44
643731,6437.31
643820,6438.2
643906,6439.06
643991,6439.91
644079,6440.79
644165,6441.65
644251,6442.51
644336,6443.36
644421,6444.21
644505,6445.05
644592,6445.92
644678,6446.78
644762,6447.62
644846,6448.46
644929,6449.29
645010,6450.1
645091,6450.91
645169,6451.69
645248,6452.48
645329,6453.29
645409,6454.09
645488,6454.88
645566,6455.66
645644,6456.44
645722,6457.22
645800,6458.0
645877,6458.77
645955,6459.55
646035,6460.35
646117,6461.17
646199,6461.99
646281,6462.81
646364,6463.64
646449,6464.49
646536,6465.36
646624,6466.24
646712,6467.12
646798,6467.98
646886,6468.86
646975,6469.75
647066,6470.66
647153,6471.53
647239,6472.39
647323,6473.23
647405,6474.05
647487,6474.87
647567,6475.67
647655,6476.55
647744,6477.44
647833,6478.33
647919,6479.19
648005,6480.05
648093,6480.93
648182,6481.82
648270,6482.7
648359,6483.59
648446,6484.46
648533,6485.33
648618,6486.18
648700,6487.0
648783,6487.83
648869,6488.69
648956,6489.56
649044,6490.44
649132,6491.32
649218,6492.18
649303,6493.03
649389,6493.89
649473,6494.73
649556,6495.56
649638,6496.38
649721,6497.21
649800,6498.0
649880,6498.8
649959,6499.59
650038,6500.38
650114,6501.14
650192,6501.92
650270,6502.7
650347,6503.47
650425,6504.25
650504,6505.04
650584,6505.84
650663,6506.63
650744,6507.44
650829,6508.29
650913,6509.13
650997,6509.97
651082,6510.82
651165,6511.65
651250,6512.5
651335,6513.35
651419,6514.19
651504,6515.04
651587,6515.87
651670,6516.7
651752,6517.52
651832,6518.32
651913,6519.13
651992,6519.92
652071,6520.71
652150,6521.5
652231,6522.31
652312,6523.12
652392,6523.92
652473,6524.73
652559,6525.59
652646,6526.46
652734,6527.34
652823,6528.23
652913,6529.13
652999,6529.99
653084,6530.84
653166,6531.66
653246,6532.46
653325,6533.25
653404,6534.04
653491,6534.91
653579,6535.79
653666,6536.66
653753,6537.53
653839,6538.39
653927,6539.27
654015,6540.15
654101,6541.01
654185,6541.85
654266,6542.66
654347,6543.47
654427,6544.27
654509,6545.09
654591,6545.91
654675,6546.75
654765,6547.65
654855,6548.55
654943,6549.43
655029,6550.29
655116,6551.16
655203,6552.03
655287,6552.87
655369,6553.69
655449,6554.49
655527,6555.27
655608,6556.08
655691,6556.91
655774,6557.74
655856,6558.56
655945,6559.45
656034,6560.34
656123,6561.23
656212,6562.12
656301,6563.01
656391,6563.91
656479,6564.79
656566,6565.66
656655,6566.55
656744,6567.44
656832,6568.32
656916,6569.16
656999,6569.99
657080,6570.8
657161,6571.61
657242,6572.42
657322,6573.22
657407,6574.07
657498,6574.98
657587,6575.87
657674,6576.74
657763,6577.63
657854,6578.54
657941,6579.41
658028,6580.28
658117,6581.17
658207,6582.07
658296,6582.96
658386,6583.86
658478,6584.78
658568,6585.68
658656,6586.56
658742,6587.42
658825,6588.25
658906,6589.06
658986,6589.86
659067,6590.67
659151,6591.51
659234,6592.34
659317,6593.17
659400,6594.0
659485,6594.85
659572,6595.72
659656,6596.56
659740,6597.4
659823,6598.23
659908,6599.08
659991,6599.91
660074,6600.74
660155,6601.55
660236,6602.36
660317,6603.17
660403,6604.03
660488,6604.88
660579,6605.79
660670,6606.7
660760,6607.6
660853,6608.53
660947,6609.47
661037,6610.37
661128,6611.28
661215,6612.15
661302,6613.02
661390,6613.9
661476,6614.76
661560,6615.6
661642,6616.42
661722,6617.22
661802,6618.02
661889,6618.89
661974,6619.74
662064,6620.64
662153,6621.53
662243,6622.43
662334,6623.34
662423,6624.23
662512,6625.12
662599,6625.99
662685,6626.85
662772,6627.72
662858,6628.58
662943,6629.43
663029,6630.29
663116,6631.16
663199,6631.99
663280,6632.8
663360,6633.6
663441,6634.41
663522,6635.22
663607,6636.07
663691,6636.91
663775,6637.75
663857,6638.57
663939,6639.39
664020,6640.2
664104,6641.04
664189,6641.89
