sample,time_sec
77,0.77
152,1.52
226,2.26
301,3.01
376,3.76
452,4.52
527,5.27
603,6.03
680,6.8
757,7.57
834,8.34
911,9.11
989,9.89
1066,10.66
1143,11.43
1219,12.19
1295,12.95
1372,13.72
1448,14.48
1525,15.25
1602,16.02
1678,16.78
1755,17.55
1833,18.33
1911,19.11
1990,19.9
2070,20.7
2150,21.5
2230,22.3
2310,23.1
2389,23.89
2468,24.68
2547,25.47
2625,26.25
2702,27.02
2780,27.8
2856,28.56
2932,29.32
3009,30.09
3085,30.85
3161,31.61
3238,32.38
3314,33.14
3390,33.9
3467,34.67
3543,35.43
3620,36.2
3697,36.97
3773,37.73
3849,38.49
3923,39.23
3997,39.97
4071,40.71
4146,41.46
4220,42.2
4293,42.93
4367,43.67
4440,44.4
4514,45.14
4588,45.88
4662,46.62
4736,47.36
4810,48.1
4884,48.84
4960,49.6
5034,50.34
5109,51.09
5184,51.84
5258,52.58
5333,53.33
5408,54.08
5482,54.82
5557,55.57
5632,56.32
5707,57.07
5782,57.82
5857,58.57
5933,59.33
6009,60.09
6085,60.85
6162,61.62
6237,62.37
6313,63.13
6389,63.89
6465,64.65
6542,65.42
6618,66.18
6694,66.94
6770,67.7
6846,68.46
6923,69.23
6999,69.99
7075,70.75
7151,71.51
7226,72.26
7302,73.02
7377,73.77
7452,74.52
7527,75.27
7602,76.02
7678,76.78
7753,77.53
7827,78.27
7902,79.02
7977,79.77
8052,80.52
8128,81.28
8203,82.03
8278,82.78
8354,83.54
8429,84.29
8505,85.05
8581,85.81
8657,86.57
8732,87.32
8809,88.09
8884,88.84
8960,89.6
9036,90.36
9111,91.11
9186,91.86
9262,92.62
9337,93.37
9412,94.12
9487,94.87
9562,95.62
9638,96.38
9713,97.13
9788,97.88
9864,98.64
9940,99.4
10016,100.16
10093,100.93
10169,101.69
10245,102.45
10321,103.21
10397,103.97
10472,104.72
10548,105.48
10622,106.22
10697,106.97
10772,107.72
10846,108.46
10920,109.2
10994,109.94
11068,110.68
11143,111.43
11219,112.19
11294,112.94
11370,113.7
11447,114.47
11525,115.25
11603,116.03
11681,116.81
11759,117.59
11837,118.37
11916,119.16
11993,119.93
12069,120.69
12146,121.46
12222,122.22
12298,122.98
12373,123.73
12448,124.48
12522,125.22
12597,125.97
12672,126.72
12747,127.47
12821,128.21
12896,128.96
12971,129.71
13047,130.47
13123,131.23
13199,131.99
13275,132.75
13352,133.52
13428,134.28
13504,135.04
13581,135.81
13657,136.57
13733,137.33
13810,138.1
13886,138.86
13961,139.61
14038,140.38
14114,141.14
14192,141.92
14268,142.68
14344,143.44
14420,144.2
14496,144.96
14572,145.72
14648,146.48
14724,147.24
14800,148.0
14876,148.76
14951,149.51
15028,150.28
15103,151.03
15179,151.79
15255,152.55
15331,153.31
15406,154.06
15482,154.82
15559,155.59
15634,156.34
15709,157.09
15784,157.84
15858,158.58
15932,159.32
16006,160.06
16080,160.8
16154,161.54
16229,162.29
16303,163.03
16378,163.78
16453,164.53
16528,165.28
16603,166.03
16679,166.79
16754,167.54
16830,168.3
16907,169.07
16984,169.84
17060,170.6
17137,171.37
17214,172.14
17292,172.92
17370,173.7
17447,174.47
17526,175.26
17604,176.04
17682,176.82
17761,177.61
17840,178.4
17918,179.18
17997,179.97
18076,180.76
18155,181.55
18235,182.35
18313,183.13
18392,183.92
18472,184.72
18552,185.52
18630,186.3
18711,187.11
18792,187.92
18871,188.71
18950,189.5
19029,190.29
19110,191.1
19188,191.88
19266,192.66
19344,193.44
19422,194.22
19496,194.96
19571,195.71
19653,196.53
19735,197.35
19814,198.14
19893,198.93
19971,199.71
20050,200.5
20130,201.3
20203,202.03
20276,202.76
20362,203.62
20448,204.48
20528,205.28
20607,206.07
20686,206.86
20764,207.64
20843,208.43
20922,209.22
21001,210.01
21080,210.8
21159,211.59
21239,212.39
21318,213.18
21396,213.96
21475,214.75
21554,215.54
21632,216.32
21710,217.1
21789,217.89
21868,218.68
21947,219.47
22025,220.25
22104,221.04
22183,221.83
22260,222.6
22338,223.38
22415,224.15
22493,224.93
22572,225.72
22650,226.5
22728,227.28
22807,228.07
22886,228.86
22964,229.64
23042,230.42
23121,231.21
23199,231.99
23278,232.78
23357,233.57
23435,234.35
23513,235.13
23591,235.91
23670,236.7
23748,237.48
23826,238.26
23903,239.03
23981,239.81
24058,240.58
24135,241.35
24213,242.13
24291,242.91
24369,243.69
24443,244.43
24517,245.17
24602,246.02
24687,246.87
24768,247.68
24847,248.47
24927,249.27
24999,249.99
25075,250.75
25160,251.6
25233,252.33
25303,253.03
25379,253.79
25460,254.6
25536,255.36
25587,255.87
25638,256.38
25689,256.89
25762,257.62
25831,258.31
25905,259.05
25983,259.83
26054,260.54
26133,261.33
26204,262.04
26275,262.75
26347,263.47
26420,264.2
26520,265.2
26620,266.2
26712,267.12
26778,267.78
26845,268.45
26917,269.17
26989,269.89
27062,270.62
27136,271.36
27210,272.1
27286,272.86
27364,273.64
27441,274.41
27519,275.19
27598,275.98
27679,276.79
27760,277.6
27840,278.4
27921,279.21
28001,280.01
28082,280.82
28163,281.63
28244,282.44
28325,283.25
28406,284.06
28487,284.87
28570,285.7
28651,286.51
28732,287.32
28812,288.12
28892,288.92
28972,289.72
29053,290.53
29134,291.34
29214,292.14
29295,292.95
29376,293.76
29456,294.56
29537,295.37
29616,296.16
29695,296.95
29776,297.76
29857,298.57
29936,299.36
30015,300.15
30093,300.93
30172,301.72
30252,302.52
30331,303.31
30411,304.11
30491,304.91
30572,305.72
30653,306.53
30735,307.35
30817,308.17
30899,308.99
30983,309.83
31065,310.65
31148,311.48
31231,312.31
31314,313.14
31396,313.96
31479,314.79
31561,315.61
31642,316.42
31723,317.23
31804,318.04
31885,318.85
31964,319.64
32043,320.43
32122,321.22
32200,322.0
32279,322.79
32356,323.56
32434,324.34
32513,325.13
32592,325.92
32671,326.71
32750,327.5
32829,328.29
32908,329.08
32987,329.87
33066,330.66
33145,331.45
33225,332.25
33305,333.05
33383,333.83
33462,334.62
33541,335.41
33621,336.21
33700,337.0
33779,337.79
33859,338.59
33939,339.39
34019,340.19
34098,340.98
34178,341.78
34258,342.58
34338,343.38
34418,344.18
34498,344.98
34579,345.79
34663,346.63
34745,347.45
34828,348.28
34911,349.11
34994,349.94
35077,350.77
35158,351.58
35238,352.38
35318,353.18
35398,353.98
35478,354.78
35557,355.57
35634,356.34
35713,357.13
35791,357.91
35869,358.69
35947,359.47
36024,360.24
36102,361.02
36180,361.8
36257,362.57
36334,363.34
36413,364.13
36491,364.91
36570,365.7
36648,366.48
36727,367.27
36805,368.05
36884,368.84
36962,369.62
37041,370.41
37119,371.19
37196,371.96
37275,372.75
37353,373.53
37431,374.31
37509,375.09
37587,375.87
37664,376.64
37742,377.42
37820,378.2
37897,378.97
37974,379.74
38052,380.52
38129,381.29
38205,382.05
38283,382.83
38360,383.6
38437,384.37
38516,385.16
38594,385.94
38672,386.72
38750,387.5
38827,388.27
38905,389.05
38983,389.83
39061,390.61
39140,391.4
39219,392.19
39298,392.98
39378,393.78
39457,394.57
39537,395.37
39617,396.17
39697,396.97
39778,397.78
39858,398.58
39937,399.37
40017,400.17
40097,400.97
40176,401.76
40254,402.54
40332,403.32
40410,404.1
40488,404.88
40565,405.65
40642,406.42
40720,407.2
40798,407.98
40877,408.77
40956,409.56
41034,410.34
41113,411.13
41191,411.91
41270,412.7
41348,413.48
41426,414.26
41503,415.03
41580,415.8
41658,416.58
41734,417.34
41811,418.11
41888,418.88
41965,419.65
42042,420.42
42120,421.2
42197,421.97
42274,422.74
42351,423.51
42429,424.29
42507,425.07
42585,425.85
42663,426.63
42741,427.41
42819,428.19
42897,428.97
42975,429.75
43054,430.54
43133,431.33
43211,432.11
43289,432.89
43368,433.68
43445,434.45
43523,435.23
43600,436.0
43677,436.77
43755,437.55
43833,438.33
43911,439.11
43989,439.89
44068,440.68
44148,441.48
44227,442.27
44306,443.06
44385,443.85
44465,444.65
44544,445.44
44623,446.23
44700,447.0
44778,447.78
44855,448.55
44932,449.32
45009,450.09
45086,450.86
45162,451.62
45239,452.39
45315,453.15
45391,453.91
45467,454.67
45541,455.41
45615,456.15
45689,456.89
45763,457.63
45837,458.37
45911,459.11
45986,459.86
46061,460.61
46137,461.37
46213,462.13
46289,462.89
46365,463.65
46442,464.42
46520,465.2
46597,465.97
46673,466.73
46751,467.51
46829,468.29
46906,469.06
46984,469.84
47061,470.61
47139,471.39
47216,472.16
47294,472.94
47371,473.71
47448,474.48
47524,475.24
47601,476.01
47676,476.76
47753,477.53
47831,478.31
47909,479.09
47986,479.86
48064,480.64
48141,481.41
48218,482.18
48294,482.94
48370,483.7
48445,484.45
48520,485.2
48595,485.95
48669,486.69
48743,487.43
48817,488.17
48891,488.91
48967,489.67
49042,490.42
49117,491.17
49193,491.93
49269,492.69
49344,493.44
49419,494.19
49495,494.95
49571,495.71
49648,496.48
49725,497.25
49802,498.02
49880,498.8
49959,499.59
50038,500.38
50116,501.16
50194,501.94
50273,502.73
50351,503.51
50429,504.29
50505,505.05
50582,505.82
50659,506.59
50737,507.37
50814,508.14
50890,508.9
50965,509.65
51040,510.4
51114,511.14
51188,511.88
51261,512.61
51335,513.35
51409,514.09
51483,514.83
51557,515.57
51630,516.3
51705,517.05
51774,517.74
51843,518.43
51924,519.24
52005,520.05
52082,520.82
52159,521.59
52232,522.32
52306,523.06
52381,523.81
52457,524.57
52533,525.33
52611,526.11
52689,526.89
52763,527.63
52839,528.39
52916,529.16
52993,529.93
53072,530.72
53150,531.5
53229,532.29
53309,533.09
53388,533.88
53468,534.68
53547,535.47
53626,536.26
53706,537.06
53785,537.85
53865,538.65
53944,539.44
54024,540.24
54102,541.02
54182,541.82
54261,542.61
54339,543.39
54418,544.18
54496,544.96
54575,545.75
54653,546.53
54732,547.32
54811,548.11
54890,548.9
54969,549.69
55049,550.49
55128,551.28
55207,552.07
55285,552.85
55363,553.63
55441,554.41
55519,555.19
55597,555.97
55674,556.74
55751,557.51
55829,558.29
55907,559.07
55985,559.85
56062,560.62
56139,561.39
56216,562.16
56294,562.94
56371,563.71
56448,564.48
56525,565.25
56601,566.01
56678,566.78
56755,567.55
56831,568.31
56906,569.06
56983,569.83
57059,570.59
57136,571.36
57212,572.12
57289,572.89
57365,573.65
57442,574.42
57519,575.19
57596,575.96
57674,576.74
57750,577.5
57828,578.28
57906,579.06
57983,579.83
58060,580.6
58137,581.37
58215,582.15
58292,582.92
58369,583.69
58446,584.46
58523,585.23
58601,586.01
58678,586.78
58755,587.55
58832,588.32
58909,589.09
58986,589.86
59063,590.63
59140,591.4
59216,592.16
59293,592.93
59368,593.68
59445,594.45
59522,595.22
59598,595.98
59673,596.73
59749,597.49
59822,598.22
59896,598.96
59968,599.68
60041,600.41
60115,601.15
60191,601.91
60266,602.66
60343,603.43
60419,604.19
60496,604.96
60573,605.73
60648,606.48
60722,607.22
60797,607.97
60871,608.71
60946,609.46
61020,610.2
61095,610.95
61170,611.7
61247,612.47
61324,613.24
61401,614.01
61480,614.8
61559,615.59
61638,616.38
61717,617.17
61797,617.97
61878,618.78
61958,619.58
62037,620.37
62117,621.17
62198,621.98
62278,622.78
62357,623.57
62437,624.37
62516,625.16
62595,625.95
62673,626.73
62752,627.52
62830,628.3
62909,629.09
62987,629.87
63065,630.65
63144,631.44
63222,632.22
63301,633.01
63379,633.79
63457,634.57
63535,635.35
63614,636.14
63692,636.92
63770,637.7
63847,638.47
63924,639.24
64000,640.0
64078,640.78
64156,641.56
64233,642.33
64311,643.11
64388,643.88
64466,644.66
64544,645.44
64621,646.21
64698,646.98
64776,647.76
64856,648.56
64934,649.34
65012,650.12
65091,650.91
65169,651.69
65247,652.47
65325,653.25
65403,654.03
65481,654.81
65559,655.59
65638,656.38
65716,657.16
65793,657.93
65871,658.71
65949,659.49
66027,660.27
66104,661.04
66182,661.82
66260,662.6
66338,663.38
66417,664.17
66495,664.95
66573,665.73
66652,666.52
66731,667.31
66810,668.1
66889,668.89
66967,669.67
67046,670.46
67124,671.24
67204,672.04
67282,672.82
67360,673.6
67439,674.39
67519,675.19
67598,675.98
67676,676.76
67754,677.54
67830,678.3
67906,679.06
67982,679.82
68057,680.57
68132,681.32
68207,682.07
68282,682.82
68358,683.58
68434,684.34
68508,685.08
68584,685.84
68660,686.6
68737,687.37
68814,688.14
68892,688.92
68969,689.69
69049,690.49
69129,691.29
69205,692.05
69284,692.84
69364,693.64
69451,694.51
69530,695.3
69605,696.05
69685,696.85
69765,697.65
69844,698.44
69922,699.22
69999,699.99
70076,700.76
70153,701.53
70235,702.35
70307,703.07
70384,703.84
70461,704.61
70539,705.39
70622,706.22
70694,706.94
70772,707.72
70849,708.49
70926,709.26
71003,710.03
71080,710.8
71158,711.58
71235,712.35
71312,713.12
71390,713.9
71474,714.74
71547,715.47
71626,716.26
71710,717.1
71783,717.83
71862,718.62
71941,719.41
72021,720.21
72101,721.01
72186,721.86
72263,722.63
72341,723.41
72421,724.21
72502,725.02
72583,725.83
72670,726.7
72747,727.47
72825,728.25
72903,729.03
72989,729.89
73062,730.62
73132,731.32
73207,732.07
73281,732.81
73361,733.61
73430,734.3
73504,735.04
73579,735.79
73654,736.54
73735,737.35
73805,738.05
73880,738.8
73955,739.55
74029,740.29
74104,741.04
74180,741.8
74256,742.56
74332,743.32
74409,744.09
74487,744.87
74566,745.66
74644,746.44
74723,747.23
74807,748.07
74881,748.81
74960,749.6
75039,750.39
75119,751.19
75199,751.99
75280,752.8
75360,753.6
75441,754.41
75522,755.22
75602,756.02
75683,756.83
75764,757.64
75844,758.44
75924,759.24
76005,760.05
76086,760.86
76172,761.72
76244,762.44
76328,763.28
76400,764.0
76482,764.82
76553,765.53
76630,766.3
76707,767.07
76782,767.82
76856,768.56
76917,769.17
76999,769.99
77081,770.81
77154,771.54
77221,772.21
77294,772.94
77372,773.72
77440,774.4
77520,775.2
77589,775.89
77663,776.63
77736,777.36
77815,778.15
77883,778.83
77956,779.56
78028,780.28
78099,780.99
78184,781.84
78270,782.7
78338,783.38
78406,784.06
78525,785.25
78645,786.45
78711,787.11
78777,787.77
78850,788.5
78911,789.11
78980,789.8
79055,790.55
79126,791.26
79195,791.95
79262,792.62
79335,793.35
79408,794.08
79487,794.87
79555,795.55
79629,796.29
79702,797.02
79775,797.75
79841,798.41
79907,799.07
79986,799.86
80066,800.66
80139,801.39
80211,802.11
80283,802.83
80356,803.56
80429,804.29
80502,805.02
80576,805.76
80650,806.5
80723,807.23
80797,807.97
80870,808.7
80943,809.43
81016,810.16
81087,810.87
81158,811.58
81231,812.31
81304,813.04
81372,813.72
81441,814.41
81511,815.11
81581,815.81
81650,816.5
81719,817.19
81787,817.87
81856,818.56
81926,819.26
81997,819.97
82069,820.69
82142,821.42
82215,822.15
82290,822.9
82366,823.66
82442,824.42
82520,825.2
82597,825.97
82676,826.76
82755,827.55
82834,828.34
82913,829.13
82994,829.94
83075,830.75
83155,831.55
83234,832.34
83316,833.16
83398,833.98
83480,834.8
83562,835.62
83644,836.44
83724,837.24
83803,838.03
83878,838.78
83954,839.54
84030,840.3
84106,841.06
84181,841.81
84257,842.57
84331,843.31
84405,844.05
84478,844.78
84551,845.51
84626,846.26
84702,847.02
84778,847.78
84855,848.55
84932,849.32
85011,850.11
85089,850.89
85167,851.67
85245,852.45
85323,853.23
85402,854.02
85479,854.79
85556,855.56
85634,856.34
85712,857.12
85790,857.9
85867,858.67
85945,859.45
86022,860.22
86100,861.0
86178,861.78
86256,862.56
86332,863.32
86410,864.1
86488,864.88
86565,865.65
86643,866.43
86720,867.2
86798,867.98
86876,868.76
86954,869.54
87032,870.32
87110,871.1
87188,871.88
87266,872.66
87344,873.44
87422,874.22
87500,875.0
87578,875.78
87655,876.55
87732,877.32
87809,878.09
87885,878.85
87962,879.62
88038,880.38
88114,881.14
88190,881.9
88266,882.66
88342,883.42
88418,884.18
88492,884.92
88567,885.67
88641,886.41
88716,887.16
88789,887.89
88862,888.62
88935,889.35
89009,890.09
89085,890.85
89162,891.62
89240,892.4
89317,893.17
89393,893.93
89470,894.7
89546,895.46
89623,896.23
89699,896.99
89776,897.76
89855,898.55
89932,899.32
90009,900.09
90087,900.87
90165,901.65
90241,902.41
90318,903.18
90395,903.95
90472,904.72
90548,905.48
90624,906.24
90700,907.0
90776,907.76
90852,908.52
90928,909.28
91004,910.04
91081,910.81
91159,911.59
91237,912.37
91315,913.15
91393,913.93
91472,914.72
91550,915.5
91629,916.29
91708,917.08
91786,917.86
91864,918.64
91943,919.43
92022,920.22
92102,921.02
92182,921.82
92262,922.62
92343,923.43
92425,924.25
92506,925.06
92587,925.87
92669,926.69
92752,927.52
92834,928.34
92916,929.16
92997,929.97
93078,930.78
93158,931.58
93239,932.39
93320,933.2
93400,934.0
93481,934.81
93561,935.61
93641,936.41
93722,937.22
93804,938.04
93888,938.88
93970,939.7
94053,940.53
94137,941.37
94220,942.2
94302,943.02
94385,943.85
94466,944.66
94545,945.45
94624,946.24
94701,947.01
94778,947.78
94855,948.55
94932,949.32
95008,950.08
95085,950.85
95163,951.63
95240,952.4
95318,953.18
95397,953.97
95475,954.75
95555,955.55
95635,956.35
95714,957.14
95794,957.94
95872,958.72
95951,959.51
96030,960.3
96108,961.08
96186,961.86
96264,962.64
96341,963.41
96418,964.18
96495,964.95
96572,965.72
96650,966.5
96728,967.28
96806,968.06
96884,968.84
96962,969.62
97041,970.41
97121,971.21
97200,972.0
97279,972.79
97358,973.58
97437,974.37
97517,975.17
97596,975.96
97674,976.74
97753,977.53
97832,978.32
97910,979.1
97988,979.88
98065,980.65
98143,981.43
98222,982.22
98299,982.99
98377,983.77
98456,984.56
98535,985.35
98614,986.14
98693,986.93
98774,987.74
98855,988.55
98936,989.36
99017,990.17
99099,990.99
99183,991.83
99266,992.66
99350,993.5
99434,994.34
99520,995.2
99607,996.07
99693,996.93
99779,997.79
99864,998.64
99947,999.47
100028,1000.28
100110,1001.1
100190,1001.9
100269,1002.69
100348,1003.48
100428,1004.28
100507,1005.07
100586,1005.86
100664,1006.64
100743,1007.43
100822,1008.22
100902,1009.02
100981,1009.81
101061,1010.61
101142,1011.42
101222,1012.22
101304,1013.04
101386,1013.86
101471,1014.71
101556,1015.56
101641,1016.41
101728,1017.28
101817,1018.17
101903,1019.03
101990,1019.9
102074,1020.74
102156,1021.56
102236,1022.36
102315,1023.15
102394,1023.94
102473,1024.73
102551,1025.51
102631,1026.31
102711,1027.11
102792,1027.92
102874,1028.74
102956,1029.56
103039,1030.39
103124,1031.24
103210,1032.1
103297,1032.97
103383,1033.83
103472,1034.72
103559,1035.59
103644,1036.44
103730,1037.3
103813,1038.13
103894,1038.94
103974,1039.74
104054,1040.54
104134,1041.34
104213,1042.13
104292,1042.92
104372,1043.72
104451,1044.51
104531,1045.31
104611,1046.11
104691,1046.91
104771,1047.71
104852,1048.52
104933,1049.33
105014,1050.14
105096,1050.96
105177,1051.77
105258,1052.58
105339,1053.39
105422,1054.22
105503,1055.03
105585,1055.85
105668,1056.68
105751,1057.51
105834,1058.34
105921,1059.21
106008,1060.08
106093,1060.93
106178,1061.78
106263,1062.63
106346,1063.46
106427,1064.27
106507,1065.07
106587,1065.87
106666,1066.66
106745,1067.45
106824,1068.24
106904,1069.04
106984,1069.84
107064,1070.64
107144,1071.44
107225,1072.25
107307,1073.07
107389,1073.89
107473,1074.73
107558,1075.58
107644,1076.44
107729,1077.29
107812,1078.12
107895,1078.95
107977,1079.77
108057,1080.57
108135,1081.35
108214,1082.14
108293,1082.93
108371,1083.71
108450,1084.5
108530,1085.3
108610,1086.1
108690,1086.9
108771,1087.71
108853,1088.53
108936,1089.36
109019,1090.19
109104,1091.04
109188,1091.88
109274,1092.74
109361,1093.61
109449,1094.49
109539,1095.39
109626,1096.26
109714,1097.14
109807,1098.07
109886,1098.86
109966,1099.66
110047,1100.47
110126,1101.26
110205,1102.05
110284,1102.84
110363,1103.63
110442,1104.42
110521,1105.21
110602,1106.02
110683,1106.83
110764,1107.64
110847,1108.47
110931,1109.31
111018,1110.18
111106,1111.06
111196,1111.96
111287,1112.87
111381,1113.81
111467,1114.67
111554,1115.54
111640,1116.4
111725,1117.25
111810,1118.1
111892,1118.92
111972,1119.72
112052,1120.52
112131,1121.31
112210,1122.1
112289,1122.89
112367,1123.67
112447,1124.47
112525,1125.25
112604,1126.04
112684,1126.84
112765,1127.65
112847,1128.47
112929,1129.29
113012,1130.12
113096,1130.96
113181,1131.81
113268,1132.68
113357,1133.57
113447,1134.47
113540,1135.4
113634,1136.34
113725,1137.25
113814,1138.14
113902,1139.02
113988,1139.88
114073,1140.73
114156,1141.56
114239,1142.39
114321,1143.21
114404,1144.04
114487,1144.87
114570,1145.7
114653,1146.53
114737,1147.37
114822,1148.22
114908,1149.08
114994,1149.94
115080,1150.8
115164,1151.64
115248,1152.48
115333,1153.33
115415,1154.15
115497,1154.97
115580,1155.8
115661,1156.61
115741,1157.41
115823,1158.23
115905,1159.05
115987,1159.87
116071,1160.71
116154,1161.54
116240,1162.4
116326,1163.26
116415,1164.15
116504,1165.04
116594,1165.94
116685,1166.85
116772,1167.72
116859,1168.59
116945,1169.45
117027,1170.27
117114,1171.14
117191,1171.91
117267,1172.67
117346,1173.46
117426,1174.26
117505,1175.05
117586,1175.86
117668,1176.68
117750,1177.5
117834,1178.34
117918,1179.18
118002,1180.02
118087,1180.87
118174,1181.74
118261,1182.61
118347,1183.47
118434,1184.34
118522,1185.22
118608,1186.08
118691,1186.91
118774,1187.74
118855,1188.55
118935,1189.35
119013,1190.13
119093,1190.93
119173,1191.73
119252,1192.52
119331,1193.31
119413,1194.13
119494,1194.94
119576,1195.76
119658,1196.58
119740,1197.4
119824,1198.24
119907,1199.07
119991,1199.91
120075,1200.75
120159,1201.59
120243,1202.43
120326,1203.26
120409,1204.09
120493,1204.93
120576,1205.76
120658,1206.58
120741,1207.41
120822,1208.22
120904,1209.04
120985,1209.85
121066,1210.66
121147,1211.47
121228,1212.28
121310,1213.1
121392,1213.92
121475,1214.75
121558,1215.58
121641,1216.41
121724,1217.24
121806,1218.06
121891,1218.91
121977,1219.77
122062,1220.62
122146,1221.46
122230,1222.3
122313,1223.13
122395,1223.95
122476,1224.76
122556,1225.56
122637,1226.37
122718,1227.18
122797,1227.97
122876,1228.76
122957,1229.57
123037,1230.37
123117,1231.17
123198,1231.98
123280,1232.8
123362,1233.62
123444,1234.44
123527,1235.27
123612,1236.12
123696,1236.96
123781,1237.81
123865,1238.65
123951,1239.51
124035,1240.35
124117,1241.17
124200,1242.0
124283,1242.83
124363,1243.63
124442,1244.42
124522,1245.22
124601,1246.01
124682,1246.82
124761,1247.61
124842,1248.42
124923,1249.23
125005,1250.05
125086,1250.86
125169,1251.69
125253,1252.53
125339,1253.39
125426,1254.26
125515,1255.15
125601,1256.01
125685,1256.85
125769,1257.69
125851,1258.51
125933,1259.33
126014,1260.14
126096,1260.96
126176,1261.76
126256,1262.56
126336,1263.36
126417,1264.17
126497,1264.97
126578,1265.78
126659,1266.59
126741,1267.41
126823,1268.23
126907,1269.07
126990,1269.9
127074,1270.74
127158,1271.58
127243,1272.43
127328,1273.28
127415,1274.15
127503,1275.03
127592,1275.92
127679,1276.79
127768,1277.68
127856,1278.56
127941,1279.41
128026,1280.26
128108,1281.08
128187,1281.87
128265,1282.65
128343,1283.43
128421,1284.21
128500,1285.0
128578,1285.78
128658,1286.58
128739,1287.39
128820,1288.2
128901,1289.01
128985,1289.85
129068,1290.68
129151,1291.51
129235,1292.35
129319,1293.19
129403,1294.03
129486,1294.86
129571,1295.71
129655,1296.55
129740,1297.4
129827,1298.27
129917,1299.17
130006,1300.06
130093,1300.93
130183,1301.83
130275,1302.75
130366,1303.66
130457,1304.57
130539,1305.39
130622,1306.22
130706,1307.06
130785,1307.85
130864,1308.64
130944,1309.44
131023,1310.23
131104,1311.04
131186,1311.86
131271,1312.71
131357,1313.57
131445,1314.45
131535,1315.35
131625,1316.25
131717,1317.17
131810,1318.1
131903,1319.03
131993,1319.93
132083,1320.83
132174,1321.74
132263,1322.63
132347,1323.47
132429,1324.29
132512,1325.12
132592,1325.92
132673,1326.73
132753,1327.53
132834,1328.34
132916,1329.16
132999,1329.99
133082,1330.82
133165,1331.65
133250,1332.5
133335,1333.35
133421,1334.21
133508,1335.08
133597,1335.97
133687,1336.87
133777,1337.77
133867,1338.67
133956,1339.56
134042,1340.42
134125,1341.25
134209,1342.09
134291,1342.91
134373,1343.73
134454,1344.54
134536,1345.36
134617,1346.17
134699,1346.99
134783,1347.83
134868,1348.68
134953,1349.53
135041,1350.41
135129,1351.29
135217,1352.17
135306,1353.06
135397,1353.97
135487,1354.87
135579,1355.79
135672,1356.72
135767,1357.67
135863,1358.63
135957,1359.57
136051,1360.51
136142,1361.42
136233,1362.33
136316,1363.16
136399,1363.99
136483,1364.83
136564,1365.64
136645,1366.45
136726,1367.26
136807,1368.07
136889,1368.89
136974,1369.74
137060,1370.6
137146,1371.46
137233,1372.33
137320,1373.2
137407,1374.07
137495,1374.95
137582,1375.82
137673,1376.73
137765,1377.65
137854,1378.54
137943,1379.43
138029,1380.29
138114,1381.14
138198,1381.98
138279,1382.79
138359,1383.59
138439,1384.39
138520,1385.2
138601,1386.01
138683,1386.83
138766,1387.66
138850,1388.5
138936,1389.36
139021,1390.21
139107,1391.07
139194,1391.94
139281,1392.81
139370,1393.7
139459,1394.59
139549,1395.49
139641,1396.41
139733,1397.33
139822,1398.22
139912,1399.12
139999,1399.99
140082,1400.82
140164,1401.64
140245,1402.45
140324,1403.24
140402,1404.02
140481,1404.81
140560,1405.6
140640,1406.4
140720,1407.2
140803,1408.03
140888,1408.88
140973,1409.73
141059,1410.59
141146,1411.46
141233,1412.33
141321,1413.21
141411,1414.11
141501,1415.01
141592,1415.92
141686,1416.86
141780,1417.8
141870,1418.7
141961,1419.61
142054,1420.54
142144,1421.44
142229,1422.29
142313,1423.13
142396,1423.96
142481,1424.81
142560,1425.6
142639,1426.39
142721,1427.21
142803,1428.03
142886,1428.86
142971,1429.71
143056,1430.56
143141,1431.41
143228,1432.28
143314,1433.14
143401,1434.01
143488,1434.88
143575,1435.75
143665,1436.65
143754,1437.54
143841,1438.41
143930,1439.3
144019,1440.19
144105,1441.05
144190,1441.9
144274,1442.74
144354,1443.54
144433,1444.33
144517,1445.17
144596,1445.96
144675,1446.75
144756,1447.56
144839,1448.39
144923,1449.23
145007,1450.07
145092,1450.92
145178,1451.78
145265,1452.65
145352,1453.52
145441,1454.41
145529,1455.29
145619,1456.19
145712,1457.12
145806,1458.06
145898,1458.98
145986,1459.86
146074,1460.74
146159,1461.59
146242,1462.42
146324,1463.24
146406,1464.06
146487,1464.87
146568,1465.68
146648,1466.48
146732,1467.32
146816,1468.16
146899,1468.99
146984,1469.84
147070,1470.7
147155,1471.55
147240,1472.4
147325,1473.25
147412,1474.12
147499,1474.99
147587,1475.87
147676,1476.76
147768,1477.68
147861,1478.61
147959,1479.59
148044,1480.44
148129,1481.29
148214,1482.14
148303,1483.03
148381,1483.81
148460,1484.6
148541,1485.41
148622,1486.22
148705,1487.05
148788,1487.88
148871,1488.71
148954,1489.54
149038,1490.38
149122,1491.22
149207,1492.07
149291,1492.91
149377,1493.77
149463,1494.63
149550,1495.5
149636,1496.36
149723,1497.23
149813,1498.13
149901,1499.01
149990,1499.9
150079,1500.79
150163,1501.63
150247,1502.47
150329,1503.29
150409,1504.09
150490,1504.9
150570,1505.7
150650,1506.5
150731,1507.31
150812,1508.12
150893,1508.93
150976,1509.76
151059,1510.59
151144,1511.44
151230,1512.3
151316,1513.16
151402,1514.02
151490,1514.9
151579,1515.79
151669,1516.69
151759,1517.59
151851,1518.51
151942,1519.42
152035,1520.35
152127,1521.27
152218,1522.18
152311,1523.11
152393,1523.93
152475,1524.75
152559,1525.59
152641,1526.41
152722,1527.22
152801,1528.01
152881,1528.81
152964,1529.64
153049,1530.49
153137,1531.37
153226,1532.26
153315,1533.15
153405,1534.05
153496,1534.96
153586,1535.86
153675,1536.75
153766,1537.66
153857,1538.57
153951,1539.51
154046,1540.46
154140,1541.4
154233,1542.33
154323,1543.23
154413,1544.13
154499,1544.99
154583,1545.83
154670,1546.7
154752,1547.52
154831,1548.31
154910,1549.1
154989,1549.89
155069,1550.69
155149,1551.49
155230,1552.3
155313,1553.13
155400,1554.0
155487,1554.87
155575,1555.75
155664,1556.64
155754,1557.54
155845,1558.45
155935,1559.35
156025,1560.25
156116,1561.16
156206,1562.06
156297,1562.97
156389,1563.89
156481,1564.81
156573,1565.73
156667,1566.67
156749,1567.49
156832,1568.32
156917,1569.17
157001,1570.01
157084,1570.84
157168,1571.68
157252,1572.52
157335,1573.35
157420,1574.2
157508,1575.08
157596,1575.96
157684,1576.84
157775,1577.75
157866,1578.66
157957,1579.57
158048,1580.48
158138,1581.38
158231,1582.31
158324,1583.24
158416,1584.16
158508,1585.08
158600,1586.0
158688,1586.88
158771,1587.71
158855,1588.55
158937,1589.37
159024,1590.24
159101,1591.01
159179,1591.79
159260,1592.6
159340,1593.4
159422,1594.22
159506,1595.06
159591,1595.91
159676,1596.76
159762,1597.62
159850,1598.5
159937,1599.37
160025,1600.25
160113,1601.13
160203,1602.03
160294,1602.94
160385,1603.85
160476,1604.76
160571,1605.71
160664,1606.64
160754,1607.54
160847,1608.47
160929,1609.29
161012,1610.12
161092,1610.92
161178,1611.78
161263,1612.63
161348,1613.48
161433,1614.33
161518,1615.18
161606,1616.06
161692,1616.92
161778,1617.78
161863,1618.63
161949,1619.49
162037,1620.37
162125,1621.25
162215,1622.15
162306,1623.06
162397,1623.97
162488,1624.88
162582,1625.82
162674,1626.74
162766,1627.66
162859,1628.59
162946,1629.46
163034,1630.34
163117,1631.17
163200,1632.0
163285,1632.85
163372,1633.72
163481,1634.81
163591,1635.91
163692,1636.92
163777,1637.77
163864,1638.64
163951,1639.51
164039,1640.39
164128,1641.28
164217,1642.17
164306,1643.06
164396,1643.96
164488,1644.88
164581,1645.81
164675,1646.75
164771,1647.71
164866,1648.66
164961,1649.61
165057,1650.57
165147,1651.47
165233,1652.33
165314,1653.14
165395,1653.95
165477,1654.77
165556,1655.56
165639,1656.39
165723,1657.23
165807,1658.07
165892,1658.92
165977,1659.77
166062,1660.62
166149,1661.49
166236,1662.36
166324,1663.24
166414,1664.14
166503,1665.03
166590,1665.9
166679,1666.79
166771,1667.71
166863,1668.63
166954,1669.54
167044,1670.44
167135,1671.35
167224,1672.24
167316,1673.16
167396,1673.96
167481,1674.81
167570,1675.7
167644,1676.44
167726,1677.26
167807,1678.07
167889,1678.89
167972,1679.72
168057,1680.57
168143,1681.43
168231,1682.31
168319,1683.19
168407,1684.07
168496,1684.96
168587,1685.87
168679,1686.79
168772,1687.72
168874,1688.74
168964,1689.64
169061,1690.61
169166,1691.66
169256,1692.56
169350,1693.5
169440,1694.4
169528,1695.28
169619,1696.19
169703,1697.03
169783,1697.83
169869,1698.69
169949,1699.49
170035,1700.35
170108,1701.08
170190,1701.9
170272,1702.72
170357,1703.57
170444,1704.44
170534,1705.34
170625,1706.25
170723,1707.23
170815,1708.15
170900,1709.0
170991,1709.91
171083,1710.83
171175,1711.75
171268,1712.68
171369,1713.69
171456,1714.56
171554,1715.54
171652,1716.52
171756,1717.56
171848,1718.48
171940,1719.4
172021,1720.21
172108,1721.08
172195,1721.95
172279,1722.79
172364,1723.64
172447,1724.47
172530,1725.3
172612,1726.12
172695,1726.95
172778,1727.78
172861,1728.61
172944,1729.44
173027,1730.27
173112,1731.12
173197,1731.97
173284,1732.84
173373,1733.73
173465,1734.65
173557,1735.57
173652,1736.52
173749,1737.49
173852,1738.52
173949,1739.49
174039,1740.39
174141,1741.41
174223,1742.23
174308,1743.08
174395,1743.95
174486,1744.86
174568,1745.68
174650,1746.5
174723,1747.23
174801,1748.01
174885,1748.85
174958,1749.58
175038,1750.38
175119,1751.19
175209,1752.09
175289,1752.89
175377,1753.77
175468,1754.68
175560,1755.6
175652,1756.52
175752,1757.52
175846,1758.46
175942,1759.42
176036,1760.36
176127,1761.27
176230,1762.3
176325,1763.25
176413,1764.13
176509,1765.09
176600,1766.0
176694,1766.94
176775,1767.75
176859,1768.59
176947,1769.47
177022,1770.22
177103,1771.03
177183,1771.83
177264,1772.64
177347,1773.47
177432,1774.32
177519,1775.19
177606,1776.06
177695,1776.95
177784,1777.84
177874,1778.74
177966,1779.66
178060,1780.6
178154,1781.54
178255,1782.55
178350,1783.5
178440,1784.4
178538,1785.38
178631,1786.31
178720,1787.2
178807,1788.07
178892,1788.92
178974,1789.74
179055,1790.55
179135,1791.35
179216,1792.16
179296,1792.96
179377,1793.77
179460,1794.6
179545,1795.45
179632,1796.32
179718,1797.18
179805,1798.05
179895,1798.95
179985,1799.85
180075,1800.75
180166,1801.66
180257,1802.57
180351,1803.51
180446,1804.46
180538,1805.38
180627,1806.27
180718,1807.18
180809,1808.09
180901,1809.01
180983,1809.83
181069,1810.69
181153,1811.53
181233,1812.33
181313,1813.13
181394,1813.94
181474,1814.74
181556,1815.56
181638,1816.38
181721,1817.21
181805,1818.05
181891,1818.91
181976,1819.76
182064,1820.64
182153,1821.53
182243,1822.43
182332,1823.32
182420,1824.2
182510,1825.1
182600,1826.0
182690,1826.9
182783,1827.83
182876,1828.76
182965,1829.65
183053,1830.53
183138,1831.38
183223,1832.23
183313,1833.13
183395,1833.95
183473,1834.73
183551,1835.51
183633,1836.33
183716,1837.16
183794,1837.94
183876,1838.76
183959,1839.59
184043,1840.43
184128,1841.28
184214,1842.14
184303,1843.03
184392,1843.92
184482,1844.82
184573,1845.73
184664,1846.64
184757,1847.57
184853,1848.53
184949,1849.49
185044,1850.44
185140,1851.4
185241,1852.41
185330,1853.3
185419,1854.19
185498,1854.98
185582,1855.82
185666,1856.66
185747,1857.47
185826,1858.26
185906,1859.06
185987,1859.87
186069,1860.69
186152,1861.52
186236,1862.36
186321,1863.21
186407,1864.07
186494,1864.94
186580,1865.8
186667,1866.67
186754,1867.54
186843,1868.43
186932,1869.32
187022,1870.22
187113,1871.13
187213,1872.13
187306,1873.06
187393,1873.93
187488,1874.88
187581,1875.81
187677,1876.77
187761,1877.61
187845,1878.45
187928,1879.28
188011,1880.11
188094,1880.94
188175,1881.75
188256,1882.56
188337,1883.37
188422,1884.22
188508,1885.08
188594,1885.94
188680,1886.8
188768,1887.68
188857,1888.57
188947,1889.47
189037,1890.37
189128,1891.28
189220,1892.2
189314,1893.14
189410,1894.1
189506,1895.06
189604,1896.04
189699,1896.99
189794,1897.94
189884,1898.84
189983,1899.83
190070,1900.7
190157,1901.57
190237,1902.37
190320,1903.2
190401,1904.01
190483,1904.83
190563,1905.63
190645,1906.45
190727,1907.27
190810,1908.1
190896,1908.96
190982,1909.82
191074,1910.74
191154,1911.54
191243,1912.43
191333,1913.33
191430,1914.3
191522,1915.22
191614,1916.14
191701,1917.01
191796,1917.96
191892,1918.92
191994,1919.94
192090,1920.9
192178,1921.78
192269,1922.69
192360,1923.6
192447,1924.47
192535,1925.35
192621,1926.21
192711,1927.11
192788,1927.88
192869,1928.69
192955,1929.55
193029,1930.29
193111,1931.11
193194,1931.94
193277,1932.77
193362,1933.62
193450,1934.5
193538,1935.38
193627,1936.27
193718,1937.18
193809,1938.09
193901,1939.01
193999,1939.99
194088,1940.88
194185,1941.85
194284,1942.84
194383,1943.83
194491,1944.91
194583,1945.83
194686,1946.86
194773,1947.73
194861,1948.61
194945,1949.45
195026,1950.26
195111,1951.11
195191,1951.91
195270,1952.7
195345,1953.45
195434,1954.34
195509,1955.09
195593,1955.93
195678,1956.78
195766,1957.66
195861,1958.61
195942,1959.42
196032,1960.32
196130,1961.3
196217,1962.17
196318,1963.18
196413,1964.13
196508,1965.08
196606,1966.06
196696,1966.96
196799,1967.99
196890,1968.9
196992,1969.92
197080,1970.8
197168,1971.68
197261,1972.61
197349,1973.49
197441,1974.41
197519,1975.19
197602,1976.02
197682,1976.82
197767,1977.67
197840,1978.4
197921,1979.21
198005,1980.05
198091,1980.91
198185,1981.85
198269,1982.69
198360,1983.6
198456,1984.56
198539,1985.39
198630,1986.3
198720,1987.2
198810,1988.1
198902,1989.02
198994,1989.94
199093,1990.93
199180,1991.8
199274,1992.74
199368,1993.68
199466,1994.66
199554,1995.54
199636,1996.36
199724,1997.24
199810,1998.1
199897,1998.97
199981,1999.81
200065,2000.65
200148,2001.48
200233,2002.33
200317,2003.17
200400,2004.0
200485,2004.85
200571,2005.71
200659,2006.59
200749,2007.49
200842,2008.42
200938,2009.38
201035,2010.35
201135,2011.35
201236,2012.36
201341,2013.41
201436,2014.36
201532,2015.32
201630,2016.3
201711,2017.11
201803,2018.03
201894,2018.94
201979,2019.79
202056,2020.56
202136,2021.36
202221,2022.21
202297,2022.97
202374,2023.74
202455,2024.55
202542,2025.42
202629,2026.29
202713,2027.13
202805,2028.05
202896,2028.96
202987,2029.87
203079,2030.79
203170,2031.7
203263,2032.63
203358,2033.58
203452,2034.52
203548,2035.48
203644,2036.44
203734,2037.34
203826,2038.26
203915,2039.15
204001,2040.01
204088,2040.88
204174,2041.74
204259,2042.59
204344,2043.44
204431,2044.31
204518,2045.18
204605,2046.05
204693,2046.93
204781,2047.81
204873,2048.73
204966,2049.66
205061,2050.61
205157,2051.57
205257,2052.57
205354,2053.54
205456,2054.56
205544,2055.44
205633,2056.33
205721,2057.21
205807,2058.07
205892,2058.92
205973,2059.73
206052,2060.52
206132,2061.32
206212,2062.12
206292,2062.92
206375,2063.75
206462,2064.62
206551,2065.51
206641,2066.41
206731,2067.31
206822,2068.22
206914,2069.14
207005,2070.05
207097,2070.97
207189,2071.89
207282,2072.82
207379,2073.79
207475,2074.75
207570,2075.7
207667,2076.67
207767,2077.67
207867,2078.67
207969,2079.69
208057,2080.57
208148,2081.48
208242,2082.42
208325,2083.25
208408,2084.08
208493,2084.93
208579,2085.79
208655,2086.55
208736,2087.36
208819,2088.19
208903,2089.03
208991,2089.91
209081,2090.81
209170,2091.7
209261,2092.61
209353,2093.53
209446,2094.46
209538,2095.38
209630,2096.3
209723,2097.23
209817,2098.17
209912,2099.12
210010,2100.1
210109,2101.09
210209,2102.09
210306,2103.06
210399,2103.99
210495,2104.95
210581,2105.81
210668,2106.68
210755,2107.55
210840,2108.4
210923,2109.23
211010,2110.1
211089,2110.89
211168,2111.68
211252,2112.52
211337,2113.37
211423,2114.23
211505,2115.05
211591,2115.91
211678,2116.78
211766,2117.66
211855,2118.55
211946,2119.46
212036,2120.36
212125,2121.25
212215,2122.15
212306,2123.06
212396,2123.96
212486,2124.86
212576,2125.76
212667,2126.67
212759,2127.59
212854,2128.54
212940,2129.4
213027,2130.27
213119,2131.19
213202,2132.02
213285,2132.85
213370,2133.7
213454,2134.54
213539,2135.39
213625,2136.25
213710,2137.1
213795,2137.95
213880,2138.8
213965,2139.65
214050,2140.5
214136,2141.36
214223,2142.23
214313,2143.13
214404,2144.04
214498,2144.98
214595,2145.95
214691,2146.91
214788,2147.88
214887,2148.87
214991,2149.91
215085,2150.85
215179,2151.79
215275,2152.75
215367,2153.67
215459,2154.59
215543,2155.43
215627,2156.27
215719,2157.19
215804,2158.04
215882,2158.82
215964,2159.64
216048,2160.48
216133,2161.33
216220,2162.2
216309,2163.09
216398,2163.98
216489,2164.89
216586,2165.86
216673,2166.73
216761,2167.61
216853,2168.53
216944,2169.44
217039,2170.39
217134,2171.34
217229,2172.29
217324,2173.24
217424,2174.24
217523,2175.23
217621,2176.21
217721,2177.21
217821,2178.21
217919,2179.19
218013,2180.13
218104,2181.04
218200,2182.0
218283,2182.83
218366,2183.66
218454,2184.54
218536,2185.36
218617,2186.17
218689,2186.89
218764,2187.64
218845,2188.45
218926,2189.26
219002,2190.02
219082,2190.82
219166,2191.66
219253,2192.53
219342,2193.42
219434,2194.34
219525,2195.25
219617,2196.17
219711,2197.11
219807,2198.07
219902,2199.02
220000,2200.0
220103,2201.03
220203,2202.03
220301,2203.01
220404,2204.04
220507,2205.07
220609,2206.09
220713,2207.13
220813,2208.13
220907,2209.07
221003,2210.03
221098,2210.98
221188,2211.88
221275,2212.75
221357,2213.57
221428,2214.28
221509,2215.09
221597,2215.97
221676,2216.76
221756,2217.56
221833,2218.33
221921,2219.21
222009,2220.09
222097,2220.97
222185,2221.85
222274,2222.74
222364,2223.64
222455,2224.55
222546,2225.46
222639,2226.39
222732,2227.32
222834,2228.34
222930,2229.3
223026,2230.26
223123,2231.23
223217,2232.17
223317,2233.17
223417,2234.17
223506,2235.06
223596,2235.96
223682,2236.82
223761,2237.61
223841,2238.41
223930,2239.3
224006,2240.06
224083,2240.83
224169,2241.69
224240,2242.4
224325,2243.25
224410,2244.1
224505,2245.05
224587,2245.87
224679,2246.79
224771,2247.71
224865,2248.65
224958,2249.58
225059,2250.59
225148,2251.48
225244,2252.44
225346,2253.46
225441,2254.41
225532,2255.32
225629,2256.29
225728,2257.28
225824,2258.24
225921,2259.21
226019,2260.19
226122,2261.22
226218,2262.18
226307,2263.07
226411,2264.11
226494,2264.94
226578,2265.78
226641,2266.41
226705,2267.05
226812,2268.12
226898,2268.98
227000,2270.0
227079,2270.79
227158,2271.58
227241,2272.41
227325,2273.25
227417,2274.17
227498,2274.98
227586,2275.86
227675,2276.75
227774,2277.74
227861,2278.61
227955,2279.55
228054,2280.54
228151,2281.51
228242,2282.42
228348,2283.48
228446,2284.46
228538,2285.38
228647,2286.47
228740,2287.4
228841,2288.41
228952,2289.52
229047,2290.47
229124,2291.24
229218,2292.18
229313,2293.13
229398,2293.98
229483,2294.83
229559,2295.59
229638,2296.38
229722,2297.22
229794,2297.94
229875,2298.75
229967,2299.67
230055,2300.55
230138,2301.38
230229,2302.29
230322,2303.22
230422,2304.22
230508,2305.08
230606,2306.06
230700,2307.0
230788,2307.88
230890,2308.9
230986,2309.86
231077,2310.77
231175,2311.75
231278,2312.78
231377,2313.77
231473,2314.73
231575,2315.75
231678,2316.78
231778,2317.78
231879,2318.79
231979,2319.79
232062,2320.62
232157,2321.57
232254,2322.54
232340,2323.4
232421,2324.21
232511,2325.11
232582,2325.82
232672,2326.72
232751,2327.51
232823,2328.23
232903,2329.03
232985,2329.85
233076,2330.76
233154,2331.54
233240,2332.4
233328,2333.28
233416,2334.16
233506,2335.06
233603,2336.03
233694,2336.94
233787,2337.87
233881,2338.81
233969,2339.69
234071,2340.71
234161,2341.61
234265,2342.65
234359,2343.59
234461,2344.61
234566,2345.66
234664,2346.64
234755,2347.55
234858,2348.58
234944,2349.44
235030,2350.3
235123,2351.23
235206,2352.06
235291,2352.91
235362,2353.62
235450,2354.5
235523,2355.23
235602,2356.02
235683,2356.83
235771,2357.71
235847,2358.47
235932,2359.32
236025,2360.25
236112,2361.12
236193,2361.93
236283,2362.83
236374,2363.74
236467,2364.67
236561,2365.61
236662,2366.62
236753,2367.53
236858,2368.58
236956,2369.56
237051,2370.51
237140,2371.4
237237,2372.37
237342,2373.42
237438,2374.38
237525,2375.25
237613,2376.13
237701,2377.01
237795,2377.95
237879,2378.79
237961,2379.61
238041,2380.41
238115,2381.15
238202,2382.02
238283,2382.83
238358,2383.58
238441,2384.41
238524,2385.24
238605,2386.05
238686,2386.86
238770,2387.7
238864,2388.64
238948,2389.48
239041,2390.41
239135,2391.35
239237,2392.37
239334,2393.34
239425,2394.25
239523,2395.23
239620,2396.2
239721,2397.21
239811,2398.11
239909,2399.09
240005,2400.05
240100,2401.0
240201,2402.01
240296,2402.96
240384,2403.84
240484,2404.84
240566,2405.66
240654,2406.54
240740,2407.4
240827,2408.27
240911,2409.11
241005,2410.05
241080,2410.8
241165,2411.65
241242,2412.42
241315,2413.15
241397,2413.97
241486,2414.86
241565,2415.65
241659,2416.59
241742,2417.42
241833,2418.33
241925,2419.25
242019,2420.19
242122,2421.22
242211,2422.11
242314,2423.14
242410,2424.1
242506,2425.06
242602,2426.02
242699,2426.99
242795,2427.95
242885,2428.85
242988,2429.88
243090,2430.9
243188,2431.88
243293,2432.93
243386,2433.86
243490,2434.9
243584,2435.84
243669,2436.69
243758,2437.58
243840,2438.4
243935,2439.35
244017,2440.17
244091,2440.91
244174,2441.74
244260,2442.6
244333,2443.33
244414,2444.14
244497,2444.97
244588,2445.88
244666,2446.66
244760,2447.6
244843,2448.43
244933,2449.33
245023,2450.23
245115,2451.15
245206,2452.06
245305,2453.05
245392,2453.92
245492,2454.92
245587,2455.87
245682,2456.82
245771,2457.71
245870,2458.7
245974,2459.74
246070,2460.7
246159,2461.59
246262,2462.62
246351,2463.51
246451,2464.51
246542,2465.42
246648,2466.48
246737,2467.37
246831,2468.31
246927,2469.27
247016,2470.16
247096,2470.96
247185,2471.85
247267,2472.67
247340,2473.4
247423,2474.23
247499,2474.99
247576,2475.76
247647,2476.47
247731,2477.31
247805,2478.05
247880,2478.8
247964,2479.64
248034,2480.34
248112,2481.12
248194,2481.94
248278,2482.78
248366,2483.66
248458,2484.58
248551,2485.51
248646,2486.46
248741,2487.41
248837,2488.37
248939,2489.39
249031,2490.31
249131,2491.31
249228,2492.28
249321,2493.21
249420,2494.2
249518,2495.18
249617,2496.17
249718,2497.18
249807,2498.07
249892,2498.92
249980,2499.8
250069,2500.69
250146,2501.46
250228,2502.28
250308,2503.08
250396,2503.96
250473,2504.73
250557,2505.57
250654,2506.54
250737,2507.37
250834,2508.34
250926,2509.26
251019,2510.19
251107,2511.07
251203,2512.03
251305,2513.05
251402,2514.02
251497,2514.97
251604,2516.04
251705,2517.05
251805,2518.05
251908,2519.08
252003,2520.03
252104,2521.04
252202,2522.02
252295,2522.95
252393,2523.93
252484,2524.84
252560,2525.6
252649,2526.49
252733,2527.33
252811,2528.11
252902,2529.02
252978,2529.78
253068,2530.68
253146,2531.46
253232,2532.32
253320,2533.2
253416,2534.16
253498,2534.98
253587,2535.87
253678,2536.78
253768,2537.68
253860,2538.6
253952,2539.52
254046,2540.46
254146,2541.46
254236,2542.36
254331,2543.31
254434,2544.34
254524,2545.24
254623,2546.23
254729,2547.29
254830,2548.3
254923,2549.23
255023,2550.23
255131,2551.31
255231,2552.31
255315,2553.15
255417,2554.17
255500,2555.0
255588,2555.88
255671,2556.71
255766,2557.66
255841,2558.41
255920,2559.2
255999,2559.99
256078,2560.78
256166,2561.66
256242,2562.42
256327,2563.27
256414,2564.14
256503,2565.03
256599,2565.99
256681,2566.81
256771,2567.71
256862,2568.62
256957,2569.57
257061,2570.61
257159,2571.59
257257,2572.57
257357,2573.57
257459,2574.59
257559,2575.59
257660,2576.6
257753,2577.53
257852,2578.52
257955,2579.55
258046,2580.46
258143,2581.43
258239,2582.39
258334,2583.34
258437,2584.37
258526,2585.26
258616,2586.16
258702,2587.02
258777,2587.77
258864,2588.64
258950,2589.5
259020,2590.2
259102,2591.02
259181,2591.81
259261,2592.61
259344,2593.44
259430,2594.3
259521,2595.21
259619,2596.19
259704,2597.04
259795,2597.95
259893,2598.93
259984,2599.84
260076,2600.76
260163,2601.63
260254,2602.54
260352,2603.52
260446,2604.46
260539,2605.39
260643,2606.43
260741,2607.41
260831,2608.31
260930,2609.3
261035,2610.35
261133,2611.33
261232,2612.32
261332,2613.32
261431,2614.31
261528,2615.28
261630,2616.3
261737,2617.37
261829,2618.29
261918,2619.18
262012,2620.12
262097,2620.97
262179,2621.79
262273,2622.73
262348,2623.48
262423,2624.23
262509,2625.09
262582,2625.82
262662,2626.62
262741,2627.41
262835,2628.35
262925,2629.25
263020,2630.2
263109,2631.09
263213,2632.13
263304,2633.04
263395,2633.95
263491,2634.91
263594,2635.94
263689,2636.89
263788,2637.88
263887,2638.87
263988,2639.88
264086,2640.86
264188,2641.88
264293,2642.93
264391,2643.91
264486,2644.86
264577,2645.77
264678,2646.78
264765,2647.65
264846,2648.46
264931,2649.31
265026,2650.26
265109,2651.09
265183,2651.83
265263,2652.63
265350,2653.5
265426,2654.26
265516,2655.16
265594,2655.94
265689,2656.89
265779,2657.79
265870,2658.7
265956,2659.56
266050,2660.5
266152,2661.52
266248,2662.48
266343,2663.43
266438,2664.38
266545,2665.45
266636,2666.36
266737,2667.37
266844,2668.44
266945,2669.45
267038,2670.38
267142,2671.42
267236,2672.36
267341,2673.41
267437,2674.37
267535,2675.35
267630,2676.3
267716,2677.16
267804,2678.04
267891,2678.91
267986,2679.86
268069,2680.69
268142,2681.42
268245,2682.45
268369,2683.69
268451,2684.51
268553,2685.53
268635,2686.35
268719,2687.19
268799,2687.99
268892,2688.92
268972,2689.72
269059,2690.59
269148,2691.48
269237,2692.37
269335,2693.35
269425,2694.25
269510,2695.1
269609,2696.09
269702,2697.02
269788,2697.88
269885,2698.85
269982,2699.82
270083,2700.83
270170,2701.7
270265,2702.65
270368,2703.68
270458,2704.58
270549,2705.49
270645,2706.45
270747,2707.47
270841,2708.41
270930,2709.3
271023,2710.23
271116,2711.16
271210,2712.1
271310,2713.1
271399,2713.99
271477,2714.77
271563,2715.63
271654,2716.54
271730,2717.3
271807,2718.07
271895,2718.95
271973,2719.73
272050,2720.5
272120,2721.2
272196,2721.96
272275,2722.75
272357,2723.57
272438,2724.38
272523,2725.23
272614,2726.14
272697,2726.97
272788,2727.88
272880,2728.8
272974,2729.74
273075,2730.75
273164,2731.64
273254,2732.54
273347,2733.47
273440,2734.4
273536,2735.36
273636,2736.36
273738,2737.38
273833,2738.33
273934,2739.34
274031,2740.31
274124,2741.24
274220,2742.2
274317,2743.17
274410,2744.1
274503,2745.03
274597,2745.97
274695,2746.95
274782,2747.82
274876,2748.76
274979,2749.79
275073,2750.73
275168,2751.68
275260,2752.6
275344,2753.44
275435,2754.35
275524,2755.24
275614,2756.14
275697,2756.97
275768,2757.68
275847,2758.47
275927,2759.27
276001,2760.01
276078,2760.78
276159,2761.59
276237,2762.37
276313,2763.13
276397,2763.97
276490,2764.9
276577,2765.77
276664,2766.64
276753,2767.53
276839,2768.39
276937,2769.37
277030,2770.3
277123,2771.23
277217,2772.17
277311,2773.11
277400,2774.0
277501,2775.01
277600,2776.0
277699,2776.99
277795,2777.95
277893,2778.93
277989,2779.89
278095,2780.95
278194,2781.94
278300,2783.0
278401,2784.01
278497,2784.97
278587,2785.87
278686,2786.86
278779,2787.79
278868,2788.68
278956,2789.56
279042,2790.42
279124,2791.24
279201,2792.01
279286,2792.86
279364,2793.64
279434,2794.34
279513,2795.13
279596,2795.96
279667,2796.67
279745,2797.45
279824,2798.24
279902,2799.02
279988,2799.88
280064,2800.64
280149,2801.49
280235,2802.35
280322,2803.22
280412,2804.12
280510,2805.1
280597,2805.97
280699,2806.99
280788,2807.88
280891,2808.91
280984,2809.84
281085,2810.85
281182,2811.82
281280,2812.8
281371,2813.71
281474,2814.74
281572,2815.72
281672,2816.72
281771,2817.71
281868,2818.68
281963,2819.63
282057,2820.57
282155,2821.55
282246,2822.46
282331,2823.31
282415,2824.15
282491,2824.91
282568,2825.68
282652,2826.52
282736,2827.36
282810,2828.1
282885,2828.85
282963,2829.63
283049,2830.49
283130,2831.3
283207,2832.07
283302,2833.02
283392,2833.92
283482,2834.82
283573,2835.73
283660,2836.6
283760,2837.6
283854,2838.54
283946,2839.46
284040,2840.4
284134,2841.34
284227,2842.27
284320,2843.2
284418,2844.18
284513,2845.13
284606,2846.06
284697,2846.97
284793,2847.93
284896,2848.96
284990,2849.9
285080,2850.8
285178,2851.78
285273,2852.73
285366,2853.66
285464,2854.64
285553,2855.53
285634,2856.34
285725,2857.25
285804,2858.04
285883,2858.83
285970,2859.7
286046,2860.46
286123,2861.23
286210,2862.1
286285,2862.85
286369,2863.69
286463,2864.63
286544,2865.44
286641,2866.41
286732,2867.32
286816,2868.16
286914,2869.14
287008,2870.08
287104,2871.04
287202,2872.02
287298,2872.98
287399,2873.99
287495,2874.95
287603,2876.03
287703,2877.03
287798,2877.98
287900,2879.0
288004,2880.04
288102,2881.02
288201,2882.01
288288,2882.88
288379,2883.79
288473,2884.73
288568,2885.68
288653,2886.53
288738,2887.38
288819,2888.19
288901,2889.01
288976,2889.76
289063,2890.63
289134,2891.34
289217,2892.17
289297,2892.97
289384,2893.84
289466,2894.66
289544,2895.44
289636,2896.36
289717,2897.17
289804,2898.04
289892,2898.92
289983,2899.83
290075,2900.75
290176,2901.76
290270,2902.7
290366,2903.66
290464,2904.64
290560,2905.6
290659,2906.59
290754,2907.54
290844,2908.44
290948,2909.48
291034,2910.34
291133,2911.33
291230,2912.3
291328,2913.28
291431,2914.31
291526,2915.26
291633,2916.33
291727,2917.27
291832,2918.32
291933,2919.33
292026,2920.26
292132,2921.32
292227,2922.27
292318,2923.18
292405,2924.05
292493,2924.93
292576,2925.76
292649,2926.49
292729,2927.29
292819,2928.19
292897,2928.97
292976,2929.76
293045,2930.45
293127,2931.27
293207,2932.07
293293,2932.93
293368,2933.68
293451,2934.51
293534,2935.34
293619,2936.19
293713,2937.13
293795,2937.95
293892,2938.92
293983,2939.83
294074,2940.74
294167,2941.67
294262,2942.62
294356,2943.56
294451,2944.51
294546,2945.46
294643,2946.43
294738,2947.38
294831,2948.31
294926,2949.26
295022,2950.22
295114,2951.14
295207,2952.07
295299,2952.99
295391,2953.91
295478,2954.78
295578,2955.78
295671,2956.71
295763,2957.63
295851,2958.51
295950,2959.5
296036,2960.36
296138,2961.38
296227,2962.27
296323,2963.23
296421,2964.21
296521,2965.21
296610,2966.1
296692,2966.92
296786,2967.86
296859,2968.59
296952,2969.52
297033,2970.33
297111,2971.11
297183,2971.83
297267,2972.67
297344,2973.44
297422,2974.22
297497,2974.97
297589,2975.89
297677,2976.77
297767,2977.67
297860,2978.6
297953,2979.53
298038,2980.38
298135,2981.35
298228,2982.28
298320,2983.2
298411,2984.11
298504,2985.04
298595,2985.95
298692,2986.92
298786,2987.86
298885,2988.85
298983,2989.83
299087,2990.87
299185,2991.85
299282,2992.82
299375,2993.75
299472,2994.72
299561,2995.61
299661,2996.61
299749,2997.49
299840,2998.4
299933,2999.33
300030,3000.3
300121,3001.21
300197,3001.97
300287,3002.87
300377,3003.77
300453,3004.53
300542,3005.42
300619,3006.19
300691,3006.91
300769,3007.69
300854,3008.54
300928,3009.28
301013,3010.13
301103,3011.03
301198,3011.98
301279,3012.79
301375,3013.75
301467,3014.67
301556,3015.56
301643,3016.43
301738,3017.38
301841,3018.41
301936,3019.36
302034,3020.34
302137,3021.37
302230,3022.3
302340,3023.4
302438,3024.38
302532,3025.32
302638,3026.38
302735,3027.35
302826,3028.26
302924,3029.24
303028,3030.28
303121,3031.21
303214,3032.14
303314,3033.14
303404,3034.04
303495,3034.95
303579,3035.79
303676,3036.76
303758,3037.58
303835,3038.35
303921,3039.21
303999,3039.99
304072,3040.72
304149,3041.49
304234,3042.34
304314,3043.14
304388,3043.88
304470,3044.7
304555,3045.55
304640,3046.4
304728,3047.28
304818,3048.18
304906,3049.06
304995,3049.95
305086,3050.86
305176,3051.76
305266,3052.66
305364,3053.64
305456,3054.56
305545,3055.45
305642,3056.42
305743,3057.43
305834,3058.34
305922,3059.22
306015,3060.15
306108,3061.08
306211,3062.11
306309,3063.09
306402,3064.02
306497,3064.97
306592,3065.92
306689,3066.89
306783,3067.83
306883,3068.83
306981,3069.81
307077,3070.77
307175,3071.75
307276,3072.76
307368,3073.68
307455,3074.55
307542,3075.42
307616,3076.16
307695,3076.95
307785,3077.85
307863,3078.63
307931,3079.31
308012,3080.12
308090,3080.9
308176,3081.76
308258,3082.58
308337,3083.37
308432,3084.32
308521,3085.21
308611,3086.11
308705,3087.05
308792,3087.92
308885,3088.85
308983,3089.83
309078,3090.78
309166,3091.66
309264,3092.64
309354,3093.54
309458,3094.58
309552,3095.52
309655,3096.55
309750,3097.5
309858,3098.58
309956,3099.56
310052,3100.52
310156,3101.56
310255,3102.55
310356,3103.56
310459,3104.59
310548,3105.48
310626,3106.26
310706,3107.06
310792,3107.92
310864,3108.64
310947,3109.47
311031,3110.31
311100,3111.0
311182,3111.82
311261,3112.61
311342,3113.42
311426,3114.26
311514,3115.14
311606,3116.06
311686,3116.86
311778,3117.78
311868,3118.68
311967,3119.67
312051,3120.51
312144,3121.44
312239,3122.39
312339,3123.39
312432,3124.32
312530,3125.3
312632,3126.32
312723,3127.23
312821,3128.21
312925,3129.25
313016,3130.16
313116,3131.16
313222,3132.22
313316,3133.16
313418,3134.18
313514,3135.14
313601,3136.01
313685,3136.85
313779,3137.79
313862,3138.62
313935,3139.35
314023,3140.23
314101,3141.01
314174,3141.74
314258,3142.58
314330,3143.3
314418,3144.18
314498,3144.98
314593,3145.93
314673,3146.73
314770,3147.7
314855,3148.55
314947,3149.47
315037,3150.37
315133,3151.33
315218,3152.18
315318,3153.18
315405,3154.05
315499,3154.99
315598,3155.98
315695,3156.95
315788,3157.88
315890,3158.9
315983,3159.83
316080,3160.8
316183,3161.83
316271,3162.71
316374,3163.74
316470,3164.7
316556,3165.56
316650,3166.5
316740,3167.4
316830,3168.3
316920,3169.2
316997,3169.97
317074,3170.74
317164,3171.64
317242,3172.42
317310,3173.1
317392,3173.92
317472,3174.72
317561,3175.61
317643,3176.43
317724,3177.24
317818,3178.18
317907,3179.07
317998,3179.98
318083,3180.83
318174,3181.74
318264,3182.64
318355,3183.55
318445,3184.45
318542,3185.42
318628,3186.28
318732,3187.32
318827,3188.27
318923,3189.23
319018,3190.18
319116,3191.16
319213,3192.13
319309,3193.09
319398,3193.98
319493,3194.93
319591,3195.91
319690,3196.9
319785,3197.85
319877,3198.77
319974,3199.74
320050,3200.5
320144,3201.44
320225,3202.25
320304,3203.04
320383,3203.83
320460,3204.6
320537,3205.37
320610,3206.1
320691,3206.91
320776,3207.76
320861,3208.61
320951,3209.51
321048,3210.48
321131,3211.31
321227,3212.27
321317,3213.17
321404,3214.04
321497,3214.97
321591,3215.91
321695,3216.95
321789,3217.89
321892,3218.92
321986,3219.86
322084,3220.84
322188,3221.88
322279,3222.79
322379,3223.79
322482,3224.82
322590,3225.9
322681,3226.81
322781,3227.81
322887,3228.87
322976,3229.76
323076,3230.76
323160,3231.6
323244,3232.44
323329,3233.29
323400,3234.0
323484,3234.84
323569,3235.69
323637,3236.37
323714,3237.14
323796,3237.96
323876,3238.76
323964,3239.64
324041,3240.41
324128,3241.28
324223,3242.23
324303,3243.03
324392,3243.92
324490,3244.9
324582,3245.82
324669,3246.69
324769,3247.69
324863,3248.63
324957,3249.57
325047,3250.47
325144,3251.44
325245,3252.45
325335,3253.35
325434,3254.34
325531,3255.31
325638,3256.38
325736,3257.36
325835,3258.35
325931,3259.31
326034,3260.34
326127,3261.27
326228,3262.28
326317,3263.17
326394,3263.94
326482,3264.82
326570,3265.7
326646,3266.46
326731,3267.31
326809,3268.09
326887,3268.87
326957,3269.57
327040,3270.4
327112,3271.12
327199,3271.99
327276,3272.76
327360,3273.6
327450,3274.5
327535,3275.35
327621,3276.21
327701,3277.01
327794,3277.94
327873,3278.73
327964,3279.64
328056,3280.56
328154,3281.54
328247,3282.47
328342,3283.42
328431,3284.31
328531,3285.31
328622,3286.22
328720,3287.2
328825,3288.25
328922,3289.22
329018,3290.18
329123,3291.23
329229,3292.29
329303,3293.03
329377,3293.77
329526,3295.26
329605,3296.05
329677,3296.77
329762,3297.62
329842,3298.42
329919,3299.19
330005,3300.05
330091,3300.91
330176,3301.76
330264,3302.64
330360,3303.6
330449,3304.49
330531,3305.31
330623,3306.23
330726,3307.26
330820,3308.2
330913,3309.13
331011,3310.11
331101,3311.01
331201,3312.01
331297,3312.97
331387,3313.87
331489,3314.89
331586,3315.86
331679,3316.79
331777,3317.77
331874,3318.74
331972,3319.72
332071,3320.71
332169,3321.69
332267,3322.67
332370,3323.7
332454,3324.54
332550,3325.5
332647,3326.47
332722,3327.22
332816,3328.16
332889,3328.89
332974,3329.74
333059,3330.59
333127,3331.27
333208,3332.08
333286,3332.86
333371,3333.71
333450,3334.5
333524,3335.24
333605,3336.05
333686,3336.86
333773,3337.73
333855,3338.55
333941,3339.41
334021,3340.21
334108,3341.08
334203,3342.03
334285,3342.85
334381,3343.81
334464,3344.64
334555,3345.55
334653,3346.53
334745,3347.45
334834,3348.34
334939,3349.39
335033,3350.33
335130,3351.3
335233,3352.33
335344,3353.44
335441,3354.41
335546,3355.46
335646,3356.46
335745,3357.45
335846,3358.46
335937,3359.37
336031,3360.31
336129,3361.29
336223,3362.23
336320,3363.2
336409,3364.09
336484,3364.84
336577,3365.77
336658,3366.58
336737,3367.37
336810,3368.1
336885,3368.85
336971,3369.71
337043,3370.43
337121,3371.21
337200,3372.0
337280,3372.8
337362,3373.62
337447,3374.47
337531,3375.31
337616,3376.16
337702,3377.02
337792,3377.92
337885,3378.85
337975,3379.75
338062,3380.62
338154,3381.54
338243,3382.43
338349,3383.49
338453,3384.53
338550,3385.5
338641,3386.41
338743,3387.43
338847,3388.47
338944,3389.44
339041,3390.41
339136,3391.36
339229,3392.29
339333,3393.33
339438,3394.38
339539,3395.39
339636,3396.36
339737,3397.37
339817,3398.17
339914,3399.14
339989,3399.89
340073,3400.73
340157,3401.57
340241,3402.41
340319,3403.19
340390,3403.9
340475,3404.75
340550,3405.5
340640,3406.4
340727,3407.27
340806,3408.06
340896,3408.96
340986,3409.86
341084,3410.84
341169,3411.69
341268,3412.68
341360,3413.6
341445,3414.45
341545,3415.45
341639,3416.39
341734,3417.34
341827,3418.27
341923,3419.23
342015,3420.15
342117,3421.17
342212,3422.12
342311,3423.11
342405,3424.05
342493,3424.93
342588,3425.88
342686,3426.86
342773,3427.73
342855,3428.55
342937,3429.37
343030,3430.3
343105,3431.05
343181,3431.81
343258,3432.58
343338,3433.38
343422,3434.22
343499,3434.99
343572,3435.72
343656,3436.56
343741,3437.41
343828,3438.28
343917,3439.17
344007,3440.07
344105,3441.05
344186,3441.86
344276,3442.76
344366,3443.66
344464,3444.64
344554,3445.54
344642,3446.42
344738,3447.38
344834,3448.34
344938,3449.38
345038,3450.38
345140,3451.4
345230,3452.3
345325,3453.25
345422,3454.22
345516,3455.16
345608,3456.08
345708,3457.08
345793,3457.93
345884,3458.84
345977,3459.77
346075,3460.75
346167,3461.67
346253,3462.53
346343,3463.43
346430,3464.3
346518,3465.18
346608,3466.08
346685,3466.85
346766,3467.66
346843,3468.43
346931,3469.31
347007,3470.07
347074,3470.74
347160,3471.6
347236,3472.36
347313,3473.13
347382,3473.82
347466,3474.66
347549,3475.49
347641,3476.41
347726,3477.26
347805,3478.05
347891,3478.91
347977,3479.77
348065,3480.65
348153,3481.53
348243,3482.43
348334,3483.34
348423,3484.23
348522,3485.22
348614,3486.14
348707,3487.07
348794,3487.94
348890,3488.9
348992,3489.92
349083,3490.83
349183,3491.83
349290,3492.9
349383,3493.83
349490,3494.9
349584,3495.84
349689,3496.89
349779,3497.79
349870,3498.7
349960,3499.6
350054,3500.54
350130,3501.3
350218,3502.18
350300,3503.0
350386,3503.86
350464,3504.64
350542,3505.42
350632,3506.32
350716,3507.16
350799,3507.99
350892,3508.92
350989,3509.89
351079,3510.79
351162,3511.62
351252,3512.52
351349,3513.49
351437,3514.37
351526,3515.26
351609,3516.09
351707,3517.07
351800,3518.0
351887,3518.87
351994,3519.94
352090,3520.9
352200,3522.0
352290,3522.9
352391,3523.91
352497,3524.97
352597,3525.97
352695,3526.95
352792,3527.92
352883,3528.83
352984,3529.84
353092,3530.92
353182,3531.82
353281,3532.81
353376,3533.76
353470,3534.7
353550,3535.5
353633,3536.33
353716,3537.16
353796,3537.96
353879,3538.79
353951,3539.51
354029,3540.29
354107,3541.07
354186,3541.86
354266,3542.66
354347,3543.47
354430,3544.3
354513,3545.13
354597,3545.97
354683,3546.83
354772,3547.72
354867,3548.67
354949,3549.49
355047,3550.47
355133,3551.33
355225,3552.25
355323,3553.23
355423,3554.23
355513,3555.13
355606,3556.06
355701,3557.01
355799,3557.99
355900,3559.0
355987,3559.87
356095,3560.95
356187,3561.87
356280,3562.8
356377,3563.77
356473,3564.73
356570,3565.7
356662,3566.62
356747,3567.47
356836,3568.36
356918,3569.18
357001,3570.01
357080,3570.8
357164,3571.64
357236,3572.36
357314,3573.14
357397,3573.97
357466,3574.66
357547,3575.47
357626,3576.26
357705,3577.05
357785,3577.85
357871,3578.71
357958,3579.58
358051,3580.51
358138,3581.38
358221,3582.21
358312,3583.12
358403,3584.03
358502,3585.02
358585,3585.85
358675,3586.75
358766,3587.66
358858,3588.58
358952,3589.52
359046,3590.46
359147,3591.47
359239,3592.39
359336,3593.36
359432,3594.32
359527,3595.27
359617,3596.17
359718,3597.18
359823,3598.23
359917,3599.17
360018,3600.18
360115,3601.15
360219,3602.19
360316,3603.16
360405,3604.05
360495,3604.95
360582,3605.82
360663,3606.63
360754,3607.54
360833,3608.33
360904,3609.04
360981,3609.81
361065,3610.65
361137,3611.37
361220,3612.2
361304,3613.04
361390,3613.9
361485,3614.85
361566,3615.66
361659,3616.59
361753,3617.53
361844,3618.44
361933,3619.33
362018,3620.18
362110,3621.1
362208,3622.08
362302,3623.02
362394,3623.94
362494,3624.94
362596,3625.96
362693,3626.93
362791,3627.91
362889,3628.89
362987,3629.87
363072,3630.72
363159,3631.59
363250,3632.5
363344,3633.44
363426,3634.26
363509,3635.09
363588,3635.88
363655,3636.55
363732,3637.32
363811,3638.11
363894,3638.94
363972,3639.72
364051,3640.51
364127,3641.27
364220,3642.2
364308,3643.08
364391,3643.91
364481,3644.81
364579,3645.79
364670,3646.7
364762,3647.62
364846,3648.46
364939,3649.39
365034,3650.34
365136,3651.36
365230,3652.3
365323,3653.23
365427,3654.27
365524,3655.24
365613,3656.13
365714,3657.14
365815,3658.15
365911,3659.11
366011,3660.11
366107,3661.07
366202,3662.02
366298,3662.98
366399,3663.99
366484,3664.84
366570,3665.7
366661,3666.61
366742,3667.42
366829,3668.29
366922,3669.22
367003,3670.03
367084,3670.84
367168,3671.68
367251,3672.51
367334,3673.34
367418,3674.18
367502,3675.02
367587,3675.87
367671,3676.71
367755,3677.55
367836,3678.36
367919,3679.19
368001,3680.01
368083,3680.83
368164,3681.64
368245,3682.45
368329,3683.29
368415,3684.15
368502,3685.02
368589,3685.89
368676,3686.76
368764,3687.64
368852,3688.52
368940,3689.4
369029,3690.29
369120,3691.2
369209,3692.09
369296,3692.96
369386,3693.86
369477,3694.77
369568,3695.68
369657,3696.57
369746,3697.46
369834,3698.34
369921,3699.21
370009,3700.09
370095,3700.95
370183,3701.83
370269,3702.69
370355,3703.55
370442,3704.42
370531,3705.31
370619,3706.19
370705,3707.05
370797,3707.97
370891,3708.91
370987,3709.87
371085,3710.85
371185,3711.85
371281,3712.81
371376,3713.76
371468,3714.68
371560,3715.6
371654,3716.54
371743,3717.43
371831,3718.31
371914,3719.14
371996,3719.96
372078,3720.78
372159,3721.59
372239,3722.39
372321,3723.21
372405,3724.05
372487,3724.87
372569,3725.69
372652,3726.52
372738,3727.38
372825,3728.25
372912,3729.12
373001,3730.01
373091,3730.91
373181,3731.81
373271,3732.71
373363,3733.63
373455,3734.55
373548,3735.48
373640,3736.4
373733,3737.33
373830,3738.3
373927,3739.27
374024,3740.24
374120,3741.2
374217,3742.17
374314,3743.14
374403,3744.03
374494,3744.94
374584,3745.84
374669,3746.69
374747,3747.47
374825,3748.25
374913,3749.13
375001,3750.01
375082,3750.82
375162,3751.62
375243,3752.43
375324,3753.24
375406,3754.06
375487,3754.87
375569,3755.69
375655,3756.55
375743,3757.43
375831,3758.31
375921,3759.21
376011,3760.11
376101,3761.01
376190,3761.9
376281,3762.81
376374,3763.74
376465,3764.65
376558,3765.58
376654,3766.54
376753,3767.53
376852,3768.52
376949,3769.49
377052,3770.52
377155,3771.55
377257,3772.57
377358,3773.58
377458,3774.58
377557,3775.57
377657,3776.57
377756,3777.56
377853,3778.53
377948,3779.48
378032,3780.32
378121,3781.21
378213,3782.13
378296,3782.96
378375,3783.75
378454,3784.54
378533,3785.33
378608,3786.08
378686,3786.86
378760,3787.6
378831,3788.31
378902,3789.02
378978,3789.78
379056,3790.56
379138,3791.38
379223,3792.23
379310,3793.1
379399,3793.99
379490,3794.9
379581,3795.81
379675,3796.75
379767,3797.67
379858,3798.58
379951,3799.51
380044,3800.44
380139,3801.39
380234,3802.34
380327,3803.27
380417,3804.17
380514,3805.14
380612,3806.12
380708,3807.08
380800,3808.0
380890,3808.9
380979,3809.79
381067,3810.67
381156,3811.56
381244,3812.44
381333,3813.33
381419,3814.19
381506,3815.06
381594,3815.94
381686,3816.86
381775,3817.75
381866,3818.66
381960,3819.6
382053,3820.53
382147,3821.47
382245,3822.45
382343,3823.43
382444,3824.44
382546,3825.46
382652,3826.52
382740,3827.4
382829,3828.29
382919,3829.19
383010,3830.1
383088,3830.88
383167,3831.67
383247,3832.47
383332,3833.32
383415,3834.15
383497,3834.97
383583,3835.83
383672,3836.72
383765,3837.65
383858,3838.58
383951,3839.51
384046,3840.46
384139,3841.39
384231,3842.31
384323,3843.23
384418,3844.18
384512,3845.12
384607,3846.07
384704,3847.04
384801,3848.01
384906,3849.06
385007,3850.07
385104,3851.04
385204,3852.04
385308,3853.08
385411,3854.11
385506,3855.06
385608,3856.08
385707,3857.07
385804,3858.04
385891,3858.91
385980,3859.8
386069,3860.69
386162,3861.62
386244,3862.44
386317,3863.17
386395,3863.95
386479,3864.79
386558,3865.58
386637,3866.37
386725,3867.25
386812,3868.12
386901,3869.01
386996,3869.96
387093,3870.93
387186,3871.86
387277,3872.77
387372,3873.72
387464,3874.64
387560,3875.6
387652,3876.52
387751,3877.51
387848,3878.48
387946,3879.46
388043,3880.43
388145,3881.45
388243,3882.43
388343,3883.43
388444,3884.44
388540,3885.4
388637,3886.37
388746,3887.46
388852,3888.52
388965,3889.65
389063,3890.63
389162,3891.62
389251,3892.51
389342,3893.42
389429,3894.29
389512,3895.12
389596,3895.96
389676,3896.76
389753,3897.53
389823,3898.23
389900,3899.0
389976,3899.76
390067,3900.67
390146,3901.46
390236,3902.36
390326,3903.26
390418,3904.18
390512,3905.12
390614,3906.14
390710,3907.1
390799,3907.99
390896,3908.96
390993,3909.93
391089,3910.89
391192,3911.92
391288,3912.88
391377,3913.77
391475,3914.75
391574,3915.74
391668,3916.68
391771,3917.71
391868,3918.68
391976,3919.76
392073,3920.73
392168,3921.68
392274,3922.74
392378,3923.78
392481,3924.81
392581,3925.81
392688,3926.88
392780,3927.8
392867,3928.67
392954,3929.54
393049,3930.49
393133,3931.33
393217,3932.17
393296,3932.96
393375,3933.75
393456,3934.56
393531,3935.31
393612,3936.12
393690,3936.9
393777,3937.77
393869,3938.69
393961,3939.61
394055,3940.55
394150,3941.5
394244,3942.44
394338,3943.38
394436,3944.36
394534,3945.34
394630,3946.3
394725,3947.25
394821,3948.21
394923,3949.23
395022,3950.22
395118,3951.18
395220,3952.2
395324,3953.24
395423,3954.23
395521,3955.21
395621,3956.21
395721,3957.21
395811,3958.11
395904,3959.04
395993,3959.93
396087,3960.87
396166,3961.66
396248,3962.48
396336,3963.36
396413,3964.13
396498,3964.98
396584,3965.84
396673,3966.73
396765,3967.65
396854,3968.54
396944,3969.44
397038,3970.38
397129,3971.29
397220,3972.2
397313,3973.13
397407,3974.07
397501,3975.01
397598,3975.98
397695,3976.95
397795,3977.95
397894,3978.94
397994,3979.94
398092,3980.92
398193,3981.93
398294,3982.94
398393,3983.93
398489,3984.89
398592,3985.92
398695,3986.95
398799,3987.99
398894,3988.94
398994,3989.94
399091,3990.91
399189,3991.89
399286,3992.86
399381,3993.81
399480,3994.8
399579,3995.79
399665,3996.65
399759,3997.59
399855,3998.55
399941,3999.41
400020,4000.2
400098,4000.98
400182,4001.82
400262,4002.62
400347,4003.47
400420,4004.2
400501,4005.01
400583,4005.83
400673,4006.73
400755,4007.55
400848,4008.48
400939,4009.39
401032,4010.32
401127,4011.27
401222,4012.22
401324,4013.24
401412,4014.12
401510,4015.1
401610,4016.1
401707,4017.07
401806,4018.06
401908,4019.08
402008,4020.08
402112,4021.12
402205,4022.05
402305,4023.05
402400,4024.0
402494,4024.94
402595,4025.95
402700,4027.0
402809,4028.09
402906,4029.06
403012,4030.12
403115,4031.15
403220,4032.2
403321,4033.21
403422,4034.22
403512,4035.12
403605,4036.05
403676,4036.76
403748,4037.48
403834,4038.34
403921,4039.21
403999,4039.99
404077,4040.77
404161,4041.61
404242,4042.42
404327,4043.27
404408,4044.08
404506,4045.06
404591,4045.91
404682,4046.82
404775,4047.75
404868,4048.68
404961,4049.61
405054,4050.54
405146,4051.46
405240,4052.4
405334,4053.34
405426,4054.26
405522,4055.22
405617,4056.17
405718,4057.18
405814,4058.14
405904,4059.04
406005,4060.05
406100,4061.0
406202,4062.02
406302,4063.02
406402,4064.02
406508,4065.08
406615,4066.15
406705,4067.05
406799,4067.99
406887,4068.87
406970,4069.7
407056,4070.56
407143,4071.43
407219,4072.19
407298,4072.98
407377,4073.77
407457,4074.57
407540,4075.4
407627,4076.27
407712,4077.12
407803,4078.03
407896,4078.96
407988,4079.88
408079,4080.79
408173,4081.73
408268,4082.68
408363,4083.63
408458,4084.58
408555,4085.55
408654,4086.54
408755,4087.55
408843,4088.43
408940,4089.4
409035,4090.35
409129,4091.29
409224,4092.24
409322,4093.22
409417,4094.17
409512,4095.12
409607,4096.07
409701,4097.01
409800,4098.0
409902,4099.02
410000,4100.0
410095,4100.95
410186,4101.86
410282,4102.82
410364,4103.64
410446,4104.46
410529,4105.29
410612,4106.12
410689,4106.89
410768,4107.68
410848,4108.48
410930,4109.3
411017,4110.17
411107,4111.07
411197,4111.97
411292,4112.92
411389,4113.89
411483,4114.83
411576,4115.76
411671,4116.71
411766,4117.66
411865,4118.65
411961,4119.61
412056,4120.56
412149,4121.49
412247,4122.47
412347,4123.47
412445,4124.45
412545,4125.45
412650,4126.5
412750,4127.5
412848,4128.48
412949,4129.49
413048,4130.48
413148,4131.48
413247,4132.47
413346,4133.46
413446,4134.46
413543,4135.43
413635,4136.35
413726,4137.26
413820,4138.2
413900,4139.0
413981,4139.81
414065,4140.65
414146,4141.46
414224,4142.24
414302,4143.02
414382,4143.82
414464,4144.64
414551,4145.51
414638,4146.38
414729,4147.29
414823,4148.23
414920,4149.2
415014,4150.14
415106,4151.06
415200,4152.0
415297,4152.97
415395,4153.95
415491,4154.91
415589,4155.89
415689,4156.89
415788,4157.88
415887,4158.87
415984,4159.84
416081,4160.81
416179,4161.79
416278,4162.78
416373,4163.73
416473,4164.73
416574,4165.74
416672,4166.72
416773,4167.73
416876,4168.76
416981,4169.81
417073,4170.73
417158,4171.58
417248,4172.48
417334,4173.34
417421,4174.21
417510,4175.1
417584,4175.84
417664,4176.64
417744,4177.44
417824,4178.24
417908,4179.08
417996,4179.96
418084,4180.84
418174,4181.74
418268,4182.68
418361,4183.61
418454,4184.54
418548,4185.48
418639,4186.39
418733,4187.33
418823,4188.23
418910,4189.1
418997,4189.97
419088,4190.88
419183,4191.83
419285,4192.85
419387,4193.87
419488,4194.88
419590,4195.9
419691,4196.91
419788,4197.88
419886,4198.86
419983,4199.83
420081,4200.81
420181,4201.81
420290,4202.9
420393,4203.93
420489,4204.89
420580,4205.8
420666,4206.66
420757,4207.57
420837,4208.37
420918,4209.18
420997,4209.97
421076,4210.76
421157,4211.57
421241,4212.41
421326,4213.26
421416,4214.16
421511,4215.11
421607,4216.07
421699,4216.99
421792,4217.92
421888,4218.88
421982,4219.82
422079,4220.79
422173,4221.73
422268,4222.68
422367,4223.67
422466,4224.66
422561,4225.61
422662,4226.62
422760,4227.6
422860,4228.6
422961,4229.61
423059,4230.59
423156,4231.56
423254,4232.54
423351,4233.51
423450,4234.5
423549,4235.49
423645,4236.45
423742,4237.42
423838,4238.38
423931,4239.31
424024,4240.24
424116,4241.16
424208,4242.08
424300,4243.0
424395,4243.95
424481,4244.81
424568,4245.68
424658,4246.58
424753,4247.53
424834,4248.34
424915,4249.15
424999,4249.99
425076,4250.76
425157,4251.57
425232,4252.32
425314,4253.14
425390,4253.9
425466,4254.66
425543,4255.43
425623,4256.23
425705,4257.05
425789,4257.89
425874,4258.74
425962,4259.62
426049,4260.49
426137,4261.37
426229,4262.29
426324,4263.24
426417,4264.17
426511,4265.11
426605,4266.05
426701,4267.01
426799,4267.99
426897,4268.97
426993,4269.93
427090,4270.9
427188,4271.88
427282,4272.82
427375,4273.75
427470,4274.7
427567,4275.67
427664,4276.64
427760,4277.6
427860,4278.6
427962,4279.62
428062,4280.62
428170,4281.7
428271,4282.71
428379,4283.79
428488,4284.88
428594,4285.94
428698,4286.98
428800,4288.0
428898,4288.98
429000,4290.0
429084,4290.84
429169,4291.69
429258,4292.58
429341,4293.41
429421,4294.21
429499,4294.99
429570,4295.7
429647,4296.47
429725,4297.25
429804,4298.04
429884,4298.84
429966,4299.66
430052,4300.52
430139,4301.39
430228,4302.28
430319,4303.19
430415,4304.15
430510,4305.1
430605,4306.05
430699,4306.99
430797,4307.97
430893,4308.93
430991,4309.91
431084,4310.84
431182,4311.82
431281,4312.81
431379,4313.79
431475,4314.75
431573,4315.73
431673,4316.73
431773,4317.73
431871,4318.71
431972,4319.72
432076,4320.76
432176,4321.76
432277,4322.77
432375,4323.75
432474,4324.74
432571,4325.71
432669,4326.69
432750,4327.5
432837,4328.37
432922,4329.22
433009,4330.09
433080,4330.8
433154,4331.54
433229,4332.29
433305,4333.05
433380,4333.8
433458,4334.58
433541,4335.41
433628,4336.28
433718,4337.18
433807,4338.07
433900,4339.0
433994,4339.94
434086,4340.86
434179,4341.79
434274,4342.74
434369,4343.69
434468,4344.68
434567,4345.67
434669,4346.69
434771,4347.71
434871,4348.71
434973,4349.73
435077,4350.77
435180,4351.8
435268,4352.68
435357,4353.57
435457,4354.57
435558,4355.58
435657,4356.57
435758,4357.58
435859,4358.59
435945,4359.45
436031,4360.31
436122,4361.22
436220,4362.2
436319,4363.19
436395,4363.95
436478,4364.78
436558,4365.58
436635,4366.35
436718,4367.18
436793,4367.93
436868,4368.68
436949,4369.49
437032,4370.32
437118,4371.18
437206,4372.06
437294,4372.94
437384,4373.84
437475,4374.75
437565,4375.65
437656,4376.56
437752,4377.52
437846,4378.46
437940,4379.4
438038,4380.38
438135,4381.35
438230,4382.3
438325,4383.25
438424,4384.24
438521,4385.21
438622,4386.22
438723,4387.23
438821,4388.21
438921,4389.21
439020,4390.2
439119,4391.19
439216,4392.16
439313,4393.13
439409,4394.09
439505,4395.05
439592,4395.92
439680,4396.8
439768,4397.68
439851,4398.51
439929,4399.29
440013,4400.13
440092,4400.92
440170,4401.7
440249,4402.49
440331,4403.31
440416,4404.16
440503,4405.03
440593,4405.93
440687,4406.87
440779,4407.79
440873,4408.73
440969,4409.69
441060,4410.6
441151,4411.51
441242,4412.42
441335,4413.35
441427,4414.27
441518,4415.18
441610,4416.1
441704,4417.04
441797,4417.97
441889,4418.89
441984,4419.84
442082,4420.82
442177,4421.77
442280,4422.8
442384,4423.84
442488,4424.88
442588,4425.88
442688,4426.88
442788,4427.88
442888,4428.88
442988,4429.88
443088,4430.88
443184,4431.84
443268,4432.68
443351,4433.51
443440,4434.4
443521,4435.21
443603,4436.03
443682,4436.82
443759,4437.59
443842,4438.42
443919,4439.19
443992,4439.92
444075,4440.75
444158,4441.58
444245,4442.45
444335,4443.35
444428,4444.28
444519,4445.19
444613,4446.13
444707,4447.07
444803,4448.03
444898,4448.98
444993,4449.93
445088,4450.88
445184,4451.84
445278,4452.78
445373,4453.73
445469,4454.69
445566,4455.66
445662,4456.62
445762,4457.62
445867,4458.67
445966,4459.66
446066,4460.66
446169,4461.69
446271,4462.71
446375,4463.75
446477,4464.77
446580,4465.8
446680,4466.8
446785,4467.85
446888,4468.88
446979,4469.79
447077,4470.77
447159,4471.59
447242,4472.42
447323,4473.23
447411,4474.11
447485,4474.85
447559,4475.59
447635,4476.35
447712,4477.12
447789,4477.89
447867,4478.67
447949,4479.49
448035,4480.35
448126,4481.26
448219,4482.19
448319,4483.19
448410,4484.1
448501,4485.01
448596,4485.96
448690,4486.9
448785,4487.85
448880,4488.8
448974,4489.74
449067,4490.67
449163,4491.63
449260,4492.6
449356,4493.56
449450,4494.5
449545,4495.45
449641,4496.41
449744,4497.44
449838,4498.38
449932,4499.32
450039,4500.39
450146,4501.46
450242,4502.42
450354,4503.54
450467,4504.67
450573,4505.73
450685,4506.85
450794,4507.94
450897,4508.97
450997,4509.97
451091,4510.91
451168,4511.68
451251,4512.51
451329,4513.29
451407,4514.07
451480,4514.8
451559,4515.59
451628,4516.28
451706,4517.06
451785,4517.85
451871,4518.71
451961,4519.61
452052,4520.52
452145,4521.45
452237,4522.37
452333,4523.33
452430,4524.3
452527,4525.27
452624,4526.24
452720,4527.2
452813,4528.13
452910,4529.1
453014,4530.14
453120,4531.2
453220,4532.2
453324,4533.24
453427,4534.27
453524,4535.24
453627,4536.27
453732,4537.32
453831,4538.31
453927,4539.27
454020,4540.2
454107,4541.07
454196,4541.96
454279,4542.79
454365,4543.65
454439,4544.39
454514,4545.14
454597,4545.97
454681,4546.81
454755,4547.55
454830,4548.3
454907,4549.07
454985,4549.85
455063,4550.63
455149,4551.49
455231,4552.31
455309,4553.09
455396,4553.96
455486,4554.86
455575,4555.75
455666,4556.66
455760,4557.6
455851,4558.51
455942,4559.42
456033,4560.33
456124,4561.24
456216,4562.16
456316,4563.16
456409,4564.09
456503,4565.03
456600,4566.0
456700,4567.0
456797,4567.97
456893,4568.93
456988,4569.88
457087,4570.87
457187,4571.87
457288,4572.88
457378,4573.78
457469,4574.69
457563,4575.63
457653,4576.53
457746,4577.46
457834,4578.34
457922,4579.22
458012,4580.12
458100,4581.0
458187,4581.87
458275,4582.75
458363,4583.63
458450,4584.5
458538,4585.38
458630,4586.3
458719,4587.19
458813,4588.13
458907,4589.07
459001,4590.01
459093,4590.93
459183,4591.83
459268,4592.68
459355,4593.55
459436,4594.36
459520,4595.2
459607,4596.07
459683,4596.83
459759,4597.59
459839,4598.39
459920,4599.2
460004,4600.04
460090,4600.9
460177,4601.77
460267,4602.67
460357,4603.57
460448,4604.48
460540,4605.4
460629,4606.29
460722,4607.22
460815,4608.15
460909,4609.09
461003,4610.03
461103,4611.03
461204,4612.04
461299,4612.99
461394,4613.94
461492,4614.92
461590,4615.9
461687,4616.87
461783,4617.83
461881,4618.81
461977,4619.77
462076,4620.76
462176,4621.76
462273,4622.73
462374,4623.74
462476,4624.76
462561,4625.61
462646,4626.46
462737,4627.37
462829,4628.29
462908,4629.08
462989,4629.89
463072,4630.72
463147,4631.47
463224,4632.24
463301,4633.01
463380,4633.8
463459,4634.59
463540,4635.4
463622,4636.22
463709,4637.09
463798,4637.98
463888,4638.88
463978,4639.78
464073,4640.73
464170,4641.7
464266,4642.66
464361,4643.61
464457,4644.57
464557,4645.57
464661,4646.61
464761,4647.61
464861,4648.61
464960,4649.6
465058,4650.58
465157,4651.57
465256,4652.56
465351,4653.51
465447,4654.47
465544,4655.44
465637,4656.37
465732,4657.32
465826,4658.26
465919,4659.19
466014,4660.14
466110,4661.1
466209,4662.09
466304,4663.04
466402,4664.02
466496,4664.96
466583,4665.83
466671,4666.71
466763,4667.63
466843,4668.43
466923,4669.23
467001,4670.01
467083,4670.83
467165,4671.65
467245,4672.45
467326,4673.26
467410,4674.1
467497,4674.97
467585,4675.85
467672,4676.72
467762,4677.62
467850,4678.5
467940,4679.4
468033,4680.33
468127,4681.27
468221,4682.21
468314,4683.14
468406,4684.06
468501,4685.01
468597,4685.97
468694,4686.94
468791,4687.91
468884,4688.84
468984,4689.84
469084,4690.84
469183,4691.83
469287,4692.87
469388,4693.88
469486,4694.86
469586,4695.86
469685,4696.85
469788,4697.88
469888,4698.88
469984,4699.84
470083,4700.83
470181,4701.81
470279,4702.79
470370,4703.7
470460,4704.6
470551,4705.51
470636,4706.36
470709,4707.09
470785,4707.85
470862,4708.62
470939,4709.39
471017,4710.17
471093,4710.93
471170,4711.7
471249,4712.49
471331,4713.31
471412,4714.12
471496,4714.96
471583,4715.83
471672,4716.72
471763,4717.63
471853,4718.53
471945,4719.45
472038,4720.38
472132,4721.32
472228,4722.28
472323,4723.23
472419,4724.19
472517,4725.17
472613,4726.13
472710,4727.1
472808,4728.08
472911,4729.11
473008,4730.08
473104,4731.04
473200,4732.0
473295,4732.95
473382,4733.82
473472,4734.72
473557,4735.57
473642,4736.42
473725,4737.25
473806,4738.06
473888,4738.88
473973,4739.73
474059,4740.59
474145,4741.45
474234,4742.34
474325,4743.25
474417,4744.17
474507,4745.07
474598,4745.98
474691,4746.91
474783,4747.83
474876,4748.76
474972,4749.72
475072,4750.72
475170,4751.7
475269,4752.69
475368,4753.68
475469,4754.69
475568,4755.68
475665,4756.65
475762,4757.62
475858,4758.58
475941,4759.41
476029,4760.29
476113,4761.13
476196,4761.96
476283,4762.83
476359,4763.59
476436,4764.36
476516,4765.16
476597,4765.97
476682,4766.82
476772,4767.72
476860,4768.6
476950,4769.5
477046,4770.46
477142,4771.42
477237,4772.37
477331,4773.31
477429,4774.29
477525,4775.25
477620,4776.2
477715,4777.15
477816,4778.16
477911,4779.11
478006,4780.06
478106,4781.06
478207,4782.07
478304,4783.04
478403,4784.03
478507,4785.07
478608,4786.08
478707,4787.07
478804,4788.04
478903,4789.03
479002,4790.02
479110,4791.1
479213,4792.13
479314,4793.14
479411,4794.11
479499,4794.99
479588,4795.88
479678,4796.78
479755,4797.55
479836,4798.36
479921,4799.21
479995,4799.95
480070,4800.7
480147,4801.47
480226,4802.26
480308,4803.08
480390,4803.9
480477,4804.77
480564,4805.64
480654,4806.54
480743,4807.43
480837,4808.37
480930,4809.3
481024,4810.24
481121,4811.21
481216,4812.16
481310,4813.1
481407,4814.07
481506,4815.06
481602,4816.02
481698,4816.98
481798,4817.98
481899,4818.99
481994,4819.94
482092,4820.92
482193,4821.93
482294,4822.94
482392,4823.92
482495,4824.95
482603,4826.03
482707,4827.07
482810,4828.1
482908,4829.08
482996,4829.96
483085,4830.85
483172,4831.72
483252,4832.52
483336,4833.36
483415,4834.15
483497,4834.97
483572,4835.72
483644,4836.44
483723,4837.23
483805,4838.05
483888,4838.88
483975,4839.75
484067,4840.67
484158,4841.58
484250,4842.5
484343,4843.43
484437,4844.37
484530,4845.3
484625,4846.25
484719,4847.19
484815,4848.15
484912,4849.12
485008,4850.08
485106,4851.06
485209,4852.09
485305,4853.05
485402,4854.02
485500,4855.0
485594,4855.94
485691,4856.91
485790,4857.9
485886,4858.86
485985,4859.85
486088,4860.88
486186,4861.86
486285,4862.85
486384,4863.84
486472,4864.72
486554,4865.54
486642,4866.42
486723,4867.23
486805,4868.05
486886,4868.86
486963,4869.63
487045,4870.45
487119,4871.19
487193,4871.93
487270,4872.7
487349,4873.49
487433,4874.33
487519,4875.19
487610,4876.1
487700,4877.0
487789,4877.89
487882,4878.82
487976,4879.76
488069,4880.69
488164,4881.64
488258,4882.58
488352,4883.52
488447,4884.47
488542,4885.42
488635,4886.35
488729,4887.29
488826,4888.26
488927,4889.27
489023,4890.23
489118,4891.18
489216,4892.16
489316,4893.16
489416,4894.16
489514,4895.14
489616,4896.16
489717,4897.17
489818,4898.18
489916,4899.16
490007,4900.07
490095,4900.95
490182,4901.82
490266,4902.66
490348,4903.48
490427,4904.27
490503,4905.03
490578,4905.78
490656,4906.56
490735,4907.35
490814,4908.14
490894,4908.94
490979,4909.79
491064,4910.64
491151,4911.51
491240,4912.4
491334,4913.34
491430,4914.3
491523,4915.23
491616,4916.16
491708,4917.08
491801,4918.01
491892,4918.92
491985,4919.85
492079,4920.79
492174,4921.74
492268,4922.68
492367,4923.67
492465,4924.65
492562,4925.62
492660,4926.6
492759,4927.59
492859,4928.59
492957,4929.57
493058,4930.58
493160,4931.6
493263,4932.63
493353,4933.53
493443,4934.43
493530,4935.3
493618,4936.18
493701,4937.01
493783,4937.83
493863,4938.63
493942,4939.42
494020,4940.2
494101,4941.01
494182,4941.82
494265,4942.65
494348,4943.48
494434,4944.34
494523,4945.23
494612,4946.12
494702,4947.02
494794,4947.94
494886,4948.86
494979,4949.79
495071,4950.71
495161,4951.61
495253,4952.53
495349,4953.49
495444,4954.44
495539,4955.39
495635,4956.35
495735,4957.35
495835,4958.35
495931,4959.31
496029,4960.29
496127,4961.27
496225,4962.25
496323,4963.23
496423,4964.23
496520,4965.2
496618,4966.18
496713,4967.13
496804,4968.04
496896,4968.96
496980,4969.8
497063,4970.63
497144,4971.44
497226,4972.26
497306,4973.06
497383,4973.83
497460,4974.6
497540,4975.4
497621,4976.21
497703,4977.03
497789,4977.89
497879,4978.79
497971,4979.71
498064,4980.64
498157,4981.57
498251,4982.51
498349,4983.49
498443,4984.43
498539,4985.39
498634,4986.34
498728,4987.28
498827,4988.27
498922,4989.22
499016,4990.16
499120,4991.2
499223,4992.23
499324,4993.24
499424,4994.24
499527,4995.27
499632,4996.32
499731,4997.31
499835,4998.35
499943,4999.43
500045,5000.45
500147,5001.47
500229,5002.29
500311,5003.11
500398,5003.98
500474,5004.74
500550,5005.5
500633,5006.33
500716,5007.16
500792,5007.92
500868,5008.68
500945,5009.45
501026,5010.26
501110,5011.1
501196,5011.96
501284,5012.84
501376,5013.76
501467,5014.67
501557,5015.57
501649,5016.49
501742,5017.42
501836,5018.36
501932,5019.32
502029,5020.29
502129,5021.29
502227,5022.27
502323,5023.23
502420,5024.2
502513,5025.13
502608,5026.08
502703,5027.03
502795,5027.95
502882,5028.82
502970,5029.7
503058,5030.58
503153,5031.53
503257,5032.57
503359,5033.59
503465,5034.65
503569,5035.69
503676,5036.76
503767,5037.67
503854,5038.54
503947,5039.47
504035,5040.35
504119,5041.19
504194,5041.94
504279,5042.79
504359,5043.59
504440,5044.4
504526,5045.26
504618,5046.18
504709,5047.09
504804,5048.04
504901,5049.01
504996,5049.96
505089,5050.89
505182,5051.82
505277,5052.77
505371,5053.71
505465,5054.65
505561,5055.61
505659,5056.59
505757,5057.57
505852,5058.52
505951,5059.51
506050,5060.5
506147,5061.47
506247,5062.47
506346,5063.46
506443,5064.43
506542,5065.42
506644,5066.44
506745,5067.45
506843,5068.43
506946,5069.46
507056,5070.56
507161,5071.61
507266,5072.66
507361,5073.61
507451,5074.51
507547,5075.47
507629,5076.29
507714,5077.14
507800,5078.0
507873,5078.73
507953,5079.53
508032,5080.32
508112,5081.12
508195,5081.95
508281,5082.81
508369,5083.69
508459,5084.59
508552,5085.52
508645,5086.45
508738,5087.38
508831,5088.31
508927,5089.27
509020,5090.2
509114,5091.14
509209,5092.09
509301,5093.01
509396,5093.96
509491,5094.91
509587,5095.87
509682,5096.82
509781,5097.81
509878,5098.78
509971,5099.71
510074,5100.74
510177,5101.77
510276,5102.76
510379,5103.79
510482,5104.82
510585,5105.85
510687,5106.87
510792,5107.92
510877,5108.77
510967,5109.67
511054,5110.54
511145,5111.45
511224,5112.24
511304,5113.04
511383,5113.83
511459,5114.59
511536,5115.36
511614,5116.14
511693,5116.93
511774,5117.74
511858,5118.58
511945,5119.45
512036,5120.36
512129,5121.29
512223,5122.23
512318,5123.18
512410,5124.1
512503,5125.03
512596,5125.96
512688,5126.88
512782,5127.82
512874,5128.74
512967,5129.67
513065,5130.65
513165,5131.65
513266,5132.66
513361,5133.61
513457,5134.57
513553,5135.53
513649,5136.49
513745,5137.45
513841,5138.41
513941,5139.41
514041,5140.41
514141,5141.41
514243,5142.43
514345,5143.45
514444,5144.44
514548,5145.48
514651,5146.51
514750,5147.5
514850,5148.5
514947,5149.47
515032,5150.32
515121,5151.21
515204,5152.04
515292,5152.92
515366,5153.66
515443,5154.43
515518,5155.18
515595,5155.95
515672,5156.72
515752,5157.52
515833,5158.33
515917,5159.17
516007,5160.07
516099,5160.99
516190,5161.9
516282,5162.82
516376,5163.76
516471,5164.71
516568,5165.68
516665,5166.65
516761,5167.61
516857,5168.57
516953,5169.53
517048,5170.48
517142,5171.42
517240,5172.4
517338,5173.38
517442,5174.42
517541,5175.41
517644,5176.44
517745,5177.45
517841,5178.41
517944,5179.44
518047,5180.47
518145,5181.45
518245,5182.45
518347,5183.47
518445,5184.45
518537,5185.37
518629,5186.29
518716,5187.16
518806,5188.06
518897,5188.97
518974,5189.74
519053,5190.53
519130,5191.3
519207,5192.07
519283,5192.83
519358,5193.58
519434,5194.34
519514,5195.14
519595,5195.95
519678,5196.78
519764,5197.64
519851,5198.51
519943,5199.43
520034,5200.34
520125,5201.25
520220,5202.2
520313,5203.13
520405,5204.05
520499,5204.99
520595,5205.95
520691,5206.91
520789,5207.89
520887,5208.87
520983,5209.83
521079,5210.79
521176,5211.76
521271,5212.71
521361,5213.61
521450,5214.5
521541,5215.41
521633,5216.33
521714,5217.14
521799,5217.99
521882,5218.82
521966,5219.66
522053,5220.53
522142,5221.42
522231,5222.31
522327,5223.27
522425,5224.25
522521,5225.21
522612,5226.12
522704,5227.04
522797,5227.97
522889,5228.89
522983,5229.83
523080,5230.8
523175,5231.75
523275,5232.75
523379,5233.79
523479,5234.79
523579,5235.79
523682,5236.82
523787,5237.87
523887,5238.87
523988,5239.88
524091,5240.91
524189,5241.89
524291,5242.91
524393,5243.93
524482,5244.82
524572,5245.72
524663,5246.63
524742,5247.42
524824,5248.24
524904,5249.04
524984,5249.84
525062,5250.62
525141,5251.41
525220,5252.2
525299,5252.99
525377,5253.77
525460,5254.6
525545,5255.45
525629,5256.29
525716,5257.16
525804,5258.04
525895,5258.95
525986,5259.86
526077,5260.77
526170,5261.7
526263,5262.63
526357,5263.57
526453,5264.53
526548,5265.48
526643,5266.43
526745,5267.45
526845,5268.45
526943,5269.43
527039,5270.39
527137,5271.37
527236,5272.36
527332,5273.32
527431,5274.31
527533,5275.33
527632,5276.32
527733,5277.33
527836,5278.36
527947,5279.47
528063,5280.63
528198,5281.98
528334,5283.34
528469,5284.69
528581,5285.81
528698,5286.98
528792,5287.92
528888,5288.88
528970,5289.7
529054,5290.54
529134,5291.34
529216,5292.16
529291,5292.91
529367,5293.67
529445,5294.45
529523,5295.23
529602,5296.02
529683,5296.83
529764,5297.64
529844,5298.44
529926,5299.26
530009,5300.09
530087,5300.87
530169,5301.69
530252,5302.52
530337,5303.37
530424,5304.24
530514,5305.14
530603,5306.03
530694,5306.94
530785,5307.85
530877,5308.77
530971,5309.71
531062,5310.62
531155,5311.55
531251,5312.51
531347,5313.47
531443,5314.43
531537,5315.37
531632,5316.32
531725,5317.25
531819,5318.19
531916,5319.16
532011,5320.11
532103,5321.03
532198,5321.98
532291,5322.91
532383,5323.83
532476,5324.76
532568,5325.68
532661,5326.61
532749,5327.49
532831,5328.31
532918,5329.18
532999,5329.99
533079,5330.79
533155,5331.55
533236,5332.36
533314,5333.14
533392,5333.92
533471,5334.71
533555,5335.55
533638,5336.38
533721,5337.21
533806,5338.06
533894,5338.94
533983,5339.83
534073,5340.73
534162,5341.62
534249,5342.49
534336,5343.36
534423,5344.23
534513,5345.13
534604,5346.04
534695,5346.95
534785,5347.85
534876,5348.76
534971,5349.71
535063,5350.63
535155,5351.55
535252,5352.52
535348,5353.48
535445,5354.45
535540,5355.4
535639,5356.39
535739,5357.39
535844,5358.44
535945,5359.45
536047,5360.47
536164,5361.64
536274,5362.74
536389,5363.89
536483,5364.83
536567,5365.67
536653,5366.53
536734,5367.34
536815,5368.15
536897,5368.97
536972,5369.72
537051,5370.51
537128,5371.28
537205,5372.05
537284,5372.84
537363,5373.63
537446,5374.46
537529,5375.29
537614,5376.14
537699,5376.99
537785,5377.85
537874,5378.74
537964,5379.64
538053,5380.53
538143,5381.43
538233,5382.33
538323,5383.23
538413,5384.13
538504,5385.04
538596,5385.96
538689,5386.89
538780,5387.8
538872,5388.72
538966,5389.66
539057,5390.57
539150,5391.5
539243,5392.43
539335,5393.35
539425,5394.25
539517,5395.17
539612,5396.12
539705,5397.05
539799,5397.99
539896,5398.96
539999,5399.99
540109,5401.09
540205,5402.05
540319,5403.19
540428,5404.28
540541,5405.41
540648,5406.48
540753,5407.53
540861,5408.61
540976,5409.76
541075,5410.75
541174,5411.74
541262,5412.62
541348,5413.48
541420,5414.2
541497,5414.97
541584,5415.84
541654,5416.54
541725,5417.25
541803,5418.03
541875,5418.75
541942,5419.42
542014,5420.14
542087,5420.87
542157,5421.57
542241,5422.41
542310,5423.1
542386,5423.86
542462,5424.62
542539,5425.39
542623,5426.23
542696,5426.96
542782,5427.82
542858,5428.58
542948,5429.48
543026,5430.26
543112,5431.12
543198,5431.98
543292,5432.92
543373,5433.73
543466,5434.66
543545,5435.45
543630,5436.3
543723,5437.23
543803,5438.03
543889,5438.89
543970,5439.7
544056,5440.56
544139,5441.39
544222,5442.22
544305,5443.05
544388,5443.88
544479,5444.79
544565,5445.65
544643,5446.43
544727,5447.27
544817,5448.17
544895,5448.95
544981,5449.81
545067,5450.67
545162,5451.62
545245,5452.45
545337,5453.37
545437,5454.37
545523,5455.23
545615,5456.15
545711,5457.11
545809,5458.09
545896,5458.96
545981,5459.81
546065,5460.65
546146,5461.46
546220,5462.2
546296,5462.96
546382,5463.82
546453,5464.53
546530,5465.3
546605,5466.05
546688,5466.88
546761,5467.61
546842,5468.42
546925,5469.25
547010,5470.1
547097,5470.97
547187,5471.87
547278,5472.78
547376,5473.76
547459,5474.59
547552,5475.52
547645,5476.45
547738,5477.38
547834,5478.34
547929,5479.29
548028,5480.28
548122,5481.22
548216,5482.16
548310,5483.1
548405,5484.05
548506,5485.06
548597,5485.97
548695,5486.95
548799,5487.99
548893,5488.93
548990,5489.9
549090,5490.9
549197,5491.97
549296,5492.96
549400,5494.0
549501,5495.01
549602,5496.02
549702,5497.02
549814,5498.14
549914,5499.14
550013,5500.13
550128,5501.28
550230,5502.3
550312,5503.12
550404,5504.04
550490,5504.9
550581,5505.81
550656,5506.56
550731,5507.31
550817,5508.17
550888,5508.88
550963,5509.63
551035,5510.35
551111,5511.11
551191,5511.91
551270,5512.7
551357,5513.57
551433,5514.33
551518,5515.18
551612,5516.12
551699,5516.99
551786,5517.86
551875,5518.75
551957,5519.57
552053,5520.53
552142,5521.42
552226,5522.26
552324,5523.24
552408,5524.08
552504,5525.04
552588,5525.88
552679,5526.79
552769,5527.69
552859,5528.59
552953,5529.53
553047,5530.47
553143,5531.43
553247,5532.47
553344,5533.44
553435,5534.35
553532,5535.32
553639,5536.39
553732,5537.32
553842,5538.42
553944,5539.44
554041,5540.41
554151,5541.51
554263,5542.63
554362,5543.62
554470,5544.7
554580,5545.8
554674,5546.74
554756,5547.56
554849,5548.49
554929,5549.29
555010,5550.1
555089,5550.89
555159,5551.59
555230,5552.3
555313,5553.13
555380,5553.8
555453,5554.53
555527,5555.27
555601,5556.01
555679,5556.79
555760,5557.6
555843,5558.43
555929,5559.29
556022,5560.22
556105,5561.05
556195,5561.95
556293,5562.93
556383,5563.83
556474,5564.74
556567,5565.67
556653,5566.53
556752,5567.52
556845,5568.45
556934,5569.34
557029,5570.29
557124,5571.24
557218,5572.18
557315,5573.15
557419,5574.19
557514,5575.14
557609,5576.09
557703,5577.03
557801,5578.01
557896,5578.96
557993,5579.93
558100,5581.0
558193,5581.93
558299,5582.99
558400,5584.0
558504,5585.04
558610,5586.1
558724,5587.24
558828,5588.28
558933,5589.33
559037,5590.37
559141,5591.41
559241,5592.41
559348,5593.48
559441,5594.41
559543,5595.43
559652,5596.52
559747,5597.47
559842,5598.42
559928,5599.28
560014,5600.14
560094,5600.94
560171,5601.71
560249,5602.49
560324,5603.24
560400,5604.0
560469,5604.69
560543,5605.43
560623,5606.23
560688,5606.88
560767,5607.67
560846,5608.46
560927,5609.27
561006,5610.06
561092,5610.92
561184,5611.84
561272,5612.72
561354,5613.54
561448,5614.48
561535,5615.35
561623,5616.23
561706,5617.06
561804,5618.04
561887,5618.87
561973,5619.73
562073,5620.73
562166,5621.66
562260,5622.6
562356,5623.56
562453,5624.53
562546,5625.46
562651,5626.51
562749,5627.49
562847,5628.47
562945,5629.45
563046,5630.46
563149,5631.49
563252,5632.52
563356,5633.56
563461,5634.61
563564,5635.64
563663,5636.63
563764,5637.64
563871,5638.71
563959,5639.59
564063,5640.63
564168,5641.68
564260,5642.6
564345,5643.45
564437,5644.37
564520,5645.2
564593,5645.93
564666,5646.66
564752,5647.52
564826,5648.26
564891,5648.91
564975,5649.75
565042,5650.42
565114,5651.14
565192,5651.92
565269,5652.69
565355,5653.55
565428,5654.28
565516,5655.16
565594,5655.94
565687,5656.87
565767,5657.67
565854,5658.54
565948,5659.48
566035,5660.35
566123,5661.23
566208,5662.08
566301,5663.01
566393,5663.93
566489,5664.89
566574,5665.74
566673,5666.73
566765,5667.65
566857,5668.57
566941,5669.41
567035,5670.35
567131,5671.31
567221,5672.21
567310,5673.1
567409,5674.09
567490,5674.9
567584,5675.84
567661,5676.61
567741,5677.41
567820,5678.2
567902,5679.02
567966,5679.66
568049,5680.49
568115,5681.15
568189,5681.89
568270,5682.7
568340,5683.4
568420,5684.2
568501,5685.01
568590,5685.9
568673,5686.73
568757,5687.57
568836,5688.36
568930,5689.3
569017,5690.17
569110,5691.1
569202,5692.02
569297,5692.97
569394,5693.94
569498,5694.98
569598,5695.98
569695,5696.95
569793,5697.93
569891,5698.91
569990,5699.9
570081,5700.81
570182,5701.82
570276,5702.76
570369,5703.69
570459,5704.59
570545,5705.45
570630,5706.3
570704,5707.04
570785,5707.85
570861,5708.61
570938,5709.38
571011,5710.11
571089,5710.89
571164,5711.64
571239,5712.39
571317,5713.17
571396,5713.96
571484,5714.84
571561,5715.61
571646,5716.46
571734,5717.34
571822,5718.22
571916,5719.16
572005,5720.05
572089,5720.89
572179,5721.79
572274,5722.74
572364,5723.64
572447,5724.47
572538,5725.38
572635,5726.35
572727,5727.27
572815,5728.15
572918,5729.18
573015,5730.15
573110,5731.1
573201,5732.01
573306,5733.06
573419,5734.19
573522,5735.22
573624,5736.24
573729,5737.29
573848,5738.48
573949,5739.49
574065,5740.65
574170,5741.7
574279,5742.79
574390,5743.9
574503,5745.03
574624,5746.24
574734,5747.34
574840,5748.4
574940,5749.4
575051,5750.51
575154,5751.54
575260,5752.6
575357,5753.57
575442,5754.42
575522,5755.22
575587,5755.87
575670,5756.7
575743,5757.43
575814,5758.14
575884,5758.84
575956,5759.56
576029,5760.29
576103,5761.03
576178,5761.78
576254,5762.54
576328,5763.28
576415,5764.15
576490,5764.9
576570,5765.7
576662,5766.62
576745,5767.45
576830,5768.3
576915,5769.15
576999,5769.99
577074,5770.74
577161,5771.61
577254,5772.54
577340,5773.4
577420,5774.2
577513,5775.13
577588,5775.88
577680,5776.8
577759,5777.59
577845,5778.45
577936,5779.36
578012,5780.12
578093,5780.93
578174,5781.74
578261,5782.61
578341,5783.41
578415,5784.15
578503,5785.03
578587,5785.87
578665,5786.65
578758,5787.58
578841,5788.41
578936,5789.36
579038,5790.38
579136,5791.36
579235,5792.35
579337,5793.37
579438,5794.38
579535,5795.35
579625,5796.25
579731,5797.31
579830,5798.3
579927,5799.27
580028,5800.28
580135,5801.35
580239,5802.39
580341,5803.41
580447,5804.47
580558,5805.58
580665,5806.65
580776,5807.76
580885,5808.85
581010,5810.1
581108,5811.08
581204,5812.04
581299,5812.99
581386,5813.86
581469,5814.69
581546,5815.46
581621,5816.21
581683,5816.83
581756,5817.56
581823,5818.23
581903,5819.03
581976,5819.76
582050,5820.5
582126,5821.26
582203,5822.03
582274,5822.74
582359,5823.59
582432,5824.32
582519,5825.19
582591,5825.91
582675,5826.75
582758,5827.58
582849,5828.49
582924,5829.24
583010,5830.1
583099,5830.99
583188,5831.88
583277,5832.77
583378,5833.78
583471,5834.71
583565,5835.65
583659,5836.59
583746,5837.46
583848,5838.48
583944,5839.44
584030,5840.3
584124,5841.24
584226,5842.26
584320,5843.2
584416,5844.16
584504,5845.04
584588,5845.88
584669,5846.69
584736,5847.36
584821,5848.21
584895,5848.95
584961,5849.61
585034,5850.34
585108,5851.08
585191,5851.91
585269,5852.69
585341,5853.41
585421,5854.21
585511,5855.11
585589,5855.89
585679,5856.79
585762,5857.62
585845,5858.45
585929,5859.29
586013,5860.13
586098,5860.98
586184,5861.84
586272,5862.72
586356,5863.56
586453,5864.53
586544,5865.44
586634,5866.34
586725,5867.25
586817,5868.17
586908,5869.08
587000,5870.0
587087,5870.87
587189,5871.89
587283,5872.83
587378,5873.78
587475,5874.75
587569,5875.69
587663,5876.63
587759,5877.59
587857,5878.57
587957,5879.57
588057,5880.57
588150,5881.5
588252,5882.52
588339,5883.39
588427,5884.27
588510,5885.1
588591,5885.91
588660,5886.6
588741,5887.41
588814,5888.14
588879,5888.79
588956,5889.56
589021,5890.21
589100,5891.0
589167,5891.67
589248,5892.48
589314,5893.14
589394,5893.94
589472,5894.72
589557,5895.57
589630,5896.3
589709,5897.09
589789,5897.89
589869,5898.69
589955,5899.55
590034,5900.34
590109,5901.09
590191,5901.91
590281,5902.81
590366,5903.66
590451,5904.51
590537,5905.37
590624,5906.24
590711,5907.11
590800,5908.0
590892,5908.92
590984,5909.84
591076,5910.76
591168,5911.68
591262,5912.62
591356,5913.56
591449,5914.49
591543,5915.43
591639,5916.39
591734,5917.34
591831,5918.31
591930,5919.3
592027,5920.27
592116,5921.16
592199,5921.99
592297,5922.97
592375,5923.75
592458,5924.58
592541,5925.41
592617,5926.17
592695,5926.95
592780,5927.8
592873,5928.73
592966,5929.66
593046,5930.46
593135,5931.35
593211,5932.11
593288,5932.88
593365,5933.65
593444,5934.44
593522,5935.22
593608,5936.08
593689,5936.89
593764,5937.64
593852,5938.52
593934,5939.34
594017,5940.17
594102,5941.02
594188,5941.88
594269,5942.69
594363,5943.63
594452,5944.52
594536,5945.36
594636,5946.36
594731,5947.31
594825,5948.25
594924,5949.24
595016,5950.16
595119,5951.19
595213,5952.13
595300,5953.0
595402,5954.02
595498,5954.98
595589,5955.89
595695,5956.95
595801,5958.01
595905,5959.05
596011,5960.11
596115,5961.15
596215,5962.15
596311,5963.11
596424,5964.24
596531,5965.31
596638,5966.38
596746,5967.46
596852,5968.52
596956,5969.56
597069,5970.69
597175,5971.75
597271,5972.71
597347,5973.47
597430,5974.3
597506,5975.06
597582,5975.82
597649,5976.49
597732,5977.32
597806,5978.06
597880,5978.8
597944,5979.44
598024,5980.24
598104,5981.04
598181,5981.81
598253,5982.53
598339,5983.39
598420,5984.2
598495,5984.95
598577,5985.77
598660,5986.6
598750,5987.5
598835,5988.35
598919,5989.19
598999,5989.99
599087,5990.87
599182,5991.82
599271,5992.71
599362,5993.62
599454,5994.54
599545,5995.45
599637,5996.37
599731,5997.31
599822,5998.22
599907,5999.07
600009,6000.09
600106,6001.06
600193,6001.93
600294,6002.94
600388,6003.88
600475,6004.75
600579,6005.79
600672,6006.72
600766,6007.66
600866,6008.66
600967,6009.67
601059,6010.59
601170,6011.7
601275,6012.75
601375,6013.75
601480,6014.8
601582,6015.82
601682,6016.82
601776,6017.76
601886,6018.86
601985,6019.85
602087,6020.87
602179,6021.79
602291,6022.91
602391,6023.91
602504,6025.04
602603,6026.03
602678,6026.78
602796,6027.96
602912,6029.12
603030,6030.3
603128,6031.28
603212,6032.12
603281,6032.81
603362,6033.62
603418,6034.18
603474,6034.74
603524,6035.24
603584,6035.84
603650,6036.5
603716,6037.16
603800,6038.0
603884,6038.84
603941,6039.41
603999,6039.99
604076,6040.76
604153,6041.53
604221,6042.21
604309,6043.09
604378,6043.78
604467,6044.67
604546,6045.46
604620,6046.2
604707,6047.07
604788,6047.88
604870,6048.7
604953,6049.53
605038,6050.38
605124,6051.24
605211,6052.11
605297,6052.97
605386,6053.86
605475,6054.75
605556,6055.56
605654,6056.54
605746,6057.46
605838,6058.38
605929,6059.29
606025,6060.25
606124,6061.24
606221,6062.21
606316,6063.16
606416,6064.16
606521,6065.21
606618,6066.18
606712,6067.12
606803,6068.03
606889,6068.89
606975,6069.75
607067,6070.67
607141,6071.41
607224,6072.24
607287,6072.87
607358,6073.58
607438,6074.38
607507,6075.07
607576,6075.76
607640,6076.4
607718,6077.18
607791,6077.91
607865,6078.65
607940,6079.4
608016,6080.16
608092,6080.92
608162,6081.62
608240,6082.4
608324,6083.24
608402,6084.02
608481,6084.81
608561,6085.61
608644,6086.44
608728,6087.28
608812,6088.12
608898,6088.98
608986,6089.86
609075,6090.75
609164,6091.64
609253,6092.53
609334,6093.34
609424,6094.24
609523,6095.23
609613,6096.13
609707,6097.07
609802,6098.02
609893,6098.93
609985,6099.85
610080,6100.8
610174,6101.74
610259,6102.59
610333,6103.33
610413,6104.13
610498,6104.98
610571,6105.71
610644,6106.44
610715,6107.15
610786,6107.86
610849,6108.49
610925,6109.25
610989,6109.89
611068,6110.68
611136,6111.36
611219,6112.19
611297,6112.97
611376,6113.76
611450,6114.5
611538,6115.38
611613,6116.13
611694,6116.94
611782,6117.82
611864,6118.64
611941,6119.41
612027,6120.27
612118,6121.18
612204,6122.04
612293,6122.93
612381,6123.81
612468,6124.68
612555,6125.55
612644,6126.44
612732,6127.32
612813,6128.13
612907,6129.07
612996,6129.96
613083,6130.83
613172,6131.72
613263,6132.63
613357,6133.57
613450,6134.5
613544,6135.44
613639,6136.39
613734,6137.34
613831,6138.31
613928,6139.28
614025,6140.25
614121,6141.21
614218,6142.18
614316,6143.16
614403,6144.03
614489,6144.89
614585,6145.85
614667,6146.67
614747,6147.47
614817,6148.17
614896,6148.96
614968,6149.68
615038,6150.38
615101,6151.01
615171,6151.71
615241,6152.41
615313,6153.13
615384,6153.84
615458,6154.58
615539,6155.39
615609,6156.09
615688,6156.88
615767,6157.67
615848,6158.48
615929,6159.29
616010,6160.1
616092,6160.92
616175,6161.75
616258,6162.58
616341,6163.41
616432,6164.32
616517,6165.17
616596,6165.96
616683,6166.83
616771,6167.71
616865,6168.65
616947,6169.47
617043,6170.43
617126,6171.26
617216,6172.16
617307,6173.07
617397,6173.97
617489,6174.89
617582,6175.82
617679,6176.79
617769,6177.69
617853,6178.53
617950,6179.5
618031,6180.31
618117,6181.17
618198,6181.98
618282,6182.82
618367,6183.67
618437,6184.37
618509,6185.09
618585,6185.85
618663,6186.63
618735,6187.35
618807,6188.07
618878,6188.78
618940,6189.4
619023,6190.23
619094,6190.94
619179,6191.79
619252,6192.52
619340,6193.4
619416,6194.16
619506,6195.06
619590,6195.9
619668,6196.68
619753,6197.53
619844,6198.44
619929,6199.29
620008,6200.08
620102,6201.02
620190,6201.9
620278,6202.78
620361,6203.61
620459,6204.59
620550,6205.5
620641,6206.41
620727,6207.27
620827,6208.27
620920,6209.2
621007,6210.07
621107,6211.07
621193,6211.93
621293,6212.93
621386,6213.86
621479,6214.79
621570,6215.7
621655,6216.55
621758,6217.58
621855,6218.55
621950,6219.5
622048,6220.48
622140,6221.4
622241,6222.41
622334,6223.34
622431,6224.31
622528,6225.28
622621,6226.21
622698,6226.98
622792,6227.92
622875,6228.75
622957,6229.57
623037,6230.37
623108,6231.08
623189,6231.89
623263,6232.63
623337,6233.37
623404,6234.04
623474,6234.74
623558,6235.58
623629,6236.29
623708,6237.08
623795,6237.95
623876,6238.76
623958,6239.58
624037,6240.37
624123,6241.23
624216,6242.16
624296,6242.96
624390,6243.9
624480,6244.8
624565,6245.65
624655,6246.55
624757,6247.57
624850,6248.5
624945,6249.45
625039,6250.39
625134,6251.34
625225,6252.25
625330,6253.3
625429,6254.29
625527,6255.27
625627,6256.27
625728,6257.28
625827,6258.27
625922,6259.22
626027,6260.27
626128,6261.28
626229,6262.29
626329,6263.29
626421,6264.21
626530,6265.3
626632,6266.32
626733,6267.33
626828,6268.28
626942,6269.42
627043,6270.43
627142,6271.42
627244,6272.44
627337,6273.37
627446,6274.46
627542,6275.42
627641,6276.41
627736,6277.36
627813,6278.13
627907,6279.07
627989,6279.89
628063,6280.63
628147,6281.47
628223,6282.23
628286,6282.86
628360,6283.6
628445,6284.45
628515,6285.15
628591,6285.91
628673,6286.73
628743,6287.43
628819,6288.19
628897,6288.97
628978,6289.78
629055,6290.55
629137,6291.37
629226,6292.26
629298,6292.98
629376,6293.76
629455,6294.55
629533,6295.33
629611,6296.11
629688,6296.88
629765,6297.65
629841,6298.41
629918,6299.18
629996,6299.96
630075,6300.75
630153,6301.53
630232,6302.32
630311,6303.11
630391,6303.91
630472,6304.72
630553,6305.53
630633,6306.33
630714,6307.14
630796,6307.96
630879,6308.79
630961,6309.61
631044,6310.44
631127,6311.27
631210,6312.1
631298,6312.98
631386,6313.86
631475,6314.75
631562,6315.62
631653,6316.53
631745,6317.45
631835,6318.35
631923,6319.23
632010,6320.1
632092,6320.92
632175,6321.75
632254,6322.54
632332,6323.32
632410,6324.1
632487,6324.87
632561,6325.61
632635,6326.35
632710,6327.1
632786,6327.86
632862,6328.62
632940,6329.4
633019,6330.19
633098,6330.98
633177,6331.77
633256,6332.56
633334,6333.34
633412,6334.12
633491,6334.91
633571,6335.71
633653,6336.53
633738,6337.38
633825,6338.25
633911,6339.11
633998,6339.98
634089,6340.89
634180,6341.8
634271,6342.71
634364,6343.64
634457,6344.57
634553,6345.53
634651,6346.51
634749,6347.49
634845,6348.45
634942,6349.42
635044,6350.44
635145,6351.45
635246,6352.46
635348,6353.48
635450,6354.5
635549,6355.49
635650,6356.5
635754,6357.54
635856,6358.56
635958,6359.58
636063,6360.63
636165,6361.65
636264,6362.64
636367,6363.67
636460,6364.6
636550,6365.5
636642,6366.42
636728,6367.28
636811,6368.11
636891,6368.91
636966,6369.66
637040,6370.4
637113,6371.13
637186,6371.86
637261,6372.61
637337,6373.37
637414,6374.14
637492,6374.92
637570,6375.7
637649,6376.49
637731,6377.31
637815,6378.15
637900,6379.0
637985,6379.85
638072,6380.72
638159,6381.59
638244,6382.44
638332,6383.32
638420,6384.2
638510,6385.1
638602,6386.02
638692,6386.92
638783,6387.83
638875,6388.75
638969,6389.69
639063,6390.63
639156,6391.56
639253,6392.53
639349,6393.49
639445,6394.45
639541,6395.41
639641,6396.41
639739,6397.39
639837,6398.37
639937,6399.37
640041,6400.41
640142,6401.42
640245,6402.45
640346,6403.46
640442,6404.42
640541,6405.41
640621,6406.21
640707,6407.07
640788,6407.88
640869,6408.69
640947,6409.47
641021,6410.21
641101,6411.01
641171,6411.71
641241,6412.41
641315,6413.15
641387,6413.87
641461,6414.61
641535,6415.35
641609,6416.09
641683,6416.83
641759,6417.59
641836,6418.36
641918,6419.18
642005,6420.05
642094,6420.94
642188,6421.88
642283,6422.83
642379,6423.79
642475,6424.75
642573,6425.73
642670,6426.7
642771,6427.71
642874,6428.74
642973,6429.73
643072,6430.72
643175,6431.75
643278,6432.78
643375,6433.75
643466,6434.66
643563,6435.63
643656,6436.56
643742,6437.42
643829,6438.29
643910,6439.1
643989,6439.89
644063,6440.63
644141,6441.41
644218,6442.18
644293,6442.93
644369,6443.69
644444,6444.44
644520,6445.2
644598,6445.98
644676,6446.76
644753,6447.53
644836,6448.36
644916,6449.16
644998,6449.98
645081,6450.81
645164,6451.64
645249,6452.49
645334,6453.34
645419,6454.19
645509,6455.09
645598,6455.98
645691,6456.91
645782,6457.82
645874,6458.74
645968,6459.68
646063,6460.63
646158,6461.58
646251,6462.51
646344,6463.44
646441,6464.41
646540,6465.4
646639,6466.39
646735,6467.35
646833,6468.33
646936,6469.36
647035,6470.35
647133,6471.33
647233,6472.33
647337,6473.37
647437,6474.37
647534,6475.34
647630,6476.3
647727,6477.27
647822,6478.22
647916,6479.16
648012,6480.12
648107,6481.07
648202,6482.02
648297,6482.97
648389,6483.89
648475,6484.75
648561,6485.61
648610,6486.1
648663,6486.63
648729,6487.29
648798,6487.98
648875,6488.75
648951,6489.51
649027,6490.27
649103,6491.03
649181,6491.81
649260,6492.6
649343,6493.43
649428,6494.28
649515,6495.15
649603,6496.03
649694,6496.94
649784,6497.84
649875,6498.75
649966,6499.66
650058,6500.58
650149,6501.49
650244,6502.44
650337,6503.37
650434,6504.34
650533,6505.33
650629,6506.29
650725,6507.25
650820,6508.2
650921,6509.21
651019,6510.19
651115,6511.15
651214,6512.14
651314,6513.14
651412,6514.12
651501,6515.01
651591,6515.91
651676,6516.76
651759,6517.59
651843,6518.43
651923,6519.23
652000,6520.0
652078,6520.78
652155,6521.55
652231,6522.31
652307,6523.07
652385,6523.85
652466,6524.66
652549,6525.49
652634,6526.34
652721,6527.21
652812,6528.12
652904,6529.04
652995,6529.95
653086,6530.86
653176,6531.76
653267,6532.67
653360,6533.6
653452,6534.52
653545,6535.45
653640,6536.4
653732,6537.32
653828,6538.28
653929,6539.29
654030,6540.3
654136,6541.36
654236,6542.36
654342,6543.42
654446,6544.46
654546,6545.46
654645,6546.45
654746,6547.46
654846,6548.46
654944,6549.44
655044,6550.44
655152,6551.52
655260,6552.6
655366,6553.66
655473,6554.73
655586,6555.86
655695,6556.95
655802,6558.02
655912,6559.12
656015,6560.15
656113,6561.13
656210,6562.1
656312,6563.12
656411,6564.11
656510,6565.1
656603,6566.03
656690,6566.9
656775,6567.75
656856,6568.56
656936,6569.36
657012,6570.12
657086,6570.86
657159,6571.59
657232,6572.32
657306,6573.06
657380,6573.8
657454,6574.54
657529,6575.29
657605,6576.05
657682,6576.82
657762,6577.62
657845,6578.45
657929,6579.29
658016,6580.16
658103,6581.03
658187,6581.87
658272,6582.72
658358,6583.58
658445,6584.45
658533,6585.33
658623,6586.23
658714,6587.14
658803,6588.03
658891,6588.91
658982,6589.82
659074,6590.74
659164,6591.64
659252,6592.52
659340,6593.4
659430,6594.3
659520,6595.2
659610,6596.1
659705,6597.05
659797,6597.97
659894,6598.94
659988,6599.88
660083,6600.83
660176,6601.76
660255,6602.55
660335,6603.35
660423,6604.23
660512,6605.12
660589,6605.89
660671,6606.71
660746,6607.46
660821,6608.21
660898,6608.98
660974,6609.74
661051,6610.51
661129,6611.29
661211,6612.11
661297,6612.97
661382,6613.82
661468,6614.68
661558,6615.58
661649,6616.49
661738,6617.38
661829,6618.29
661917,6619.17
662008,6620.08
662098,6620.98
662191,6621.91
662281,6622.81
662373,6623.73
662463,6624.63
662553,6625.53
662644,6626.44
662733,6627.33
662819,6628.19
662909,6629.09
662999,6629.99
663088,6630.88
663178,6631.78
663268,6632.68
663356,6633.56
663443,6634.43
663531,6635.31
663619,6636.19
663708,6637.08
663795,6637.95
663886,6638.86
663975,6639.75
664064,6640.64
664155,6641.55
664248,6642.48
664343,6643.43
664437,6644.37
664532,6645.32
664631,6646.31
664732,6647.32
664833,6648.33
664935,6649.35
665041,6650.41
665151,6651.51
665257,6652.57
665364,6653.64
665474,6654.74
665580,6655.8
665684,6656.84
665793,6657.93
665899,6658.99
665991,6659.91
666080,6660.8
666166,6661.66
666246,6662.46
666327,6663.27
666410,6664.1
666488,6664.88
666564,6665.64
666641,6666.41
666716,6667.16
666793,6667.93
666869,6668.69
666948,6669.48
667030,6670.3
667116,6671.16
667205,6672.05
667295,6672.95
667386,6673.86
667479,6674.79
667575,6675.75
667670,6676.7
667765,6677.65
667857,6678.57
667952,6679.52
668046,6680.46
668143,6681.43
668240,6682.4
668337,6683.37
668435,6684.35
668536,6685.36
668635,6686.35
668730,6687.3
668824,6688.24
668924,6689.24
669022,6690.22
669116,6691.16
669206,6692.06
669294,6692.94
669380,6693.8
669463,6694.63
669546,6695.46
669625,6696.25
669704,6697.04
669781,6697.81
669858,6698.58
669935,6699.35
670012,6700.12
670094,6700.94
670177,6701.77
670262,6702.62
670349,6703.49
670440,6704.4
670533,6705.33
670626,6706.26
670718,6707.18
670809,6708.09
670903,6709.03
670995,6709.95
671086,6710.86
671179,6711.79
671270,6712.7
671362,6713.62
671456,6714.56
671548,6715.48
671640,6716.4
671734,6717.34
671828,6718.28
671921,6719.21
672016,6720.16
672116,6721.16
672213,6722.13
672310,6723.1
672410,6724.1
672508,6725.08
672608,6726.08
672705,6727.05
672798,6727.98
672898,6728.98
673005,6730.05
673109,6731.09
673214,6732.14
673312,6733.12
673414,6734.14
673515,6735.15
673613,6736.13
673713,6737.13
673831,6738.31
673945,6739.45
674062,6740.62
674174,6741.74
674291,6742.91
674406,6744.06
674509,6745.09
674600,6746.0
674689,6746.89
674773,6747.73
674855,6748.55
674933,6749.33
675010,6750.1
675085,6750.85
675157,6751.57
675231,6752.31
675304,6753.04
675378,6753.78
675453,6754.53
675532,6755.32
675614,6756.14
675698,6756.98
675784,6757.84
675872,6758.72
675962,6759.62
676052,6760.52
676142,6761.42
676230,6762.3
676320,6763.2
676411,6764.11
676502,6765.02
676592,6765.92
676685,6766.85
676780,6767.8
676876,6768.76
676971,6769.71
677065,6770.65
677163,6771.63
677261,6772.61
677354,6773.54
677447,6774.47
677541,6775.41
677638,6776.38
677735,6777.35
677835,6778.35
677937,6779.37
678033,6780.33
678128,6781.28
678221,6782.21
678308,6783.08
678395,6783.95
678479,6784.79
678559,6785.59
678640,6786.4
678719,6787.19
678794,6787.94
678869,6788.69
678943,6789.43
679016,6790.16
679089,6790.89
679163,6791.63
679239,6792.39
679317,6793.17
679396,6793.96
679481,6794.81
679569,6795.69
679659,6796.59
679749,6797.49
679840,6798.4
679931,6799.31
680021,6800.21
680111,6801.11
680201,6802.01
680292,6802.92
680383,6803.83
680475,6804.75
680575,6805.75
680675,6806.75
680772,6807.72
680868,6808.68
680964,6809.64
681058,6810.58
681154,6811.54
681245,6812.45
681339,6813.39
681435,6814.35
681531,6815.31
681624,6816.24
681718,6817.18
681817,6818.17
681909,6819.09
682001,6820.01
682093,6820.93
682178,6821.78
682265,6822.65
682345,6823.45
682426,6824.26
682504,6825.04
682586,6825.86
682662,6826.62
682735,6827.35
682803,6828.03
682871,6828.71
682947,6829.47
683021,6830.21
683098,6830.98
683176,6831.76
683255,6832.55
683336,6833.36
683420,6834.2
683506,6835.06
683593,6835.93
683682,6836.82
683771,6837.71
683861,6838.61
683949,6839.49
684040,6840.4
684131,6841.31
684221,6842.21
684307,6843.07
684394,6843.94
684483,6844.83
684575,6845.75
684666,6846.66
684757,6847.57
684844,6848.44
684929,6849.29
685015,6850.15
685104,6851.04
685192,6851.92
685279,6852.79
685366,6853.66
685453,6854.53
685538,6855.38
685623,6856.23
685709,6857.09
685799,6857.99
685888,6858.88
685975,6859.75
686063,6860.63
686154,6861.54
686250,6862.5
686343,6863.43
686436,6864.36
686526,6865.26
686614,6866.14
686701,6867.01
686789,6867.89
686878,6868.78
686964,6869.64
687052,6870.52
687141,6871.41
687230,6872.3
687324,6873.24
687418,6874.18
687511,6875.11
687605,6876.05
687706,6877.06
687807,6878.07
687905,6879.05
688005,6880.05
688103,6881.03
688197,6881.97
688281,6882.81
688366,6883.66
688459,6884.59
688552,6885.52
688635,6886.35
688716,6887.16
688797,6887.97
688875,6888.75
688952,6889.52
689031,6890.31
689109,6891.09
689189,6891.89
689274,6892.74
689364,6893.64
689455,6894.55
689546,6895.46
689638,6896.38
689731,6897.31
689826,6898.26
689921,6899.21
690017,6900.17
690112,6901.12
690208,6902.08
690307,6903.07
690403,6904.03
690501,6905.01
690603,6906.03
690704,6907.04
690806,6908.06
690902,6909.02
690997,6909.97
691093,6910.93
691187,6911.87
691283,6912.83
691378,6913.78
691472,6914.72
691568,6915.68
691666,6916.66
691766,6917.66
691866,6918.66
691961,6919.61
692054,6920.54
692143,6921.43
692226,6922.26
692310,6923.1
692392,6923.92
692471,6924.71
692549,6925.49
692627,6926.27
692695,6926.95
692763,6927.63
692848,6928.48
692934,6929.34
693015,6930.15
693100,6931.0
693186,6931.86
693274,6932.74
693365,6933.65
693459,6934.59
693554,6935.54
693649,6936.49
693742,6937.42
693836,6938.36
693931,6939.31
694028,6940.28
694122,6941.22
694215,6942.15
694311,6943.11
694408,6944.08
694504,6945.04
694601,6946.01
694705,6947.05
694812,6948.12
694914,6949.14
695013,6950.13
695112,6951.12
695211,6952.11
695325,6953.25
695439,6954.39
695548,6955.48
695656,6956.56
695760,6957.6
695853,6958.53
695943,6959.43
696029,6960.29
696114,6961.14
696198,6961.98
696278,6962.78
696357,6963.57
696434,6964.34
696510,6965.1
696586,6965.86
696665,6966.65
696745,6967.45
696829,6968.29
696916,6969.16
697007,6970.07
697101,6971.01
697193,6971.93
697286,6972.86
697378,6973.78
697470,6974.7
697562,6975.62
697658,6976.58
697757,6977.57
697856,6978.56
697954,6979.54
698053,6980.53
698151,6981.51
698246,6982.46
698346,6983.46
698446,6984.46
698543,6985.43
698643,6986.43
698741,6987.41
698840,6988.4
698939,6989.39
699038,6990.38
699142,6991.42
699241,6992.41
699339,6993.39
699439,6994.39
699540,6995.4
699637,6996.37
699728,6997.28
699816,6998.16
699904,6999.04
699986,6999.86
700071,7000.71
700150,7001.5
700229,7002.29
700307,7003.07
700384,7003.84
700460,7004.6
700537,7005.37
700616,7006.16
700697,7006.97
700780,7007.8
700864,7008.64
700953,7009.53
701045,7010.45
701138,7011.38
701232,7012.32
701325,7013.25
701413,7014.13
701505,7015.05
701599,7015.99
701693,7016.93
701788,7017.88
701884,7018.84
701980,7019.8
702077,7020.77
702173,7021.73
702269,7022.69
702368,7023.68
702463,7024.63
702556,7025.56
702651,7026.51
702749,7027.49
702850,7028.5
702946,7029.46
703044,7030.44
703150,7031.5
703254,7032.54
703362,7033.62
703477,7034.77
703583,7035.83
703684,7036.84
703781,7037.81
703868,7038.68
703958,7039.58
704050,7040.5
704126,7041.26
704206,7042.06
704284,7042.84
704364,7043.64
704439,7044.39
704512,7045.12
704592,7045.92
704668,7046.68
704739,7047.39
704818,7048.18
704907,7049.07
704990,7049.9
705074,7050.74
705167,7051.67
705262,7052.62
705365,7053.65
705457,7054.57
705550,7055.5
705643,7056.43
705737,7057.37
705832,7058.32
705929,7059.29
706024,7060.24
706124,7061.24
706230,7062.3
706334,7063.34
706433,7064.33
706532,7065.32
706632,7066.32
706738,7067.38
706840,7068.4
706936,7069.36
707031,7070.31
707130,7071.3
707228,7072.28
707325,7073.25
707407,7074.07
707500,7075.0
707582,7075.82
707666,7076.66
707747,7077.47
707818,7078.18
707891,7078.91
707968,7079.68
708040,7080.4
708120,7081.2
708189,7081.89
708266,7082.66
708344,7083.44
708425,7084.25
708508,7085.08
708596,7085.96
708688,7086.88
708782,7087.82
708878,7088.78
708974,7089.74
709069,7090.69
709165,7091.65
709263,7092.63
709361,7093.61
709458,7094.58
709555,7095.55
709656,7096.56
709759,7097.59
709861,7098.61
709970,7099.7
710081,7100.81
710179,7101.79
710279,7102.79
710385,7103.85
710486,7104.86
710589,7105.89
710694,7106.94
710796,7107.96
710881,7108.81
710974,7109.74
711055,7110.55
711137,7111.37
711223,7112.23
711301,7113.01
711381,7113.81
711462,7114.62
711536,7115.36
711611,7116.11
711691,7116.91
711781,7117.81
711863,7118.63
711955,7119.55
712047,7120.47
712141,7121.41
712234,7122.34
712327,7123.27
712418,7124.18
712509,7125.09
712600,7126.0
712690,7126.9
712779,7127.79
712869,7128.69
712957,7129.57
713046,7130.46
713135,7131.35
713226,7132.26
713321,7133.21
713417,7134.17
713519,7135.19
713623,7136.23
713730,7137.3
713822,7138.22
713923,7139.23
714024,7140.24
714131,7141.31
714236,7142.36
714336,7143.36
714440,7144.4
714545,7145.45
714648,7146.48
714753,7147.53
714863,7148.63
714956,7149.56
715039,7150.39
715122,7151.22
715210,7152.1
715299,7152.99
715379,7153.79
715454,7154.54
715537,7155.37
715614,7156.14
715697,7156.97
715822,7158.22
715948,7159.48
716032,7160.32
716126,7161.26
716220,7162.2
716316,7163.16
716413,7164.13
716508,7165.08
716602,7166.02
716698,7166.98
716792,7167.92
716888,7168.88
716986,7169.86
717084,7170.84
717183,7171.83
717279,7172.79
717377,7173.77
717479,7174.79
717581,7175.81
717682,7176.82
717791,7177.91
717893,7178.93
717989,7179.89
718087,7180.87
718192,7181.92
718297,7182.97
718396,7183.96
718496,7184.96
718601,7186.01
718705,7187.05
718812,7188.12
718924,7189.24
719009,7190.09
719100,7191.0
719191,7191.91
719271,7192.71
719358,7193.58
719434,7194.34
719511,7195.11
719587,7195.87
719663,7196.63
719741,7197.41
719819,7198.19
719898,7198.98
719978,7199.78
720060,7200.6
720143,7201.43
720228,7202.28
720313,7203.13
720400,7204.0
720491,7204.91
720584,7205.84
720677,7206.77
720770,7207.7
720862,7208.62
720957,7209.57
721052,7210.52
721151,7211.51
721250,7212.5
721347,7213.47
721450,7214.5
721545,7215.45
721641,7216.41
721734,7217.34
721840,7218.4
721932,7219.32
722029,7220.29
