sample,time_sec
34,0.34
117,1.17
198,1.98
281,2.81
364,3.64
444,4.44
525,5.25
603,6.03
679,6.79
757,7.57
833,8.33
909,9.09
982,9.82
1052,10.52
1123,11.23
1195,11.95
1266,12.66
1337,13.37
1408,14.08
1481,14.81
1555,15.55
1627,16.27
1699,16.99
1772,17.72
1845,18.45
1917,19.17
1990,19.9
2063,20.63
2136,21.36
2212,22.12
2292,22.92
2381,23.81
2466,24.66
2549,25.49
2630,26.3
2711,27.11
2790,27.9
2865,28.65
2941,29.41
3021,30.21
3104,31.04
3182,31.82
3259,32.59
3334,33.34
3406,34.06
3475,34.75
3542,35.42
3612,36.12
3683,36.83
3754,37.54
3824,38.24
3895,38.95
3970,39.7
4043,40.43
4118,41.18
4193,41.93
4266,42.66
4339,43.39
4411,44.11
4485,44.85
4559,45.59
4633,46.33
4707,47.07
4782,47.82
4855,48.55
4928,49.28
5003,50.03
5076,50.76
5146,51.46
5216,52.16
5286,52.86
5359,53.59
5435,54.35
5512,55.12
5589,55.89
5662,56.62
5733,57.33
5803,58.03
5872,58.72
5941,59.41
6011,60.11
6081,60.81
6154,61.54
6241,62.41
6323,63.23
6410,64.1
6494,64.94
6577,65.77
6661,66.61
6741,67.41
6819,68.19
6898,68.98
6978,69.78
7064,70.64
7149,71.49
7232,72.32
7315,73.15
7399,73.99
7482,74.82
7564,75.64
7643,76.43
7720,77.2
7797,77.97
7874,78.74
7952,79.52
8032,80.32
8112,81.12
8192,81.92
8271,82.71
8351,83.51
8431,84.31
8511,85.11
8590,85.9
8667,86.67
8744,87.44
8817,88.17
8894,88.94
8971,89.71
9046,90.46
9117,91.17
9191,91.91
9261,92.61
9332,93.32
9410,94.1
9488,94.88
9560,95.6
9630,96.3
9701,97.01
9773,97.73
9846,98.46
9922,99.22
9997,99.97
10072,100.72
10147,101.47
10223,102.23
10302,103.02
10382,103.82
10455,104.55
10529,105.29
10602,106.02
10675,106.75
10747,107.47
10821,108.21
10890,108.9
10966,109.66
11043,110.43
11115,111.15
11188,111.88
11257,112.57
11332,113.32
11408,114.08
11484,114.84
11561,115.61
11631,116.31
11703,117.03
11775,117.75
11851,118.51
11925,119.25
11995,119.95
12064,120.64
12133,121.33
12201,122.01
12269,122.69
12337,123.37
12406,124.06
12473,124.73
12539,125.39
12605,126.05
12670,126.7
12735,127.35
12801,128.01
12869,128.69
12940,129.4
13013,130.13
13087,130.87
13161,131.61
13233,132.33
13305,133.05
13377,133.77
13451,134.51
13526,135.26
13603,136.03
13686,136.86
13767,137.67
13844,138.44
13921,139.21
14002,140.02
14092,140.92
14178,141.78
14259,142.59
14338,143.38
14417,144.17
14496,144.96
14574,145.74
14652,146.52
14732,147.32
14816,148.16
14898,148.98
14977,149.77
15052,150.52
15125,151.25
15196,151.96
15267,152.67
15337,153.37
15408,154.08
15479,154.79
15550,155.5
15620,156.2
15690,156.9
15760,157.6
15830,158.3
15900,159.0
15968,159.68
16040,160.4
16110,161.1
16178,161.78
16246,162.46
16315,163.15
16382,163.82
16448,164.48
16514,165.14
16582,165.82
16650,166.5
16718,167.18
16785,167.85
16851,168.51
16916,169.16
16983,169.83
17050,170.5
17117,171.17
17185,171.85
17252,172.52
17319,173.19
17387,173.87
17455,174.55
17522,175.22
17590,175.9
17658,176.58
17724,177.24
17791,177.91
17859,178.59
17928,179.28
17997,179.97
18066,180.66
18136,181.36
18205,182.05
18274,182.74
18343,183.43
18413,184.13
18481,184.81
18550,185.5
18621,186.21
18692,186.92
18763,187.63
18835,188.35
18907,189.07
18979,189.79
19050,190.5
19120,191.2
19190,191.9
19258,192.58
19324,193.24
19389,193.89
19453,194.53
19516,195.16
19579,195.79
19644,196.44
19711,197.11
19781,197.81
19854,198.54
19930,199.3
20005,200.05
20079,200.79
20151,201.51
20223,202.23
20295,202.95
20367,203.67
20440,204.4
20513,205.13
20586,205.86
20661,206.61
20733,207.33
20806,208.06
20878,208.78
20951,209.51
21023,210.23
21095,210.95
21166,211.66
21239,212.39
21317,213.17
21395,213.95
21468,214.68
21539,215.39
21608,216.08
21676,216.76
21744,217.44
21811,218.11
21876,218.76
21941,219.41
22004,220.04
22067,220.67
22130,221.3
22193,221.93
22255,222.55
22318,223.18
22380,223.8
22444,224.44
22507,225.07
22572,225.72
22637,226.37
22703,227.03
22768,227.68
22833,228.33
22898,228.98
22964,229.64
23029,230.29
23096,230.96
23163,231.63
23230,232.3
23297,232.97
23363,233.63
23430,234.3
23497,234.97
23566,235.66
23633,236.33
23699,236.99
23766,237.66
23831,238.31
23897,238.97
23963,239.63
24030,240.3
24097,240.97
24163,241.63
24228,242.28
24293,242.93
24358,243.58
24425,244.25
24493,244.93
24564,245.64
24636,246.36
24707,247.07
24779,247.79
24853,248.53
24929,249.29
25003,250.03
25079,250.79
25163,251.63
25248,252.48
25327,253.27
25404,254.04
25481,254.81
25558,255.58
25634,256.34
25709,257.09
25783,257.83
25856,258.56
25929,259.29
26003,260.03
26075,260.75
26148,261.48
26219,262.19
26291,262.91
26363,263.63
26434,264.34
26506,265.06
26579,265.79
26652,266.52
26725,267.25
26799,267.99
26875,268.75
26950,269.5
27023,270.23
27096,270.96
27168,271.68
27241,272.41
27315,273.15
27387,273.87
27461,274.61
27536,275.36
27611,276.11
27688,276.88
27766,277.66
27846,278.46
27925,279.25
28004,280.04
28084,280.84
28162,281.62
28239,282.39
28316,283.16
28393,283.93
28472,284.72
28550,285.5
28626,286.26
28701,287.01
28775,287.75
28847,288.47
28920,289.2
28993,289.93
29066,290.66
29138,291.38
29209,292.09
29280,292.8
29353,293.53
29426,294.26
29499,294.99
29572,295.72
29645,296.45
29718,297.18
29792,297.92
29866,298.66
29942,299.42
30015,300.15
30087,300.87
30160,301.6
30239,302.39
30322,303.22
30401,304.01
30476,304.76
30548,305.48
30618,306.18
30686,306.86
30752,307.52
30818,308.18
30885,308.85
30954,309.54
31024,310.24
31095,310.95
31168,311.68
31242,312.42
31321,313.21
31400,314.0
31476,314.76
31550,315.5
31622,316.22
31692,316.92
31763,317.63
31833,318.33
31903,319.03
31975,319.75
32047,320.47
32120,321.2
32191,321.91
32265,322.65
32340,323.4
32413,324.13
32485,324.85
32557,325.57
32629,326.29
32699,326.99
32769,327.69
32838,328.38
32907,329.07
32975,329.75
33043,330.43
33111,331.11
33179,331.79
33248,332.48
33316,333.16
33386,333.86
33456,334.56
33526,335.26
33596,335.96
33666,336.66
33736,337.36
33807,338.07
33878,338.78
33948,339.48
34018,340.18
34088,340.88
34158,341.58
34227,342.27
34298,342.98
34371,343.71
34443,344.43
34514,345.14
34586,345.86
34659,346.59
34732,347.32
34804,348.04
34878,348.78
34951,349.51
35024,350.24
35096,350.96
35169,351.69
35246,352.46
35322,353.22
35396,353.96
35470,354.7
35545,355.45
35619,356.19
35692,356.92
35765,357.65
35838,358.38
35912,359.12
35986,359.86
36060,360.6
36136,361.36
36213,362.13
36286,362.86
36358,363.58
36431,364.31
36503,365.03
36574,365.74
36645,366.45
36716,367.16
36786,367.86
36854,368.54
36922,369.22
36991,369.91
37060,370.6
37130,371.3
37200,372.0
37271,372.71
37340,373.4
37409,374.09
37479,374.79
37550,375.5
37620,376.2
37691,376.91
37762,377.62
37833,378.33
37905,379.05
37975,379.75
38045,380.45
38116,381.16
38188,381.88
38258,382.58
38328,383.28
38399,383.99
38469,384.69
38537,385.37
38604,386.04
38671,386.71
38740,387.4
38809,388.09
38878,388.78
38947,389.47
39017,390.17
39086,390.86
39157,391.57
39229,392.29
39303,393.03
39379,393.79
39451,394.51
39521,395.21
39590,395.9
39659,396.59
39727,397.27
39793,397.93
39861,398.61
39928,399.28
39996,399.96
40065,400.65
40138,401.38
40214,402.14
40296,402.96
40374,403.74
40447,404.47
40518,405.18
40588,405.88
40657,406.57
40726,407.26
40794,407.94
40862,408.62
40929,409.29
40998,409.98
41066,410.66
41133,411.33
41202,412.02
41271,412.71
41340,413.4
41410,414.1
41481,414.81
41552,415.52
41623,416.23
41695,416.95
41768,417.68
41840,418.4
41911,419.11
41982,419.82
42052,420.52
42120,421.2
42187,421.87
42255,422.55
42323,423.23
42391,423.91
42460,424.6
42529,425.29
42600,426.0
42670,426.7
42740,427.4
42809,428.09
42878,428.78
42946,429.46
43012,430.12
43078,430.78
43146,431.46
43214,432.14
43284,432.84
43354,433.54
43427,434.27
43501,435.01
43573,435.73
43646,436.46
43720,437.2
43793,437.93
43865,438.65
43938,439.38
44012,440.12
44086,440.86
44159,441.59
44230,442.3
44301,443.01
44373,443.73
44444,444.44
44514,445.14
44585,445.85
44656,446.56
44727,447.27
44797,447.97
44868,448.68
44940,449.4
45011,450.11
45081,450.81
45152,451.52
45222,452.22
45291,452.91
45359,453.59
45426,454.26
45491,454.91
45556,455.56
45619,456.19
45682,456.82
45746,457.46
45810,458.1
45874,458.74
45940,459.4
46008,460.08
46076,460.76
46145,461.45
46216,462.16
46297,462.97
46378,463.78
46457,464.57
46537,465.37
46617,466.17
46695,466.95
46774,467.74
46852,468.52
46930,469.3
47009,470.09
47086,470.86
47163,471.63
47242,472.42
47319,473.19
47393,473.93
47466,474.66
47540,475.4
47614,476.14
47686,476.86
47757,477.57
47828,478.28
47898,478.98
47968,479.68
48037,480.37
48106,481.06
48177,481.77
48248,482.48
48319,483.19
48390,483.9
48461,484.61
48533,485.33
48605,486.05
48677,486.77
48750,487.5
48825,488.25
48898,488.98
48971,489.71
49043,490.43
49114,491.14
49184,491.84
49254,492.54
49325,493.25
49395,493.95
49464,494.64
49533,495.33
49602,496.02
49671,496.71
49740,497.4
49810,498.1
49881,498.81
49953,499.53
50025,500.25
50096,500.96
50167,501.67
50237,502.37
50307,503.07
50377,503.77
50448,504.48
50520,505.2
50592,505.92
50662,506.62
50732,507.32
50803,508.03
50873,508.73
50939,509.39
51005,510.05
51069,510.69
51135,511.35
51200,512.0
51265,512.65
51329,513.29
51393,513.93
51458,514.58
51524,515.24
51590,515.9
51657,516.57
51724,517.24
51792,517.92
51861,518.61
51930,519.3
51999,519.99
52070,520.7
52141,521.41
52213,522.13
52285,522.85
52358,523.58
52434,524.34
52513,525.13
52594,525.94
52673,526.73
52748,527.48
52819,528.19
52889,528.89
52957,529.57
53027,530.27
53099,530.99
53174,531.74
53248,532.48
53324,533.24
53397,533.97
53468,534.68
53538,535.38
53610,536.1
53682,536.82
53753,537.53
53823,538.23
53895,538.95
53968,539.68
54041,540.41
54113,541.13
54186,541.86
54260,542.6
54333,543.33
54408,544.08
54483,544.83
54558,545.58
54631,546.31
54704,547.04
54777,547.77
54850,548.5
54921,549.21
54992,549.92
55068,550.68
55145,551.45
55219,552.19
55292,552.92
55366,553.66
55439,554.39
55510,555.1
55579,555.79
55650,556.5
55721,557.21
55791,557.91
55862,558.62
55933,559.33
56006,560.06
56079,560.79
56160,561.6
56247,562.47
56335,563.35
56412,564.12
56488,564.88
56563,565.63
56636,566.36
56709,567.09
56778,567.78
56846,568.46
56915,569.15
56987,569.87
57064,570.64
57142,571.42
57225,572.25
57308,573.08
57389,573.89
57470,574.7
57550,575.5
57627,576.27
57701,577.01
57775,577.75
57850,578.5
57924,579.24
57994,579.94
58064,580.64
58137,581.37
58215,582.15
58297,582.97
58373,583.73
58447,584.47
58519,585.19
58593,585.93
58666,586.66
58737,587.37
58807,588.07
58877,588.77
58944,589.44
59012,590.12
59081,590.81
59150,591.5
59222,592.22
59295,592.95
59364,593.64
59429,594.29
59501,595.01
59574,595.74
59644,596.44
59715,597.15
59786,597.86
59856,598.56
59926,599.26
59995,599.95
60066,600.66
60136,601.36
60205,602.05
60274,602.74
60344,603.44
60414,604.14
60485,604.85
60556,605.56
60628,606.28
60700,607.0
60771,607.71
60841,608.41
60909,609.09
60978,609.78
61046,610.46
61116,611.16
61184,611.84
61252,612.52
61319,613.19
61387,613.87
61455,614.55
61522,615.22
61590,615.9
61658,616.58
61727,617.27
61797,617.97
61866,618.66
61936,619.36
62008,620.08
62081,620.81
62154,621.54
62229,622.29
62300,623.0
62371,623.71
62440,624.4
62510,625.1
62578,625.78
62645,626.45
62712,627.12
62781,627.81
62852,628.52
62924,629.24
63000,630.0
63078,630.78
63163,631.63
63249,632.49
63325,633.25
63399,633.99
63470,634.7
63541,635.41
63614,636.14
63691,636.91
63776,637.76
63859,638.59
63942,639.42
64024,640.24
64106,641.06
64186,641.86
64264,642.64
64344,643.44
64426,644.26
64504,645.04
64580,645.8
64653,646.53
64726,647.26
64798,647.98
64869,648.69
64938,649.38
65008,650.08
65080,650.8
65151,651.51
65222,652.22
65292,652.92
65363,653.63
65433,654.33
65505,655.05
65576,655.76
65648,656.48
65720,657.2
65801,658.01
65879,658.79
65961,659.61
66038,660.38
66115,661.15
66192,661.92
66267,662.67
66345,663.45
66424,664.24
66499,664.99
66569,665.69
66638,666.38
66706,667.06
66777,667.77
66849,668.49
66923,669.23
66996,669.96
67067,670.67
67139,671.39
67212,672.12
67284,672.84
67354,673.54
67425,674.25
67495,674.95
67565,675.65
67636,676.36
67708,677.08
67780,677.8
67850,678.5
67920,679.2
67990,679.9
68059,680.59
68129,681.29
68202,682.02
68277,682.77
68353,683.53
68430,684.3
68505,685.05
68578,685.78
68651,686.51
68722,687.22
68790,687.9
68860,688.6
68932,689.32
69007,690.07
69084,690.84
69160,691.6
69233,692.33
69305,693.05
69375,693.75
69444,694.44
69512,695.12
69580,695.8
69649,696.49
69719,697.19
69786,697.86
69854,698.54
69922,699.22
69990,699.9
70057,700.57
70122,701.22
70187,701.87
70251,702.51
70315,703.15
70380,703.8
70444,704.44
70511,705.11
70578,705.78
70645,706.45
70712,707.12
70780,707.8
70849,708.49
70919,709.19
70989,709.89
71060,710.6
71132,711.32
71203,712.03
71275,712.75
71348,713.48
71420,714.2
71491,714.91
71563,715.63
71636,716.36
71708,717.08
71780,717.8
71863,718.63
71946,719.46
72027,720.27
72104,721.04
72179,721.79
72252,722.52
72321,723.21
72390,723.9
72468,724.68
72534,725.34
72601,726.01
72670,726.7
72740,727.4
72810,728.1
72882,728.82
72971,729.71
73056,730.56
73145,731.45
73229,732.29
73307,733.07
73385,733.85
73462,734.62
73541,735.41
73621,736.21
73702,737.02
73784,737.84
73864,738.64
73941,739.41
74016,740.16
74092,740.92
74170,741.7
74250,742.5
74332,743.32
74410,744.1
74484,744.84
74555,745.55
74622,746.22
74688,746.88
74754,747.54
74820,748.2
74886,748.86
74952,749.52
75017,750.17
75082,750.82
75148,751.48
75213,752.13
75277,752.77
75341,753.41
75404,754.04
75465,754.65
75528,755.28
75590,755.9
75650,756.5
75711,757.11
75771,757.71
75831,758.31
75891,758.91
75951,759.51
76010,760.1
76071,760.71
76133,761.33
76194,761.94
76257,762.57
76322,763.22
76387,763.87
76454,764.54
76523,765.23
76593,765.93
76666,766.66
76738,767.38
76812,768.12
76885,768.85
76962,769.62
77039,770.39
77114,771.14
77188,771.88
77261,772.61
77333,773.33
77403,774.03
77471,774.71
77538,775.38
77604,776.04
77669,776.69
77734,777.34
77799,777.99
77863,778.63
77928,779.28
77991,779.91
78055,780.55
78117,781.17
78180,781.8
78242,782.42
78303,783.03
78365,783.65
78427,784.27
78491,784.91
78557,785.57
78622,786.22
78688,786.88
78753,787.53
78817,788.17
78879,788.79
78941,789.41
79003,790.03
79063,790.63
79124,791.24
79186,791.86
79247,792.47
79308,793.08
79369,793.69
79429,794.29
79490,794.9
79552,795.52
79616,796.16
79681,796.81
79751,797.51
79823,798.23
79897,798.97
79971,799.71
80043,800.43
80117,801.17
80189,801.89
80260,802.6
80328,803.28
80396,803.96
80463,804.63
80532,805.32
80601,806.01
80671,806.71
80743,807.43
80814,808.14
80887,808.87
80969,809.69
81052,810.52
81130,811.3
81207,812.07
81283,812.83
81357,813.57
81431,814.31
81506,815.06
81580,815.8
81653,816.53
81726,817.26
81797,817.97
81868,818.68
81938,819.38
82007,820.07
82076,820.76
82145,821.45
82214,822.14
82283,822.83
82352,823.52
82419,824.19
82487,824.87
82557,825.57
82629,826.29
82700,827.0
82772,827.72
82846,828.46
82922,829.22
82997,829.97
83070,830.7
83143,831.43
83215,832.15
83287,832.87
83358,833.58
83428,834.28
83499,834.99
83569,835.69
83638,836.38
83708,837.08
83779,837.79
83850,838.5
83920,839.2
83989,839.89
84058,840.58
84125,841.25
84191,841.91
84258,842.58
84326,843.26
84394,843.94
84463,844.63
84532,845.32
84600,846.0
84667,846.67
84735,847.35
84802,848.02
84871,848.71
84937,849.37
85003,850.03
85070,850.7
85140,851.4
85210,852.1
85282,852.82
85355,853.55
85428,854.28
85501,855.01
85574,855.74
85648,856.48
85726,857.26
85803,858.03
85881,858.81
85958,859.58
86033,860.33
86104,861.04
86173,861.73
86240,862.4
86307,863.07
86374,863.74
86441,864.41
86509,865.09
86577,865.77
86644,866.44
86712,867.12
86782,867.82
86851,868.51
86920,869.2
86989,869.89
87059,870.59
87132,871.32
87204,872.04
87275,872.75
87344,873.44
87413,874.13
87481,874.81
87548,875.48
87616,876.16
87683,876.83
87749,877.49
87813,878.13
87876,878.76
87939,879.39
88002,880.02
88063,880.63
88125,881.25
88187,881.87
88252,882.52
88321,883.21
88399,883.99
88476,884.76
88555,885.55
88636,886.36
88712,887.12
88786,887.86
88859,888.59
88931,889.31
89000,890.0
89067,890.67
89133,891.33
89199,891.99
89263,892.63
89328,893.28
89395,893.95
89463,894.63
89533,895.33
89606,896.06
89689,896.89
89772,897.72
89851,898.51
89928,899.28
90003,900.03
90078,900.78
90155,901.55
90230,902.3
90305,903.05
90381,903.81
90457,904.57
90533,905.33
90608,906.08
90683,906.83
90759,907.59
90837,908.37
90913,909.13
90989,909.89
91063,910.63
91136,911.36
91213,912.13
91290,912.9
91365,913.65
91439,914.39
91510,915.1
91584,915.84
91660,916.6
91734,917.34
91806,918.06
91878,918.78
91948,919.48
92017,920.17
92086,920.86
92157,921.57
92229,922.29
92301,923.01
92374,923.74
92447,924.47
92521,925.21
92592,925.92
92664,926.64
92736,927.36
92808,928.08
92878,928.78
92948,929.48
93019,930.19
93091,930.91
93162,931.62
93233,932.33
93304,933.04
93375,933.75
93446,934.46
93516,935.16
93587,935.87
93660,936.6
93733,937.33
93805,938.05
93876,938.76
93948,939.48
94017,940.17
94087,940.87
94157,941.57
94226,942.26
94295,942.95
94363,943.63
94430,944.3
94496,944.96
94562,945.62
94627,946.27
94693,946.93
94758,947.58
94822,948.22
94887,948.87
94952,949.52
95017,950.17
95082,950.82
95148,951.48
95215,952.15
95282,952.82
95349,953.49
95417,954.17
95484,954.84
95552,955.52
95619,956.19
95687,956.87
95754,957.54
95819,958.19
95884,958.84
95948,959.48
96011,960.11
96073,960.73
96134,961.34
96195,961.95
96257,962.57
96319,963.19
96383,963.83
96448,964.48
96516,965.16
96588,965.88
96663,966.63
96738,967.38
96814,968.14
96892,968.92
96970,969.7
97046,970.46
97130,971.3
97209,972.09
97294,972.94
97369,973.69
97445,974.45
97521,975.21
97597,975.97
97673,976.73
97750,977.5
97829,978.29
97906,979.06
97982,979.82
98060,980.6
98138,981.38
98213,982.13
98289,982.89
98366,983.66
98442,984.42
98517,985.17
98590,985.9
98663,986.63
98733,987.33
98800,988.0
98867,988.67
98933,989.33
99000,990.0
99068,990.68
99135,991.35
99201,992.01
99268,992.68
99335,993.35
99404,994.04
99472,994.72
99541,995.41
99610,996.1
99680,996.8
99750,997.5
99820,998.2
99889,998.89
99956,999.56
100023,1000.23
100090,1000.9
100157,1001.57
100224,1002.24
100293,1002.93
100359,1003.59
100423,1004.23
100487,1004.87
100551,1005.51
100615,1006.15
100681,1006.81
100748,1007.48
100814,1008.14
100881,1008.81
100948,1009.48
101016,1010.16
101085,1010.85
101153,1011.53
101220,1012.2
101288,1012.88
101357,1013.57
101425,1014.25
101494,1014.94
101564,1015.64
101632,1016.32
101700,1017.0
101769,1017.69
101840,1018.4
101909,1019.09
101978,1019.78
102045,1020.45
102113,1021.13
102181,1021.81
102249,1022.49
102318,1023.18
102387,1023.87
102456,1024.56
102524,1025.24
102591,1025.91
102658,1026.58
102726,1027.26
102795,1027.95
102863,1028.63
102932,1029.32
103000,1030.0
103067,1030.67
103134,1031.34
103201,1032.01
103267,1032.67
103333,1033.33
103398,1033.98
103462,1034.62
103527,1035.27
103591,1035.91
103653,1036.53
103716,1037.16
103779,1037.79
103842,1038.42
103906,1039.06
103970,1039.7
104035,1040.35
104101,1041.01
104167,1041.67
104233,1042.33
104301,1043.01
104368,1043.68
104436,1044.36
104504,1045.04
104574,1045.74
104643,1046.43
104711,1047.11
104778,1047.78
104846,1048.46
104914,1049.14
104981,1049.81
105048,1050.48
105113,1051.13
105177,1051.77
105240,1052.4
105304,1053.04
105368,1053.68
105432,1054.32
105497,1054.97
105563,1055.63
105629,1056.29
105697,1056.97
105764,1057.64
105832,1058.32
105901,1059.01
105970,1059.7
106040,1060.4
106109,1061.09
106178,1061.78
106246,1062.46
106313,1063.13
106380,1063.8
106447,1064.47
106514,1065.14
106583,1065.83
106652,1066.52
106722,1067.22
106791,1067.91
106862,1068.62
106932,1069.32
107001,1070.01
107071,1070.71
107141,1071.41
107206,1072.06
107283,1072.83
107352,1073.52
107433,1074.33
107508,1075.08
107581,1075.81
107650,1076.5
107717,1077.17
107784,1077.84
107852,1078.52
107919,1079.19
107986,1079.86
108053,1080.53
108122,1081.22
108192,1081.92
108261,1082.61
108331,1083.31
108400,1084.0
108469,1084.69
108538,1085.38
108607,1086.07
108677,1086.77
108747,1087.47
108816,1088.16
108884,1088.84
108953,1089.53
109021,1090.21
109091,1090.91
109158,1091.58
109225,1092.25
109292,1092.92
109359,1093.59
109425,1094.25
109491,1094.91
109558,1095.58
109626,1096.26
109693,1096.93
109761,1097.61
109830,1098.3
109900,1099.0
109969,1099.69
110037,1100.37
110106,1101.06
110177,1101.77
110246,1102.46
110313,1103.13
110380,1103.8
110447,1104.47
110512,1105.12
110577,1105.77
110642,1106.42
110707,1107.07
110773,1107.73
110837,1108.37
110902,1109.02
110967,1109.67
111032,1110.32
111097,1110.97
111161,1111.61
111226,1112.26
111290,1112.9
111355,1113.55
111419,1114.19
111483,1114.83
111547,1115.47
111612,1116.12
111677,1116.77
111741,1117.41
111805,1118.05
111869,1118.69
111933,1119.33
111997,1119.97
112062,1120.62
112127,1121.27
112193,1121.93
112258,1122.58
112321,1123.21
112384,1123.84
112446,1124.46
112508,1125.08
112569,1125.69
112630,1126.3
112691,1126.91
112751,1127.51
112811,1128.11
112871,1128.71
112931,1129.31
112993,1129.93
113058,1130.58
113126,1131.26
113201,1132.01
113275,1132.75
113350,1133.5
113427,1134.27
113505,1135.05
113583,1135.83
113660,1136.6
113740,1137.4
113820,1138.2
113902,1139.02
113985,1139.85
114065,1140.65
114147,1141.47
114232,1142.32
114317,1143.17
114402,1144.02
114485,1144.85
114573,1145.73
114659,1146.59
114741,1147.41
114822,1148.22
114903,1149.03
114983,1149.83
115060,1150.6
115137,1151.37
115213,1152.13
115289,1152.89
115363,1153.63
115438,1154.38
115512,1155.12
115587,1155.87
115661,1156.61
115736,1157.36
115810,1158.1
115884,1158.84
115957,1159.57
116027,1160.27
116097,1160.97
116171,1161.71
116245,1162.45
116320,1163.2
116397,1163.97
116478,1164.78
116557,1165.57
116632,1166.32
116706,1167.06
116779,1167.79
116852,1168.52
116924,1169.24
116995,1169.95
117066,1170.66
117136,1171.36
117206,1172.06
117274,1172.74
117343,1173.43
117413,1174.13
117484,1174.84
117555,1175.55
117626,1176.26
117698,1176.98
117769,1177.69
117841,1178.41
117913,1179.13
117987,1179.87
118059,1180.59
118129,1181.29
118199,1181.99
118269,1182.69
118338,1183.38
118407,1184.07
118475,1184.75
118544,1185.44
118614,1186.14
118681,1186.81
118748,1187.48
118813,1188.13
118879,1188.79
118944,1189.44
119009,1190.09
119074,1190.74
119140,1191.4
119206,1192.06
119273,1192.73
119339,1193.39
119405,1194.05
119472,1194.72
119538,1195.38
119604,1196.04
119669,1196.69
119732,1197.32
119795,1197.95
119857,1198.57
119918,1199.18
119979,1199.79
120039,1200.39
120100,1201.0
120163,1201.63
120226,1202.26
120290,1202.9
120356,1203.56
120424,1204.24
120494,1204.94
120566,1205.66
120639,1206.39
120711,1207.11
120783,1207.83
120854,1208.54
120925,1209.25
120995,1209.95
121066,1210.66
121136,1211.36
121204,1212.04
121272,1212.72
121340,1213.4
121408,1214.08
121476,1214.76
121544,1215.44
121614,1216.14
121683,1216.83
121750,1217.5
121817,1218.17
121885,1218.85
121953,1219.53
122021,1220.21
122088,1220.88
122155,1221.55
122221,1222.21
122287,1222.87
122353,1223.53
122421,1224.21
122488,1224.88
122556,1225.56
122623,1226.23
122690,1226.9
122756,1227.56
122822,1228.22
122888,1228.88
122954,1229.54
123021,1230.21
123087,1230.87
123153,1231.53
123220,1232.2
123288,1232.88
123357,1233.57
123424,1234.24
123493,1234.93
123562,1235.62
123632,1236.32
123700,1237.0
123767,1237.67
123834,1238.34
123901,1239.01
123969,1239.69
124037,1240.37
124104,1241.04
124170,1241.7
124235,1242.35
124302,1243.02
124369,1243.69
124435,1244.35
124499,1244.99
124564,1245.64
124628,1246.28
124692,1246.92
124756,1247.56
124820,1248.2
124885,1248.85
124951,1249.51
125018,1250.18
125085,1250.85
125153,1251.53
125222,1252.22
125291,1252.91
125362,1253.62
125431,1254.31
125501,1255.01
125571,1255.71
125640,1256.4
125708,1257.08
125776,1257.76
125845,1258.45
125916,1259.16
125985,1259.85
126054,1260.54
126123,1261.23
126190,1261.9
126256,1262.56
126322,1263.22
126389,1263.89
126455,1264.55
126521,1265.21
126586,1265.86
126653,1266.53
126721,1267.21
126791,1267.91
126859,1268.59
126925,1269.25
126991,1269.91
127057,1270.57
127122,1271.22
127187,1271.87
127252,1272.52
127317,1273.17
127382,1273.82
127449,1274.49
127517,1275.17
127586,1275.86
127656,1276.56
127725,1277.25
127795,1277.95
127864,1278.64
127932,1279.32
128000,1280.0
128067,1280.67
128134,1281.34
128202,1282.02
128271,1282.71
128342,1283.42
128412,1284.12
128481,1284.81
128550,1285.5
128618,1286.18
128685,1286.85
128751,1287.51
128816,1288.16
128884,1288.84
128952,1289.52
129023,1290.23
129095,1290.95
129171,1291.71
129246,1292.46
129320,1293.2
129393,1293.93
129467,1294.67
129539,1295.39
129611,1296.11
129682,1296.82
129751,1297.51
129818,1298.18
129885,1298.85
129952,1299.52
130019,1300.19
130085,1300.85
130153,1301.53
130221,1302.21
130289,1302.89
130357,1303.57
130427,1304.27
130501,1305.01
130573,1305.73
130644,1306.44
130716,1307.16
130788,1307.88
130859,1308.59
130929,1309.29
131000,1310.0
131071,1310.71
131143,1311.43
131212,1312.12
131281,1312.81
131350,1313.5
131420,1314.2
131489,1314.89
131558,1315.58
131628,1316.28
131698,1316.98
131770,1317.7
131842,1318.42
131919,1319.19
132000,1320.0
132078,1320.78
132153,1321.53
132227,1322.27
132301,1323.01
132375,1323.75
132448,1324.48
132521,1325.21
132593,1325.93
132665,1326.65
132737,1327.37
132809,1328.09
132881,1328.81
132952,1329.52
133023,1330.23
133092,1330.92
133162,1331.62
133233,1332.33
133303,1333.03
133373,1333.73
133444,1334.44
133515,1335.15
133586,1335.86
133655,1336.55
133726,1337.26
133796,1337.96
133866,1338.66
133935,1339.35
134006,1340.06
134077,1340.77
134146,1341.46
134215,1342.15
134284,1342.84
134354,1343.54
134424,1344.24
134490,1344.9
134557,1345.57
134624,1346.24
134691,1346.91
134759,1347.59
134827,1348.27
134897,1348.97
134969,1349.69
135040,1350.4
135111,1351.11
135181,1351.81
135253,1352.53
135326,1353.26
135398,1353.98
135470,1354.7
135541,1355.41
135614,1356.14
135688,1356.88
135761,1357.61
135834,1358.34
135906,1359.06
135975,1359.75
136043,1360.43
136109,1361.09
136176,1361.76
136245,1362.45
136313,1363.13
136381,1363.81
136451,1364.51
136521,1365.21
136592,1365.92
136663,1366.63
136729,1367.29
136796,1367.96
136868,1368.68
136941,1369.41
137010,1370.1
137079,1370.79
137147,1371.47
137215,1372.15
137283,1372.83
137352,1373.52
137420,1374.2
137490,1374.9
137560,1375.6
137629,1376.29
137700,1377.0
137772,1377.72
137845,1378.45
137919,1379.19
137991,1379.91
138061,1380.61
138132,1381.32
138203,1382.03
138273,1382.73
138342,1383.42
138411,1384.11
138480,1384.8
138548,1385.48
138616,1386.16
138685,1386.85
138753,1387.53
138822,1388.22
138889,1388.89
138956,1389.56
139024,1390.24
139094,1390.94
139163,1391.63
139231,1392.31
139301,1393.01
139370,1393.7
139438,1394.38
139504,1395.04
139570,1395.7
139634,1396.34
139697,1396.97
139760,1397.6
139823,1398.23
139885,1398.85
139947,1399.47
140009,1400.09
140071,1400.71
140132,1401.32
140194,1401.94
140256,1402.56
140318,1403.18
140381,1403.81
140443,1404.43
140506,1405.06
140570,1405.7
140635,1406.35
140701,1407.01
140766,1407.66
140831,1408.31
140898,1408.98
140963,1409.63
141029,1410.29
141094,1410.94
141160,1411.6
141224,1412.24
141288,1412.88
141351,1413.51
141414,1414.14
141479,1414.79
141542,1415.42
141606,1416.06
141670,1416.7
141735,1417.35
141799,1417.99
141863,1418.63
141926,1419.26
141989,1419.89
142051,1420.51
142112,1421.12
142173,1421.73
142233,1422.33
142292,1422.92
142351,1423.51
142409,1424.09
142468,1424.68
142525,1425.25
142583,1425.83
142641,1426.41
142699,1426.99
142757,1427.57
142816,1428.16
142874,1428.74
142934,1429.34
142994,1429.94
143056,1430.56
143117,1431.17
143177,1431.77
143237,1432.37
143298,1432.98
143358,1433.58
143418,1434.18
143478,1434.78
143538,1435.38
143599,1435.99
143661,1436.61
143722,1437.22
143783,1437.83
143845,1438.45
143908,1439.08
143972,1439.72
144036,1440.36
144099,1440.99
144164,1441.64
144231,1442.31
144297,1442.97
144363,1443.63
144429,1444.29
144496,1444.96
144561,1445.61
144624,1446.24
144686,1446.86
144750,1447.5
144813,1448.13
144876,1448.76
144940,1449.4
145004,1450.04
145067,1450.67
145129,1451.29
145191,1451.91
145252,1452.52
145312,1453.12
145372,1453.72
145434,1454.34
145498,1454.98
145564,1455.64
145631,1456.31
145701,1457.01
145771,1457.71
145842,1458.42
145913,1459.13
145986,1459.86
146058,1460.58
146132,1461.32
146205,1462.05
146275,1462.75
146346,1463.46
146419,1464.19
146492,1464.92
146566,1465.66
146638,1466.38
146709,1467.09
146780,1467.8
146851,1468.51
146922,1469.22
146992,1469.92
147065,1470.65
147138,1471.38
147212,1472.12
147285,1472.85
147356,1473.56
147431,1474.31
147507,1475.07
147584,1475.84
147661,1476.61
147736,1477.36
147814,1478.14
147892,1478.92
147970,1479.7
148052,1480.52
148133,1481.33
148214,1482.14
148293,1482.93
148374,1483.74
148455,1484.55
148536,1485.36
148616,1486.16
148695,1486.95
148773,1487.73
148849,1488.49
148925,1489.25
148998,1489.98
149071,1490.71
149144,1491.44
149217,1492.17
149291,1492.91
149364,1493.64
149436,1494.36
149512,1495.12
149588,1495.88
149663,1496.63
149739,1497.39
149814,1498.14
149889,1498.89
149963,1499.63
150038,1500.38
150113,1501.13
150189,1501.89
150265,1502.65
150341,1503.41
150417,1504.17
150492,1504.92
150567,1505.67
150643,1506.43
150721,1507.21
150800,1508.0
150877,1508.77
150954,1509.54
151031,1510.31
151108,1511.08
151184,1511.84
151258,1512.58
151334,1513.34
151410,1514.1
151472,1514.72
151560,1515.6
151633,1516.33
151696,1516.96
151779,1517.79
151851,1518.51
151929,1519.29
152006,1520.06
152078,1520.78
152150,1521.5
152238,1522.38
152315,1523.15
152390,1523.9
152466,1524.66
152543,1525.43
152620,1526.2
152698,1526.98
152774,1527.74
152852,1528.52
152927,1529.27
153003,1530.03
153077,1530.77
153163,1531.63
153236,1532.36
153320,1533.2
153394,1533.94
153467,1534.67
153541,1535.41
153614,1536.14
153690,1536.9
153759,1537.59
153829,1538.29
153919,1539.19
153989,1539.89
154071,1540.71
154146,1541.46
154222,1542.22
154298,1542.98
154377,1543.77
154457,1544.57
154537,1545.37
154611,1546.11
154702,1547.02
154782,1547.82
154862,1548.62
154939,1549.39
155015,1550.15
155092,1550.92
155168,1551.68
155244,1552.44
155321,1553.21
155397,1553.97
155474,1554.74
155550,1555.5
155626,1556.26
155701,1557.01
155772,1557.72
155840,1558.4
155908,1559.08
155977,1559.77
156046,1560.46
156114,1561.14
156182,1561.82
156252,1562.52
156323,1563.23
156395,1563.95
156468,1564.68
156548,1565.48
156628,1566.28
156703,1567.03
156776,1567.76
156849,1568.49
156923,1569.23
156996,1569.96
157068,1570.68
157140,1571.4
157214,1572.14
157287,1572.87
157360,1573.6
157434,1574.34
157509,1575.09
157582,1575.82
157657,1576.57
157745,1577.45
157833,1578.33
157913,1579.13
157990,1579.9
158067,1580.67
158143,1581.43
158218,1582.18
158292,1582.92
158369,1583.69
158445,1584.45
158520,1585.2
158596,1585.96
158672,1586.72
158747,1587.47
158820,1588.2
158893,1588.93
158965,1589.65
159036,1590.36
159103,1591.03
159169,1591.69
159235,1592.35
159302,1593.02
159369,1593.69
159436,1594.36
159505,1595.05
159575,1595.75
159645,1596.45
159713,1597.13
159780,1597.8
159846,1598.46
159913,1599.13
159980,1599.8
160047,1600.47
160115,1601.15
160182,1601.82
160248,1602.48
160315,1603.15
160381,1603.81
160448,1604.48
160516,1605.16
160585,1605.85
160655,1606.55
160724,1607.24
160794,1607.94
160866,1608.66
160938,1609.38
161008,1610.08
161075,1610.75
161141,1611.41
161206,1612.06
161270,1612.7
161332,1613.32
161393,1613.93
161455,1614.55
161518,1615.18
161583,1615.83
161652,1616.52
161728,1617.28
161803,1618.03
161882,1618.82
161959,1619.59
162036,1620.36
162113,1621.13
162190,1621.9
162266,1622.66
162343,1623.43
162419,1624.19
162497,1624.97
162574,1625.74
162652,1626.52
162729,1627.29
162807,1628.07
162886,1628.86
162966,1629.66
163047,1630.47
163128,1631.28
163209,1632.09
163289,1632.89
163367,1633.67
163447,1634.47
163526,1635.26
163605,1636.05
163682,1636.82
163758,1637.58
163832,1638.32
163905,1639.05
163975,1639.75
164044,1640.44
164113,1641.13
164184,1641.84
164256,1642.56
164327,1643.27
164399,1643.99
164470,1644.7
164541,1645.41
164612,1646.12
164683,1646.83
164754,1647.54
164827,1648.27
164901,1649.01
164975,1649.75
165056,1650.56
165137,1651.37
165209,1652.09
165276,1652.76
165344,1653.44
165412,1654.12
165479,1654.79
165547,1655.47
165615,1656.15
165683,1656.83
165749,1657.49
165815,1658.15
165881,1658.81
165948,1659.48
166014,1660.14
166080,1660.8
166148,1661.48
166217,1662.17
166283,1662.83
166350,1663.5
166418,1664.18
166489,1664.89
166558,1665.58
166629,1666.29
166700,1667.0
166770,1667.7
166838,1668.38
166904,1669.04
166968,1669.68
167031,1670.31
167095,1670.95
167160,1671.6
167228,1672.28
167299,1672.99
167373,1673.73
167455,1674.55
167543,1675.43
167627,1676.27
167713,1677.13
167796,1677.96
167879,1678.79
167962,1679.62
168044,1680.44
168125,1681.25
168201,1682.01
168278,1682.78
168357,1683.57
168437,1684.37
168516,1685.16
168592,1685.92
168670,1686.7
168747,1687.47
168825,1688.25
168903,1689.03
168980,1689.8
169058,1690.58
169138,1691.38
169218,1692.18
169296,1692.96
169374,1693.74
169452,1694.52
169529,1695.29
169605,1696.05
169682,1696.82
169757,1697.57
169833,1698.33
169910,1699.1
169988,1699.88
170065,1700.65
170142,1701.42
170218,1702.18
170294,1702.94
170370,1703.7
170448,1704.48
170525,1705.25
170603,1706.03
170682,1706.82
170760,1707.6
170835,1708.35
170910,1709.1
170986,1709.86
171063,1710.63
171140,1711.4
171220,1712.2
171296,1712.96
171374,1713.74
171452,1714.52
171531,1715.31
171611,1716.11
171691,1716.91
171770,1717.7
171849,1718.49
171924,1719.24
171998,1719.98
172069,1720.69
172140,1721.4
172212,1722.12
172286,1722.86
172370,1723.7
172453,1724.53
172532,1725.32
172607,1726.07
172678,1726.78
172749,1727.49
172819,1728.19
172890,1728.9
172973,1729.73
173057,1730.57
173134,1731.34
173207,1732.07
173278,1732.78
173349,1733.49
173420,1734.2
173491,1734.91
173559,1735.59
173627,1736.27
173695,1736.95
173763,1737.63
173831,1738.31
173899,1738.99
173968,1739.68
174037,1740.37
174106,1741.06
174173,1741.73
174239,1742.39
174304,1743.04
174369,1743.69
174432,1744.32
174494,1744.94
174556,1745.56
174618,1746.18
174682,1746.82
174749,1747.49
174819,1748.19
174891,1748.91
174964,1749.64
175040,1750.4
175118,1751.18
175193,1751.93
175267,1752.67
175340,1753.4
175425,1754.25
175510,1755.1
175589,1755.89
175667,1756.67
175745,1757.45
175824,1758.24
175900,1759.0
175977,1759.77
176055,1760.55
176136,1761.36
176218,1762.18
176300,1763.0
176383,1763.83
176466,1764.66
176548,1765.48
176632,1766.32
176712,1767.12
176790,1767.9
176867,1768.67
176943,1769.43
177017,1770.17
177092,1770.92
177167,1771.67
177238,1772.38
177310,1773.1
177384,1773.84
177457,1774.57
177529,1775.29
177602,1776.02
177676,1776.76
177759,1777.59
177840,1778.4
177917,1779.17
177992,1779.92
178064,1780.64
178135,1781.35
178208,1782.08
178280,1782.8
178352,1783.52
178425,1784.25
178496,1784.96
178566,1785.66
178637,1786.37
178709,1787.09
178782,1787.82
178870,1788.7
178958,1789.58
179039,1790.39
179119,1791.19
179197,1791.97
179274,1792.74
179354,1793.54
179433,1794.33
179513,1795.13
179594,1795.94
179672,1796.72
179747,1797.47
179820,1798.2
179892,1798.92
179961,1799.61
180030,1800.3
180100,1801.0
180171,1801.71
180244,1802.44
180326,1803.26
180409,1804.09
180483,1804.83
180552,1805.52
180622,1806.22
180692,1806.92
180763,1807.63
180835,1808.35
180917,1809.17
180999,1809.99
181077,1810.77
181154,1811.54
181231,1812.31
181306,1813.06
181380,1813.8
181453,1814.53
181526,1815.26
181598,1815.98
181668,1816.68
181737,1817.37
181806,1818.06
181874,1818.74
181944,1819.44
182014,1820.14
182085,1820.85
182156,1821.56
182226,1822.26
182295,1822.95
182363,1823.63
182431,1824.31
182498,1824.98
182565,1825.65
182634,1826.34
182705,1827.05
182776,1827.76
182849,1828.49
182931,1829.31
183011,1830.11
183091,1830.91
183172,1831.72
183247,1832.47
183323,1833.23
183397,1833.97
183470,1834.7
183545,1835.45
183623,1836.23
183699,1836.99
183775,1837.75
183854,1838.54
183935,1839.35
184015,1840.15
184098,1840.98
184182,1841.82
184264,1842.64
184348,1843.48
184429,1844.29
184510,1845.1
184592,1845.92
184672,1846.72
184750,1847.5
184827,1848.27
184905,1849.05
184979,1849.79
185050,1850.5
185120,1851.2
185188,1851.88
185257,1852.57
185324,1853.24
185388,1853.88
185451,1854.51
185514,1855.14
185580,1855.8
185648,1856.48
185717,1857.17
185787,1857.87
185858,1858.58
185929,1859.29
186000,1860.0
186069,1860.69
186139,1861.39
186209,1862.09
186278,1862.78
186346,1863.46
186416,1864.16
186488,1864.88
186560,1865.6
186629,1866.29
186698,1866.98
186770,1867.7
186841,1868.41
186910,1869.1
186977,1869.77
187045,1870.45
187114,1871.14
187181,1871.81
187249,1872.49
187317,1873.17
187384,1873.84
187451,1874.51
187516,1875.16
187581,1875.81
187646,1876.46
187712,1877.12
187779,1877.79
187848,1878.48
187917,1879.17
187984,1879.84
188053,1880.53
188124,1881.24
188194,1881.94
188264,1882.64
188335,1883.35
188406,1884.06
188478,1884.78
188551,1885.51
188628,1886.28
188707,1887.07
188787,1887.87
188864,1888.64
188939,1889.39
189014,1890.14
189085,1890.85
189157,1891.57
189235,1892.35
189314,1893.14
189386,1893.86
189458,1894.58
189533,1895.33
189608,1896.08
189683,1896.83
189753,1897.53
189823,1898.23
189892,1898.92
189962,1899.62
190031,1900.31
190099,1900.99
190168,1901.68
190237,1902.37
190305,1903.05
190373,1903.73
190439,1904.39
190506,1905.06
190582,1905.82
190653,1906.53
190727,1907.27
190801,1908.01
190878,1908.78
190956,1909.56
191031,1910.31
191108,1911.08
191179,1911.79
191250,1912.5
191326,1913.26
191410,1914.1
191495,1914.95
191567,1915.67
191639,1916.39
191714,1917.14
191789,1917.89
191860,1918.6
191933,1919.33
192008,1920.08
192087,1920.87
192164,1921.64
192238,1922.38
192313,1923.13
192393,1923.93
192474,1924.74
192547,1925.47
192620,1926.2
192695,1926.95
192772,1927.72
192851,1928.51
192930,1929.3
193007,1930.07
193082,1930.82
193157,1931.57
193231,1932.31
193302,1933.02
193372,1933.72
193440,1934.4
193506,1935.06
193573,1935.73
193639,1936.39
193705,1937.05
193772,1937.72
193840,1938.4
193911,1939.11
193985,1939.85
194069,1940.69
194152,1941.52
194231,1942.31
194310,1943.1
194390,1943.9
194469,1944.69
194548,1945.48
194624,1946.24
194700,1947.0
194774,1947.74
194846,1948.46
194922,1949.22
194998,1949.98
195076,1950.76
195154,1951.54
195235,1952.35
195315,1953.15
195394,1953.94
195470,1954.7
195546,1955.46
195621,1956.21
195695,1956.95
195770,1957.7
195847,1958.47
195925,1959.25
196000,1960.0
196075,1960.75
196150,1961.5
196225,1962.25
196300,1963.0
196374,1963.74
196449,1964.49
196519,1965.19
196588,1965.88
196656,1966.56
196723,1967.23
196790,1967.9
196858,1968.58
196926,1969.26
196995,1969.95
197064,1970.64
197134,1971.34
197207,1972.07
197287,1972.87
197367,1973.67
197439,1974.39
197508,1975.08
197577,1975.77
197645,1976.45
197712,1977.12
197782,1977.82
197855,1978.55
197931,1979.31
198005,1980.05
198078,1980.78
198151,1981.51
198223,1982.23
198293,1982.93
198364,1983.64
198434,1984.34
198504,1985.04
198574,1985.74
198644,1986.44
198712,1987.12
198778,1987.78
198845,1988.45
198914,1989.14
198984,1989.84
199059,1990.59
199137,1991.37
199218,1992.18
199293,1992.93
199365,1993.65
199435,1994.35
199506,1995.06
199583,1995.83
199657,1996.57
199731,1997.31
199804,1998.04
199875,1998.75
199947,1999.47
200025,2000.25
200100,2001.0
200173,2001.73
200243,2002.43
200314,2003.14
200388,2003.88
200467,2004.67
200542,2005.42
200614,2006.14
200683,2006.83
200751,2007.51
200819,2008.19
200888,2008.88
200972,2009.72
201053,2010.53
201138,2011.38
201214,2012.14
201290,2012.9
201366,2013.66
201443,2014.43
201520,2015.2
201596,2015.96
201670,2016.7
201743,2017.43
201818,2018.18
201893,2018.93
201969,2019.69
202046,2020.46
202122,2021.22
202197,2021.97
202271,2022.71
202347,2023.47
202424,2024.24
202501,2025.01
202580,2025.8
202656,2026.56
202731,2027.31
202805,2028.05
202879,2028.79
202954,2029.54
203029,2030.29
203106,2031.06
203183,2031.83
203260,2032.6
203332,2033.32
203400,2034.0
203467,2034.67
203533,2035.33
203599,2035.99
203666,2036.66
203736,2037.36
203807,2038.07
203889,2038.89
203971,2039.71
204047,2040.47
204122,2041.22
204197,2041.97
204272,2042.72
204346,2043.46
204420,2044.2
204497,2044.97
204574,2045.74
204645,2046.45
204717,2047.17
204791,2047.91
204866,2048.66
204939,2049.39
205012,2050.12
205083,2050.83
205156,2051.56
205230,2052.3
205308,2053.08
205387,2053.87
205462,2054.62
205536,2055.36
205612,2056.12
205693,2056.93
205774,2057.74
205855,2058.55
205933,2059.33
206008,2060.08
206078,2060.78
206145,2061.45
206211,2062.11
206276,2062.76
206342,2063.42
206409,2064.09
206477,2064.77
206549,2065.49
206623,2066.23
206696,2066.96
206768,2067.68
206838,2068.38
206909,2069.09
206985,2069.85
207063,2070.63
207142,2071.42
207216,2072.16
207287,2072.87
207357,2073.57
207428,2074.28
207496,2074.96
207564,2075.64
207631,2076.31
207699,2076.99
207767,2077.67
207834,2078.34
207899,2078.99
207965,2079.65
208033,2080.33
208100,2081.0
208166,2081.66
208232,2082.32
208298,2082.98
208364,2083.64
208429,2084.29
208495,2084.95
208560,2085.6
208624,2086.24
208687,2086.87
208750,2087.5
208812,2088.12
208874,2088.74
208935,2089.35
208997,2089.97
209058,2090.58
209118,2091.18
209180,2091.8
209244,2092.44
209311,2093.11
209382,2093.82
209457,2094.57
209534,2095.34
209616,2096.16
209698,2096.98
209780,2097.8
209863,2098.63
209948,2099.48
210034,2100.34
210114,2101.14
210193,2101.93
210270,2102.7
210347,2103.47
210429,2104.29
210510,2105.1
210593,2105.93
210671,2106.71
210748,2107.48
210827,2108.27
210907,2109.07
210987,2109.87
211066,2110.66
211147,2111.47
211227,2112.27
211305,2113.05
211381,2113.81
211457,2114.57
211534,2115.34
211609,2116.09
211683,2116.83
211756,2117.56
211829,2118.29
211902,2119.02
211974,2119.74
212044,2120.44
212114,2121.14
212187,2121.87
212258,2122.58
212328,2123.28
212399,2123.99
212472,2124.72
212544,2125.44
212614,2126.14
212686,2126.86
212759,2127.59
212833,2128.33
212908,2129.08
212992,2129.92
213076,2130.76
213154,2131.54
213231,2132.31
213306,2133.06
213382,2133.82
213456,2134.56
213531,2135.31
213605,2136.05
213679,2136.79
213752,2137.52
213826,2138.26
213900,2139.0
213975,2139.75
214050,2140.5
214129,2141.29
214207,2142.07
214285,2142.85
214364,2143.64
214440,2144.4
214515,2145.15
214592,2145.92
214670,2146.7
214747,2147.47
214826,2148.26
214905,2149.05
214983,2149.83
215059,2150.59
215135,2151.35
215211,2152.11
215284,2152.84
215354,2153.54
215425,2154.25
215493,2154.93
215561,2155.61
215628,2156.28
215694,2156.94
215760,2157.6
215825,2158.25
215891,2158.91
215956,2159.56
216021,2160.21
216086,2160.86
216152,2161.52
216216,2162.16
216279,2162.79
216342,2163.42
216403,2164.03
216467,2164.67
216531,2165.31
216596,2165.96
216663,2166.63
216729,2167.29
216797,2167.97
216865,2168.65
216933,2169.33
217002,2170.02
217073,2170.73
217147,2171.47
217225,2172.25
217303,2173.03
217376,2173.76
217450,2174.5
217535,2175.35
217621,2176.21
217701,2177.01
217778,2177.78
217855,2178.55
217930,2179.3
218007,2180.07
218086,2180.86
218164,2181.64
218243,2182.43
218324,2183.24
218404,2184.04
218483,2184.83
218562,2185.62
218641,2186.41
218719,2187.19
218795,2187.95
218868,2188.68
218941,2189.41
219011,2190.11
219078,2190.78
219144,2191.44
219209,2192.09
219273,2192.73
219337,2193.37
219399,2193.99
219461,2194.61
219523,2195.23
219587,2195.87
219652,2196.52
219718,2197.18
219783,2197.83
219852,2198.52
219921,2199.21
219991,2199.91
220061,2200.61
220132,2201.32
220203,2202.03
220275,2202.75
220346,2203.46
220426,2204.26
220505,2205.05
220587,2205.87
220669,2206.69
220748,2207.48
220828,2208.28
220906,2209.06
220986,2209.86
221065,2210.65
221144,2211.44
221222,2212.22
221300,2213.0
221380,2213.8
221462,2214.62
221544,2215.44
221627,2216.27
221712,2217.12
221798,2217.98
221879,2218.79
221961,2219.61
222042,2220.42
222118,2221.18
222193,2221.93
222265,2222.65
222333,2223.33
222398,2223.98
222462,2224.62
222525,2225.25
222587,2225.87
222649,2226.49
222712,2227.12
222776,2227.76
222842,2228.42
222909,2229.09
222976,2229.76
223045,2230.45
223114,2231.14
223184,2231.84
223253,2232.53
223323,2233.23
223394,2233.94
223464,2234.64
223532,2235.32
223602,2236.02
223672,2236.72
223743,2237.43
223815,2238.15
223887,2238.87
223961,2239.61
224045,2240.45
224127,2241.27
224211,2242.11
224295,2242.95
224377,2243.77
224458,2244.58
224539,2245.39
224619,2246.19
224700,2247.0
224782,2247.82
224863,2248.63
224946,2249.46
225028,2250.28
225109,2251.09
225188,2251.88
225267,2252.67
225344,2253.44
225420,2254.2
225495,2254.95
225569,2255.69
225643,2256.43
225714,2257.14
225781,2257.81
225847,2258.47
225913,2259.13
225978,2259.78
226045,2260.45
226111,2261.11
226177,2261.77
226243,2262.43
226311,2263.11
226379,2263.79
226447,2264.47
226514,2265.14
226583,2265.83
226653,2266.53
226726,2267.26
226801,2268.01
226885,2268.85
226969,2269.69
227048,2270.48
227125,2271.25
227200,2272.0
227273,2272.73
227346,2273.46
227421,2274.21
227502,2275.02
227583,2275.83
227662,2276.62
227742,2277.42
227824,2278.24
227907,2279.07
227990,2279.9
228073,2280.73
228158,2281.58
228243,2282.43
228326,2283.26
228407,2284.07
228488,2284.88
228569,2285.69
228648,2286.48
228730,2287.3
228813,2288.13
228893,2288.93
228971,2289.71
229044,2290.44
229114,2291.14
229181,2291.81
229248,2292.48
229316,2293.16
229385,2293.85
229455,2294.55
229526,2295.26
229614,2296.14
229697,2296.97
229785,2297.85
229868,2298.68
229950,2299.5
230031,2300.31
230111,2301.11
230191,2301.91
230270,2302.7
230349,2303.49
230428,2304.28
230505,2305.05
230581,2305.81
230657,2306.57
230733,2307.33
230810,2308.1
230884,2308.84
230959,2309.59
231034,2310.34
231110,2311.1
231188,2311.88
231267,2312.67
231346,2313.46
231425,2314.25
231505,2315.05
231588,2315.88
231672,2316.72
231749,2317.49
231827,2318.27
231904,2319.04
231982,2319.82
232049,2320.49
232115,2321.15
232181,2321.81
232247,2322.47
232314,2323.14
232381,2323.81
232446,2324.46
232510,2325.1
232573,2325.73
232637,2326.37
232703,2327.03
232771,2327.71
232839,2328.39
232909,2329.09
232995,2329.95
233081,2330.81
233166,2331.66
233247,2332.47
233328,2333.28
233409,2334.09
233488,2334.88
233566,2335.66
233645,2336.45
233723,2337.23
233805,2338.05
233888,2338.88
233970,2339.7
234053,2340.53
234136,2341.36
234219,2342.19
234300,2343.0
234381,2343.81
234464,2344.64
234550,2345.5
234637,2346.37
234717,2347.17
234794,2347.94
234869,2348.69
234943,2349.43
235015,2350.15
235083,2350.83
235152,2351.52
235222,2352.22
235293,2352.93
235362,2353.62
235434,2354.34
235517,2355.17
235600,2356.0
235675,2356.75
235748,2357.48
235821,2358.21
235897,2358.97
235982,2359.82
236062,2360.62
236140,2361.4
236216,2362.16
236292,2362.92
236368,2363.68
236445,2364.45
236528,2365.28
236608,2366.08
236687,2366.87
236769,2367.69
236854,2368.54
236938,2369.38
237021,2370.21
237105,2371.05
237189,2371.89
237274,2372.74
237360,2373.6
237442,2374.42
237525,2375.25
237605,2376.05
237688,2376.88
237772,2377.72
237853,2378.53
237935,2379.35
238014,2380.14
238089,2380.89
238164,2381.64
238236,2382.36
238303,2383.03
238369,2383.69
238436,2384.36
238502,2385.02
238568,2385.68
238636,2386.36
238705,2387.05
238774,2387.74
238845,2388.45
238924,2389.24
239003,2390.03
239091,2390.91
239183,2391.83
239270,2392.7
239353,2393.53
239433,2394.33
239511,2395.11
239589,2395.89
239666,2396.66
239744,2397.44
239820,2398.2
239897,2398.97
239976,2399.76
240056,2400.56
240135,2401.35
240213,2402.13
240293,2402.93
240376,2403.76
240457,2404.57
240540,2405.4
240624,2406.24
240708,2407.08
240790,2407.9
240875,2408.75
240963,2409.63
241047,2410.47
241134,2411.34
241222,2412.22
241309,2413.09
241394,2413.94
241481,2414.81
241571,2415.71
241658,2416.58
241741,2417.41
241820,2418.2
241894,2418.94
241963,2419.63
242027,2420.27
242091,2420.91
242155,2421.55
242218,2422.18
242283,2422.83
242352,2423.52
242425,2424.25
242513,2425.13
242602,2426.02
242684,2426.84
242768,2427.68
242850,2428.5
242935,2429.35
243022,2430.22
243108,2431.08
243193,2431.93
243276,2432.76
243360,2433.6
243446,2434.46
243530,2435.3
243612,2436.12
243693,2436.93
243773,2437.73
243854,2438.54
243933,2439.33
244013,2440.13
244094,2440.94
244176,2441.76
244262,2442.62
244347,2443.47
244428,2444.28
244510,2445.1
244590,2445.9
244670,2446.7
244751,2447.51
244831,2448.31
244910,2449.1
244991,2449.91
245072,2450.72
245156,2451.56
245237,2452.37
245313,2453.13
245386,2453.86
245452,2454.52
245516,2455.16
245580,2455.8
245642,2456.42
245704,2457.04
245767,2457.67
245831,2458.31
245894,2458.94
245956,2459.56
246018,2460.18
246081,2460.81
246144,2461.44
246206,2462.06
246267,2462.67
246328,2463.28
246390,2463.9
246453,2464.53
246521,2465.21
246604,2466.04
246684,2466.84
246767,2467.67
246851,2468.51
246938,2469.38
247028,2470.28
247117,2471.17
247204,2472.04
247292,2472.92
247379,2473.79
247465,2474.65
247551,2475.51
247637,2476.37
247722,2477.22
247805,2478.05
247888,2478.88
247969,2479.69
248050,2480.5
248131,2481.31
248215,2482.15
248308,2483.08
248399,2483.99
248488,2484.88
248570,2485.7
248648,2486.48
248722,2487.22
248792,2487.92
248858,2488.58
248924,2489.24
248989,2489.89
249052,2490.52
249114,2491.14
249175,2491.75
249238,2492.38
249304,2493.04
249374,2493.74
249459,2494.59
249545,2495.45
249633,2496.33
249721,2497.21
249803,2498.03
249885,2498.85
249966,2499.66
250046,2500.46
250125,2501.25
250202,2502.02
250285,2502.85
250367,2503.67
250448,2504.48
250528,2505.28
250609,2506.09
250691,2506.91
250776,2507.76
250860,2508.6
250944,2509.44
251027,2510.27
251114,2511.14
251199,2511.99
251284,2512.84
251368,2513.68
251450,2514.5
251534,2515.34
251620,2516.2
251708,2517.08
251792,2517.92
251877,2518.77
251964,2519.64
252052,2520.52
252139,2521.39
252224,2522.24
252307,2523.07
252389,2523.89
252471,2524.71
252550,2525.5
252623,2526.23
252692,2526.92
252756,2527.56
252820,2528.2
252886,2528.86
252950,2529.5
253013,2530.13
253079,2530.79
253146,2531.46
253219,2532.19
253290,2532.9
253372,2533.72
253454,2534.54
253535,2535.35
253618,2536.18
253702,2537.02
253789,2537.89
253877,2538.77
253961,2539.61
254042,2540.42
254122,2541.22
254201,2542.01
254279,2542.79
254355,2543.55
254430,2544.3
254504,2545.04
254580,2545.8
254657,2546.57
254734,2547.34
254813,2548.13
254892,2548.92
254976,2549.76
255061,2550.61
255147,2551.47
255233,2552.33
255320,2553.2
255407,2554.07
255495,2554.95
255583,2555.83
255668,2556.68
255749,2557.49
255830,2558.3
255913,2559.13
255995,2559.95
256074,2560.74
256155,2561.55
256234,2562.34
256311,2563.11
256389,2563.89
256462,2564.62
256530,2565.3
256596,2565.96
256660,2566.6
256723,2567.23
256786,2567.86
256848,2568.48
256910,2569.1
256971,2569.71
257032,2570.32
257095,2570.95
257160,2571.6
257228,2572.28
257297,2572.97
257368,2573.68
257441,2574.41
257522,2575.22
257610,2576.1
257698,2576.98
257781,2577.81
257864,2578.64
257952,2579.52
258039,2580.39
258125,2581.25
258212,2582.12
258300,2583.0
258384,2583.84
258469,2584.69
258553,2585.53
258637,2586.37
258724,2587.24
258810,2588.1
258897,2588.97
258980,2589.8
259064,2590.64
259148,2591.48
259237,2592.37
259326,2593.26
259410,2594.1
259496,2594.96
259583,2595.83
259671,2596.71
259759,2597.59
259854,2598.54
259950,2599.5
260045,2600.45
260130,2601.3
260209,2602.09
260285,2602.85
260359,2603.59
260429,2604.29
260496,2604.96
260562,2605.62
260626,2606.26
260688,2606.88
260751,2607.51
260814,2608.14
260876,2608.76
260937,2609.37
260999,2609.99
261067,2610.67
261147,2611.47
261235,2612.35
261321,2613.21
261410,2614.1
261500,2615.0
261586,2615.86
261672,2616.72
261754,2617.54
261837,2618.37
261916,2619.16
261996,2619.96
262076,2620.76
262157,2621.57
262243,2622.43
262332,2623.32
262424,2624.24
262517,2625.17
262607,2626.07
262696,2626.96
262781,2627.81
262866,2628.66
262951,2629.51
263035,2630.35
263116,2631.16
263197,2631.97
263279,2632.79
263362,2633.62
263445,2634.45
263526,2635.26
263606,2636.06
263684,2636.84
263763,2637.63
263844,2638.44
263926,2639.26
264008,2640.08
264091,2640.91
264172,2641.72
264250,2642.5
264327,2643.27
264398,2643.98
264465,2644.65
264530,2645.3
264594,2645.94
264657,2646.57
264720,2647.2
264781,2647.81
264842,2648.42
264905,2649.05
264972,2649.72
265049,2650.49
265133,2651.33
265215,2652.15
265296,2652.96
265379,2653.79
265460,2654.6
265544,2655.44
265630,2656.3
265717,2657.17
265803,2658.03
265889,2658.89
265973,2659.73
266057,2660.57
266143,2661.43
266233,2662.33
266320,2663.2
266406,2664.06
266491,2664.91
266576,2665.76
266659,2666.59
266742,2667.42
266826,2668.26
266908,2669.08
266990,2669.9
267074,2670.74
267159,2671.59
267245,2672.45
267332,2673.32
267421,2674.21
267509,2675.09
267593,2675.93
267678,2676.78
267757,2677.57
267836,2678.36
267918,2679.18
268001,2680.01
268075,2680.75
268143,2681.43
268212,2682.12
268285,2682.85
268368,2683.68
268452,2684.52
268525,2685.25
268596,2685.96
268662,2686.62
268727,2687.27
268790,2687.9
268851,2688.51
268913,2689.13
268974,2689.74
269034,2690.34
269096,2690.96
269161,2691.61
269233,2692.33
269312,2693.12
269395,2693.95
269474,2694.74
269555,2695.55
269636,2696.36
269721,2697.21
269804,2698.04
269887,2698.87
269970,2699.7
270054,2700.54
270141,2701.41
270231,2702.31
270323,2703.23
270415,2704.15
270508,2705.08
270600,2706.0
270689,2706.89
270779,2707.79
270863,2708.63
270947,2709.47
271032,2710.32
271115,2711.15
271198,2711.98
271281,2712.81
271365,2713.65
271449,2714.49
271533,2715.33
271617,2716.17
271700,2717.0
271780,2717.8
271862,2718.62
271943,2719.43
272025,2720.25
272110,2721.1
272197,2721.97
272283,2722.83
272373,2723.73
272464,2724.64
272546,2725.46
272623,2726.23
272697,2726.97
272775,2727.75
272853,2728.53
272934,2729.34
273015,2730.15
273104,2731.04
273191,2731.91
273283,2732.83
273375,2733.75
273465,2734.65
273550,2735.5
273636,2736.36
273724,2737.24
273813,2738.13
273900,2739.0
273983,2739.83
274065,2740.65
274150,2741.5
274234,2742.34
274316,2743.16
274397,2743.97
274481,2744.81
274567,2745.67
274654,2746.54
274741,2747.41
274828,2748.28
274913,2749.13
274998,2749.98
275084,2750.84
275164,2751.64
275240,2752.4
275314,2753.14
275390,2753.9
275463,2754.63
275536,2755.36
275606,2756.06
275679,2756.79
275752,2757.52
275822,2758.22
275890,2758.9
275959,2759.59
276032,2760.32
276106,2761.06
276182,2761.82
276268,2762.68
276355,2763.55
276442,2764.42
276526,2765.26
276610,2766.1
276692,2766.92
276773,2767.73
276853,2768.53
276935,2769.35
277016,2770.16
277098,2770.98
277184,2771.84
277269,2772.69
277357,2773.57
277445,2774.45
277532,2775.32
277623,2776.23
277714,2777.14
277804,2778.04
277890,2778.9
277975,2779.75
278061,2780.61
278145,2781.45
278226,2782.26
278303,2783.03
278377,2783.77
278447,2784.47
278517,2785.17
278590,2785.9
278664,2786.64
278727,2787.27
278790,2787.9
278852,2788.52
278913,2789.13
278974,2789.74
279035,2790.35
279096,2790.96
279159,2791.59
279225,2792.25
279310,2793.1
279396,2793.96
279484,2794.84
279566,2795.66
279648,2796.48
279742,2797.42
279836,2798.36
279917,2799.17
280000,2800.0
280083,2800.83
280165,2801.65
280246,2802.46
280329,2803.29
280413,2804.13
280499,2804.99
280586,2805.86
280673,2806.73
280767,2807.67
280861,2808.61
280951,2809.51
281039,2810.39
281127,2811.27
281214,2812.14
281300,2813.0
281385,2813.85
281468,2814.68
281553,2815.53
281641,2816.41
281726,2817.26
281813,2818.13
281896,2818.96
281980,2819.8
282063,2820.63
282143,2821.43
282219,2822.19
282293,2822.93
282367,2823.67
282441,2824.41
282512,2825.12
282581,2825.81
282648,2826.48
282715,2827.15
282780,2827.8
282845,2828.45
282912,2829.12
282980,2829.8
283052,2830.52
283142,2831.42
283230,2832.3
283322,2833.22
283409,2834.09
283498,2834.98
283587,2835.87
283673,2836.73
283757,2837.57
283842,2838.42
283924,2839.24
284005,2840.05
284085,2840.85
284165,2841.65
284248,2842.48
284330,2843.3
284411,2844.11
284494,2844.94
284575,2845.75
284658,2846.58
284744,2847.44
284828,2848.28
284910,2849.1
284993,2849.93
285075,2850.75
285161,2851.61
285244,2852.44
285325,2853.25
285405,2854.05
285484,2854.84
285564,2855.64
285645,2856.45
285721,2857.21
285795,2857.95
285867,2858.67
285933,2859.33
285998,2859.98
286061,2860.61
286124,2861.24
286185,2861.85
286245,2862.45
286307,2863.07
286372,2863.72
286437,2864.37
286502,2865.02
286568,2865.68
286638,2866.38
286711,2867.11
286790,2867.9
286869,2868.69
286945,2869.45
287021,2870.21
287109,2871.09
287197,2871.97
287278,2872.78
287360,2873.6
287443,2874.43
287528,2875.28
287613,2876.13
287701,2877.01
287789,2877.89
287874,2878.74
287959,2879.59
288044,2880.44
288137,2881.37
288226,2882.26
288313,2883.13
288402,2884.02
288490,2884.9
288577,2885.77
288665,2886.65
288752,2887.52
288841,2888.41
288929,2889.29
289011,2890.11
289092,2890.92
289173,2891.73
289254,2892.54
289334,2893.34
289417,2894.17
289501,2895.01
289588,2895.88
289672,2896.72
289755,2897.55
289834,2898.34
289909,2899.09
289981,2899.81
290049,2900.49
290113,2901.13
290176,2901.76
290237,2902.37
290298,2902.98
290361,2903.61
290431,2904.31
290508,2905.08
290585,2905.85
290667,2906.67
290752,2907.52
290838,2908.38
290927,2909.27
291016,2910.16
291102,2911.02
291187,2911.87
291272,2912.72
291358,2913.58
291441,2914.41
291523,2915.23
291606,2916.06
291689,2916.89
291771,2917.71
291851,2918.51
291935,2919.35
292016,2920.16
292098,2920.98
292179,2921.79
292259,2922.59
292341,2923.41
292422,2924.22
292504,2925.04
292586,2925.86
292669,2926.69
292754,2927.54
292838,2928.38
292925,2929.25
293013,2930.13
293090,2930.9
293167,2931.67
293244,2932.44
293328,2933.28
293407,2934.07
293481,2934.81
293553,2935.53
293620,2936.2
293685,2936.85
293750,2937.5
293813,2938.13
293876,2938.76
293938,2939.38
294002,2940.02
294069,2940.69
294134,2941.34
294199,2941.99
294263,2942.63
294332,2943.32
294413,2944.13
294497,2944.97
294581,2945.81
294665,2946.65
294749,2947.49
294834,2948.34
294919,2949.19
295006,2950.06
295092,2950.92
295178,2951.78
295267,2952.67
295357,2953.57
295445,2954.45
295530,2955.3
295613,2956.13
295696,2956.96
295781,2957.81
295865,2958.65
295944,2959.44
296024,2960.24
296106,2961.06
296189,2961.89
296274,2962.74
296358,2963.58
296436,2964.36
296513,2965.13
296588,2965.88
296663,2966.63
296736,2967.36
296808,2968.08
296876,2968.76
296943,2969.43
297008,2970.08
297072,2970.72
297137,2971.37
297199,2971.99
297261,2972.61
297324,2973.24
297386,2973.86
297448,2974.48
297510,2975.1
297573,2975.73
297638,2976.38
297711,2977.11
297792,2977.92
297876,2978.76
297964,2979.64
298054,2980.54
298146,2981.46
298239,2982.39
298332,2983.32
298423,2984.23
298514,2985.14
298605,2986.05
298694,2986.94
298781,2987.81
298866,2988.66
298953,2989.53
299038,2990.38
299122,2991.22
299205,2992.05
299287,2992.87
299371,2993.71
299455,2994.55
299539,2995.39
299622,2996.22
299707,2997.07
299794,2997.94
299880,2998.8
299963,2999.63
300045,3000.45
300130,3001.3
300215,3002.15
300303,3003.03
300385,3003.85
300463,3004.63
300539,3005.39
300615,3006.15
300686,3006.86
300753,3007.53
300817,3008.17
300880,3008.8
300941,3009.41
301003,3010.03
301065,3010.65
301129,3011.29
301195,3011.95
301285,3012.85
301372,3013.72
301460,3014.6
301548,3015.48
301638,3016.38
301726,3017.26
301817,3018.17
301909,3019.09
301994,3019.94
302078,3020.78
302159,3021.59
302240,3022.4
302322,3023.22
302404,3024.04
302487,3024.87
302572,3025.72
302659,3026.59
302743,3027.43
302827,3028.27
302909,3029.09
302990,3029.9
303073,3030.73
303155,3031.55
303235,3032.35
303317,3033.17
303401,3034.01
303486,3034.86
303568,3035.68
303651,3036.51
303736,3037.36
303821,3038.21
303907,3039.07
303994,3039.94
304077,3040.77
304155,3041.55
304232,3042.32
304309,3043.09
304383,3043.83
304450,3044.5
304516,3045.16
304584,3045.84
304652,3046.52
304718,3047.18
304783,3047.83
304847,3048.47
304909,3049.09
304973,3049.73
305036,3050.36
305098,3050.98
305161,3051.61
305228,3052.28
305308,3053.08
305396,3053.96
305482,3054.82
305572,3055.72
305662,3056.62
305756,3057.56
305849,3058.49
305941,3059.41
306033,3060.33
306125,3061.25
306215,3062.15
306305,3063.05
306391,3063.91
306475,3064.75
306557,3065.57
306642,3066.42
306727,3067.27
306813,3068.13
306896,3068.96
306980,3069.8
307063,3070.63
307147,3071.47
307231,3072.31
307318,3073.18
307400,3074.0
307482,3074.82
307565,3075.65
307647,3076.47
307728,3077.28
307808,3078.08
307890,3078.9
307967,3079.67
308040,3080.4
308108,3081.08
308173,3081.73
308237,3082.37
308299,3082.99
308360,3083.6
308422,3084.22
308484,3084.84
308544,3085.44
308604,3086.04
308664,3086.64
308728,3087.28
308798,3087.98
308874,3088.74
308956,3089.56
309037,3090.37
309119,3091.19
309202,3092.02
309284,3092.84
309365,3093.65
309447,3094.47
309530,3095.3
309616,3096.16
309698,3096.98
309779,3097.79
309862,3098.62
309950,3099.5
310040,3100.4
310133,3101.33
310226,3102.26
310321,3103.21
310416,3104.16
310511,3105.11
310605,3106.05
310698,3106.98
310790,3107.9
310881,3108.81
310967,3109.67
311049,3110.49
311132,3111.32
311215,3112.15
311300,3113.0
311382,3113.82
311459,3114.59
311536,3115.36
311607,3116.07
311678,3116.78
311749,3117.49
311826,3118.26
311891,3118.91
311956,3119.56
312018,3120.18
312079,3120.79
312139,3121.39
312198,3121.98
312256,3122.56
312320,3123.2
312388,3123.88
312472,3124.72
312556,3125.56
312644,3126.44
312736,3127.36
312827,3128.27
312915,3129.15
312998,3129.98
313082,3130.82
313170,3131.7
313257,3132.57
313336,3133.36
313413,3134.13
313492,3134.92
313567,3135.67
313642,3136.42
313716,3137.16
313803,3138.03
313891,3138.91
313976,3139.76
314061,3140.61
314143,3141.43
314224,3142.24
314308,3143.08
314392,3143.92
314478,3144.78
314565,3145.65
314647,3146.47
314728,3147.28
314807,3148.07
314887,3148.87
314968,3149.68
315048,3150.48
315132,3151.32
315215,3152.15
315297,3152.97
315380,3153.8
315464,3154.64
315549,3155.49
315632,3156.32
315717,3157.17
315801,3158.01
315880,3158.8
315954,3159.54
316025,3160.25
316090,3160.9
316154,3161.54
316218,3162.18
316281,3162.81
316344,3163.44
316406,3164.06
316469,3164.69
316531,3165.31
316596,3165.96
316668,3166.68
316746,3167.46
316826,3168.26
316909,3169.09
317006,3170.06
317101,3171.01
317194,3171.94
317286,3172.86
317379,3173.79
317472,3174.72
317565,3175.65
317659,3176.59
317747,3177.47
317833,3178.33
317916,3179.16
317999,3179.99
318085,3180.85
318168,3181.68
318252,3182.52
318338,3183.38
318425,3184.25
318508,3185.08
318589,3185.89
318674,3186.74
318756,3187.56
318837,3188.37
318922,3189.22
319006,3190.06
319091,3190.91
319179,3191.79
319264,3192.64
319345,3193.45
319422,3194.22
319498,3194.98
319574,3195.74
319645,3196.45
319715,3197.15
319782,3197.82
319849,3198.49
319914,3199.14
319978,3199.78
320041,3200.41
320104,3201.04
320166,3201.66
320227,3202.27
320289,3202.89
320351,3203.51
320414,3204.14
320482,3204.82
320554,3205.54
320628,3206.28
320711,3207.11
320805,3208.05
320896,3208.96
320988,3209.88
321077,3210.77
321166,3211.66
321256,3212.56
321344,3213.44
321432,3214.32
321518,3215.18
321605,3216.05
321692,3216.92
321782,3217.82
321870,3218.7
321954,3219.54
322037,3220.37
322117,3221.17
322198,3221.98
322280,3222.8
322364,3223.64
322450,3224.5
322538,3225.38
322627,3226.27
322717,3227.17
322803,3228.03
322890,3228.9
322977,3229.77
323064,3230.64
323149,3231.49
323234,3232.34
323314,3233.14
323398,3233.98
323476,3234.76
323550,3235.5
323622,3236.22
323689,3236.89
323754,3237.54
323817,3238.17
323879,3238.79
323941,3239.41
324002,3240.02
324064,3240.64
324125,3241.25
324186,3241.86
324250,3242.5
324317,3243.17
324391,3243.91
324467,3244.67
324548,3245.48
324631,3246.31
324717,3247.17
324800,3248.0
324882,3248.82
324967,3249.67
325053,3250.53
325139,3251.39
325229,3252.29
325319,3253.19
325406,3254.06
325493,3254.93
325581,3255.81
325671,3256.71
325761,3257.61
325853,3258.53
325948,3259.48
326044,3260.44
326137,3261.37
326227,3262.27
326317,3263.17
326406,3264.06
326495,3264.95
326581,3265.81
326668,3266.68
326752,3267.52
326832,3268.32
326912,3269.12
326990,3269.9
327070,3270.7
327149,3271.49
327227,3272.27
327304,3273.04
327382,3273.82
327460,3274.6
327536,3275.36
327609,3276.09
327678,3276.78
327749,3277.49
327820,3278.2
327895,3278.95
327967,3279.67
328039,3280.39
328109,3281.09
328180,3281.8
328267,3282.67
328349,3283.49
328434,3284.34
328513,3285.13
328590,3285.9
328671,3286.71
328752,3287.52
328834,3288.34
328915,3289.15
329001,3290.01
329089,3290.89
329174,3291.74
329259,3292.59
329343,3293.43
329425,3294.25
329502,3295.02
329578,3295.78
329654,3296.54
329728,3297.28
329804,3298.04
329881,3298.81
329960,3299.6
330041,3300.41
330122,3301.22
330203,3302.03
330284,3302.84
330368,3303.68
330453,3304.53
330530,3305.3
330601,3306.01
330670,3306.7
330736,3307.36
330801,3308.01
330865,3308.65
330927,3309.27
330989,3309.89
331050,3310.5
331109,3311.09
331170,3311.7
331231,3312.31
331291,3312.91
331350,3313.5
331410,3314.1
331471,3314.71
331535,3315.35
331598,3315.98
331663,3316.63
331729,3317.29
331797,3317.97
331875,3318.75
331951,3319.51
332032,3320.32
332113,3321.13
332196,3321.96
332281,3322.81
332367,3323.67
332454,3324.54
332539,3325.39
332627,3326.27
332715,3327.15
332801,3328.01
332885,3328.85
332970,3329.7
333056,3330.56
333140,3331.4
333223,3332.23
333305,3333.05
333385,3333.85
333464,3334.64
333545,3335.45
333629,3336.29
333711,3337.11
333795,3337.95
333880,3338.8
333960,3339.6
334041,3340.41
334120,3341.2
334200,3342.0
334279,3342.79
334358,3343.58
334439,3344.39
334522,3345.22
334606,3346.06
334689,3346.89
334770,3347.7
334851,3348.51
334933,3349.33
335015,3350.15
335098,3350.98
335184,3351.84
335267,3352.67
335354,3353.54
335441,3354.41
335534,3355.34
335623,3356.23
335714,3357.14
335803,3358.03
335895,3358.95
335978,3359.78
336061,3360.61
336147,3361.47
336235,3362.35
336322,3363.22
336413,3364.13
336499,3364.99
336586,3365.86
336675,3366.75
336765,3367.65
336847,3368.47
336927,3369.27
337008,3370.08
337089,3370.89
337170,3371.7
337251,3372.51
337330,3373.3
337409,3374.09
337490,3374.9
337572,3375.72
337647,3376.47
337725,3377.25
337801,3378.01
337880,3378.8
337962,3379.62
338044,3380.44
338126,3381.26
338211,3382.11
338299,3382.99
338384,3383.84
338466,3384.66
338552,3385.52
338634,3386.34
338712,3387.12
338792,3387.92
338872,3388.72
338952,3389.52
339034,3390.34
339116,3391.16
339195,3391.95
339276,3392.76
339356,3393.56
339436,3394.36
339518,3395.18
339595,3395.95
339670,3396.7
339744,3397.44
339813,3398.13
339879,3398.79
339944,3399.44
340008,3400.08
340073,3400.73
340137,3401.37
340200,3402.0
340263,3402.63
340327,3403.27
340391,3403.91
340454,3404.54
340517,3405.17
340580,3405.8
340645,3406.45
340714,3407.14
340788,3407.88
340863,3408.63
340944,3409.44
341027,3410.27
341110,3411.1
341191,3411.91
341273,3412.73
341356,3413.56
341442,3414.42
341529,3415.29
341619,3416.19
341706,3417.06
341794,3417.94
341885,3418.85
341978,3419.78
342069,3420.69
342160,3421.6
342252,3422.52
342342,3423.42
342427,3424.27
342513,3425.13
342598,3425.98
342683,3426.83
342769,3427.69
342854,3428.54
342937,3429.37
343020,3430.2
343103,3431.03
343188,3431.88
343269,3432.69
343347,3433.47
343421,3434.21
343493,3434.93
343560,3435.6
343624,3436.24
343688,3436.88
343751,3437.51
343813,3438.13
343875,3438.75
343939,3439.39
344001,3440.01
344063,3440.63
344124,3441.24
344186,3441.86
344251,3442.51
344324,3443.24
344408,3444.08
344495,3444.95
344577,3445.77
344661,3446.61
344746,3447.46
344829,3448.29
344914,3449.14
344999,3449.99
345083,3450.83
345167,3451.67
345251,3452.51
345334,3453.34
345422,3454.22
345512,3455.12
345605,3456.05
345698,3456.98
345788,3457.88
345878,3458.78
345967,3459.67
346052,3460.52
346134,3461.34
346215,3462.15
346294,3462.94
346376,3463.76
346455,3464.55
346529,3465.29
346603,3466.03
346683,3466.83
346759,3467.59
346836,3468.36
346917,3469.17
346991,3469.91
347065,3470.65
347152,3471.52
347240,3472.4
347312,3473.12
347384,3473.84
347461,3474.61
347539,3475.39
347611,3476.11
347683,3476.83
347773,3477.73
347863,3478.63
347945,3479.45
348029,3480.29
348115,3481.15
348204,3482.04
348291,3482.91
348380,3483.8
348470,3484.7
348559,3485.59
348644,3486.44
348725,3487.25
348807,3488.07
348891,3488.91
348972,3489.72
349050,3490.5
349125,3491.25
349206,3492.06
349283,3492.83
349359,3493.59
349437,3494.37
349516,3495.16
349595,3495.95
349674,3496.74
349751,3497.51
349828,3498.28
349907,3499.07
349984,3499.84
350064,3500.64
350140,3501.4
350212,3502.12
350279,3502.79
350343,3503.43
350407,3504.07
350471,3504.71
350533,3505.33
350595,3505.95
350659,3506.59
350722,3507.22
350784,3507.84
350846,3508.46
350908,3509.08
350973,3509.73
351039,3510.39
351109,3511.09
351188,3511.88
351265,3512.65
351346,3513.46
351427,3514.27
351510,3515.1
351593,3515.93
351676,3516.76
351757,3517.57
351836,3518.36
351919,3519.19
352002,3520.02
352086,3520.86
352169,3521.69
352254,3522.54
352338,3523.38
352420,3524.2
352501,3525.01
352584,3525.84
352668,3526.68
352754,3527.54
352840,3528.4
352922,3529.22
353005,3530.05
353088,3530.88
353171,3531.71
353255,3532.55
353338,3533.38
353424,3534.24
353511,3535.11
353597,3535.97
353679,3536.79
353757,3537.57
353837,3538.37
353915,3539.15
353992,3539.92
354068,3540.68
354139,3541.39
354205,3542.05
354269,3542.69
354333,3543.33
354398,3543.98
354461,3544.61
354523,3545.23
354587,3545.87
354651,3546.51
354714,3547.14
354779,3547.79
354846,3548.46
354915,3549.15
354990,3549.9
355070,3550.7
355150,3551.5
355230,3552.3
355310,3553.1
355392,3553.92
355477,3554.77
355559,3555.59
355643,3556.43
355727,3557.27
355811,3558.11
355895,3558.95
355981,3559.81
356066,3560.66
356154,3561.54
356243,3562.43
356330,3563.3
356419,3564.19
356510,3565.1
356598,3565.98
356684,3566.84
356768,3567.68
356849,3568.49
356929,3569.29
357009,3570.09
357088,3570.88
357173,3571.73
357254,3572.54
357335,3573.35
357419,3574.19
357500,3575.0
357575,3575.75
357649,3576.49
357723,3577.23
357802,3578.02
357880,3578.8
357960,3579.6
358038,3580.38
358117,3581.17
358192,3581.92
358260,3582.6
358327,3583.27
358394,3583.94
358462,3584.62
358533,3585.33
358605,3586.05
358682,3586.82
358757,3587.57
358835,3588.35
358922,3589.22
359009,3590.09
359089,3590.89
359168,3591.68
359250,3592.5
359331,3593.31
359411,3594.11
359490,3594.9
359571,3595.71
359653,3596.53
359734,3597.34
359820,3598.2
359909,3599.09
359997,3599.97
360083,3600.83
360168,3601.68
360255,3602.55
360341,3603.41
360426,3604.26
360508,3605.08
360588,3605.88
360667,3606.67
360747,3607.47
360829,3608.29
360908,3609.08
360988,3609.88
361068,3610.68
361148,3611.48
361229,3612.29
361304,3613.04
361377,3613.77
361444,3614.44
361511,3615.11
361576,3615.76
361639,3616.39
361703,3617.03
361766,3617.66
361831,3618.31
361894,3618.94
361958,3619.58
362023,3620.23
362090,3620.9
362159,3621.59
362229,3622.29
362298,3622.98
362366,3623.66
362436,3624.36
362506,3625.06
362580,3625.8
362656,3626.56
362737,3627.37
362822,3628.22
362907,3629.07
362989,3629.89
363071,3630.71
363153,3631.53
363232,3632.32
363311,3633.11
363392,3633.92
363478,3634.78
363565,3635.65
363654,3636.54
363742,3637.42
363827,3638.27
363912,3639.12
363996,3639.96
364077,3640.77
364159,3641.59
364242,3642.42
364324,3643.24
364407,3644.07
364488,3644.88
364568,3645.68
364647,3646.47
364725,3647.25
364805,3648.05
364882,3648.82
364956,3649.56
365028,3650.28
365094,3650.94
365158,3651.58
365223,3652.23
365286,3652.86
365348,3653.48
365410,3654.1
365473,3654.73
365535,3655.35
365596,3655.96
365657,3656.57
365719,3657.19
365783,3657.83
365850,3658.5
365920,3659.2
365989,3659.89
366059,3660.59
366133,3661.33
366208,3662.08
366283,3662.83
366360,3663.6
366436,3664.36
366510,3665.1
366582,3665.82
366655,3666.55
366727,3667.27
366797,3667.97
366866,3668.66
366934,3669.34
367003,3670.03
367073,3670.73
367142,3671.42
367212,3672.12
367281,3672.81
367352,3673.52
367428,3674.28
367509,3675.09
367591,3675.91
367673,3676.73
367757,3677.57
367842,3678.42
367928,3679.28
368011,3680.11
368090,3680.9
368171,3681.71
368253,3682.53
368338,3683.38
368420,3684.2
368499,3684.99
368576,3685.76
368652,3686.52
368728,3687.28
368806,3688.06
368884,3688.84
368965,3689.65
369044,3690.44
369118,3691.18
369190,3691.9
369260,3692.6
369325,3693.25
369390,3693.9
369454,3694.54
369516,3695.16
369578,3695.78
369639,3696.39
369702,3697.02
369768,3697.68
369840,3698.4
369918,3699.18
369998,3699.98
370084,3700.84
370172,3701.72
370255,3702.55
370339,3703.39
370425,3704.25
370511,3705.11
370600,3706.0
370689,3706.89
370778,3707.78
370866,3708.66
370954,3709.54
371043,3710.43
371137,3711.37
371227,3712.27
371316,3713.16
371401,3714.01
371483,3714.83
371564,3715.64
371647,3716.47
371730,3717.3
371813,3718.13
371895,3718.95
371975,3719.75
372055,3720.55
372135,3721.35
372214,3722.14
372292,3722.92
372368,3723.68
372441,3724.41
372512,3725.12
372583,3725.83
372651,3726.51
372719,3727.19
372786,3727.86
372852,3728.52
372917,3729.17
372980,3729.8
373044,3730.44
373113,3731.13
373180,3731.8
373247,3732.47
373314,3733.14
373382,3733.82
373452,3734.52
373524,3735.24
373595,3735.95
373674,3736.74
373754,3737.54
373834,3738.34
373914,3739.14
373989,3739.89
374064,3740.64
374140,3741.4
374214,3742.14
374295,3742.95
374377,3743.77
374461,3744.61
374541,3745.41
374621,3746.21
374715,3747.15
374810,3748.1
374897,3748.97
374984,3749.84
375072,3750.72
375160,3751.6
375247,3752.47
375335,3753.35
375424,3754.24
375510,3755.1
375597,3755.97
375686,3756.86
375777,3757.77
375867,3758.67
375957,3759.57
376045,3760.45
376127,3761.27
376207,3762.07
376286,3762.86
376365,3763.65
376443,3764.43
376517,3765.17
376586,3765.86
376652,3766.52
376716,3767.16
376780,3767.8
376843,3768.43
376905,3769.05
376966,3769.66
377027,3770.27
377091,3770.91
377155,3771.55
377220,3772.2
377286,3772.86
377355,3773.55
377424,3774.24
377493,3774.93
377564,3775.64
377641,3776.41
377720,3777.2
377799,3777.99
377880,3778.8
377964,3779.64
378043,3780.43
378121,3781.21
378200,3782.0
378279,3782.79
378359,3783.59
378440,3784.4
378522,3785.22
378604,3786.04
378687,3786.87
378771,3787.71
378852,3788.52
378932,3789.32
379010,3790.1
379087,3790.87
379165,3791.65
379243,3792.43
379321,3793.21
379399,3793.99
379478,3794.78
379558,3795.58
379637,3796.37
379719,3797.19
379799,3797.99
379882,3798.82
379964,3799.64
380045,3800.45
380123,3801.23
380202,3802.02
380282,3802.82
380360,3803.6
380436,3804.36
380514,3805.14
380593,3805.93
380669,3806.69
380740,3807.4
380808,3808.08
380873,3808.73
380938,3809.38
381003,3810.03
381067,3810.67
381130,3811.3
381195,3811.95
381260,3812.6
381327,3813.27
381393,3813.93
381460,3814.6
381528,3815.28
381598,3815.98
381668,3816.68
381739,3817.39
381813,3818.13
381886,3818.86
381957,3819.57
382029,3820.29
382105,3821.05
382186,3821.86
382274,3822.74
382362,3823.62
382444,3824.44
382527,3825.27
382615,3826.15
382701,3827.01
382788,3827.88
382872,3828.72
382959,3829.59
383043,3830.43
383128,3831.28
383213,3832.13
383300,3833.0
383386,3833.86
383472,3834.72
383557,3835.57
383643,3836.43
383730,3837.3
383819,3838.19
383906,3839.06
383988,3839.88
384067,3840.67
384147,3841.47
384227,3842.27
384306,3843.06
384386,3843.86
384464,3844.64
384540,3845.4
384612,3846.12
384681,3846.81
384746,3847.46
384812,3848.12
384877,3848.77
384941,3849.41
385003,3850.03
385065,3850.65
385128,3851.28
385191,3851.91
385254,3852.54
385317,3853.17
385381,3853.81
385447,3854.47
385512,3855.12
385577,3855.77
385643,3856.43
385711,3857.11
385779,3857.79
385847,3858.47
385918,3859.18
385990,3859.9
386063,3860.63
386140,3861.4
386223,3862.23
386307,3863.07
386388,3863.88
386469,3864.69
386547,3865.47
386627,3866.27
386706,3867.06
386786,3867.86
386866,3868.66
386946,3869.46
387027,3870.27
387109,3871.09
387191,3871.91
387273,3872.73
387356,3873.56
387437,3874.37
387518,3875.18
387601,3876.01
387683,3876.83
387765,3877.65
387847,3878.47
387929,3879.29
388008,3880.08
388088,3880.88
388169,3881.69
388253,3882.53
388331,3883.31
388406,3884.06
388478,3884.78
388549,3885.49
388615,3886.15
388681,3886.81
388747,3887.47
388813,3888.13
388879,3888.79
388945,3889.45
389012,3890.12
389079,3890.79
389146,3891.46
389213,3892.13
389281,3892.81
389351,3893.51
389421,3894.21
389500,3895.0
389584,3895.84
389669,3896.69
389750,3897.5
389830,3898.3
389911,3899.11
389994,3899.94
390078,3900.78
390164,3901.64
390252,3902.52
390339,3903.39
390427,3904.27
390514,3905.14
390605,3906.05
390694,3906.94
390782,3907.82
390869,3908.69
390956,3909.56
391038,3910.38
391119,3911.19
391199,3911.99
391275,3912.75
391351,3913.51
391428,3914.28
391505,3915.05
391581,3915.81
391657,3916.57
391737,3917.37
391813,3918.13
391885,3918.85
391955,3919.55
392022,3920.22
392087,3920.87
392152,3921.52
392217,3922.17
392279,3922.79
392342,3923.42
392403,3924.03
392465,3924.65
392528,3925.28
392591,3925.91
392654,3926.54
392718,3927.18
392783,3927.83
392848,3928.48
392914,3929.14
392980,3929.8
393047,3930.47
393116,3931.16
393186,3931.86
393257,3932.57
393328,3933.28
393400,3934.0
393472,3934.72
393542,3935.42
393610,3936.1
393678,3936.78
393746,3937.46
393813,3938.13
393880,3938.8
393948,3939.48
394016,3940.16
394091,3940.91
394170,3941.7
394249,3942.49
394327,3943.27
394406,3944.06
394478,3944.78
394545,3945.45
394611,3946.11
394678,3946.78
394745,3947.45
394811,3948.11
394876,3948.76
394940,3949.4
395003,3950.03
395066,3950.66
395128,3951.28
395190,3951.9
395251,3952.51
395311,3953.11
395371,3953.71
395431,3954.31
395490,3954.9
395549,3955.49
395608,3956.08
395666,3956.66
395723,3957.23
395780,3957.8
395835,3958.35
395890,3958.9
395946,3959.46
396000,3960.0
396054,3960.54
396108,3961.08
396161,3961.61
396215,3962.15
396268,3962.68
396322,3963.22
396376,3963.76
396429,3964.29
396483,3964.83
396536,3965.36
396590,3965.9
396644,3966.44
396698,3966.98
396752,3967.52
396806,3968.06
396861,3968.61
396917,3969.17
396973,3969.73
397031,3970.31
397090,3970.9
397148,3971.48
397207,3972.07
397267,3972.67
397327,3973.27
397387,3973.87
397447,3974.47
397507,3975.07
397567,3975.67
397626,3976.26
397684,3976.84
397743,3977.43
397802,3978.02
397862,3978.62
397922,3979.22
397982,3979.82
398042,3980.42
398104,3981.04
398166,3981.66
398231,3982.31
398296,3982.96
398362,3983.62
398428,3984.28
398495,3984.95
398562,3985.62
398628,3986.28
398695,3986.95
398762,3987.62
398829,3988.29
398898,3988.98
398968,3989.68
399039,3990.39
399114,3991.14
399190,3991.9
399263,3992.63
399337,3993.37
399410,3994.1
399482,3994.82
399555,3995.55
399628,3996.28
399701,3997.01
399773,3997.73
399846,3998.46
399919,3999.19
399991,3999.91
400065,4000.65
400139,4001.39
400211,4002.11
400283,4002.83
400353,4003.53
400424,4004.24
400496,4004.96
400567,4005.67
400638,4006.38
400707,4007.07
400776,4007.76
400846,4008.46
400916,4009.16
400984,4009.84
401052,4010.52
401120,4011.2
401189,4011.89
401258,4012.58
401326,4013.26
401393,4013.93
401458,4014.58
401523,4015.23
401588,4015.88
401651,4016.51
401714,4017.14
401777,4017.77
401840,4018.4
401902,4019.02
401965,4019.65
402028,4020.28
402091,4020.91
402157,4021.57
402223,4022.23
402289,4022.89
402354,4023.54
402419,4024.19
402484,4024.84
402549,4025.49
402612,4026.12
402675,4026.75
402738,4027.38
402802,4028.02
402864,4028.64
402928,4029.28
402991,4029.91
403053,4030.53
403116,4031.16
403180,4031.8
403244,4032.44
403310,4033.1
403377,4033.77
403450,4034.5
403521,4035.21
403595,4035.95
403666,4036.66
403738,4037.38
403810,4038.1
403881,4038.81
403951,4039.51
404019,4040.19
404084,4040.84
404149,4041.49
404213,4042.13
404278,4042.78
404343,4043.43
404410,4044.1
404478,4044.78
404547,4045.47
404616,4046.16
404686,4046.86
404755,4047.55
404828,4048.28
404907,4049.07
404986,4049.86
405063,4050.63
405139,4051.39
405211,4052.11
405283,4052.83
405359,4053.59
405437,4054.37
405516,4055.16
405587,4055.87
405662,4056.62
405733,4057.33
405804,4058.04
405875,4058.75
405947,4059.47
406019,4060.19
406089,4060.89
406159,4061.59
406230,4062.3
406303,4063.03
406374,4063.74
406444,4064.44
406515,4065.15
406584,4065.84
406653,4066.53
406722,4067.22
406789,4067.89
406854,4068.54
406920,4069.2
406985,4069.85
407050,4070.5
407113,4071.13
407177,4071.77
407241,4072.41
407306,4073.06
407372,4073.72
407437,4074.37
407504,4075.04
407571,4075.71
407638,4076.38
407706,4077.06
407776,4077.76
407847,4078.47
407919,4079.19
407994,4079.94
408068,4080.68
408142,4081.42
408216,4082.16
408290,4082.9
408363,4083.63
408436,4084.36
408508,4085.08
408580,4085.8
408651,4086.51
408722,4087.22
408791,4087.91
408859,4088.59
408927,4089.27
408993,4089.93
409061,4090.61
409128,4091.28
409194,4091.94
409260,4092.6
409328,4093.28
409398,4093.98
409469,4094.69
409537,4095.37
409606,4096.06
409673,4096.73
409740,4097.4
409804,4098.04
409868,4098.68
409932,4099.32
409995,4099.95
410059,4100.59
410121,4101.21
410185,4101.85
410250,4102.5
410315,4103.15
410379,4103.79
410445,4104.45
410510,4105.1
410575,4105.75
410640,4106.4
410704,4107.04
410769,4107.69
410833,4108.33
410896,4108.96
410960,4109.6
411022,4110.22
411083,4110.83
411145,4111.45
411207,4112.07
411268,4112.68
411329,4113.29
411390,4113.9
411451,4114.51
411511,4115.11
411571,4115.71
411631,4116.31
411692,4116.92
411754,4117.54
411818,4118.18
411882,4118.82
411947,4119.47
412012,4120.12
412075,4120.75
412138,4121.38
412199,4121.99
412260,4122.6
412321,4123.21
412383,4123.83
412447,4124.47
412511,4125.11
412576,4125.76
412644,4126.44
412715,4127.15
412787,4127.87
412854,4128.54
412921,4129.21
412987,4129.87
413054,4130.54
413122,4131.22
413189,4131.89
413255,4132.55
413323,4133.23
413391,4133.91
413459,4134.59
413525,4135.25
413591,4135.91
413656,4136.56
413721,4137.21
413786,4137.86
413851,4138.51
413916,4139.16
413982,4139.82
414050,4140.5
414120,4141.2
414193,4141.93
414270,4142.7
414348,4143.48
414420,4144.2
414491,4144.91
414560,4145.6
414629,4146.29
414697,4146.97
414767,4147.67
414836,4148.36
414904,4149.04
414973,4149.73
415041,4150.41
415111,4151.11
415182,4151.82
415254,4152.54
415326,4153.26
415399,4153.99
415473,4154.73
415548,4155.48
415623,4156.23
415698,4156.98
415773,4157.73
415848,4158.48
415924,4159.24
415998,4159.98
416073,4160.73
416148,4161.48
416222,4162.22
416297,4162.97
416369,4163.69
416438,4164.38
416508,4165.08
416577,4165.77
416644,4166.44
416708,4167.08
416771,4167.71
416834,4168.34
416898,4168.98
416964,4169.64
417033,4170.33
417104,4171.04
417177,4171.77
417253,4172.53
417329,4173.29
417400,4174.0
417469,4174.69
417536,4175.36
417603,4176.03
417669,4176.69
417734,4177.34
417799,4177.99
417865,4178.65
417930,4179.3
417995,4179.95
418061,4180.61
418127,4181.27
418193,4181.93
418260,4182.6
418328,4183.28
418396,4183.96
418463,4184.63
418530,4185.3
418598,4185.98
418667,4186.67
418734,4187.34
418802,4188.02
418870,4188.7
418938,4189.38
419008,4190.08
419079,4190.79
419154,4191.54
419228,4192.28
419305,4193.05
419383,4193.83
419455,4194.55
419527,4195.27
419607,4196.07
419688,4196.88
419760,4197.6
419832,4198.32
419903,4199.03
419974,4199.74
420044,4200.44
420112,4201.12
420177,4201.77
420241,4202.41
420305,4203.05
420372,4203.72
420438,4204.38
420505,4205.05
420572,4205.72
420640,4206.4
420707,4207.07
420773,4207.73
420841,4208.41
420909,4209.09
420978,4209.78
421047,4210.47
421114,4211.14
421182,4211.82
421250,4212.5
421319,4213.19
421387,4213.87
421456,4214.56
421526,4215.26
421596,4215.96
421664,4216.64
421732,4217.32
421808,4218.08
421881,4218.81
421955,4219.55
422031,4220.31
422103,4221.03
422175,4221.75
422252,4222.52
422325,4223.25
422398,4223.98
422469,4224.69
422540,4225.4
422609,4226.09
422680,4226.8
422750,4227.5
422821,4228.21
422890,4228.9
422958,4229.58
423026,4230.26
423101,4231.01
423178,4231.78
423254,4232.54
423332,4233.32
423404,4234.04
423476,4234.76
423548,4235.48
423617,4236.17
423684,4236.84
423750,4237.5
423816,4238.16
423882,4238.82
423949,4239.49
424015,4240.15
424081,4240.81
424149,4241.49
424218,4242.18
424286,4242.86
424354,4243.54
424423,4244.23
424492,4244.92
424561,4245.61
424631,4246.31
424708,4247.08
424782,4247.82
424860,4248.6
424935,4249.35
425009,4250.09
425083,4250.83
425156,4251.56
425228,4252.28
425301,4253.01
425373,4253.73
425444,4254.44
425514,4255.14
425585,4255.85
425655,4256.55
425726,4257.26
425797,4257.97
425867,4258.67
425936,4259.36
426004,4260.04
426073,4260.73
426141,4261.41
426208,4262.08
426275,4262.75
426343,4263.43
426410,4264.1
426476,4264.76
426542,4265.42
426609,4266.09
426676,4266.76
426742,4267.42
426808,4268.08
426875,4268.75
426943,4269.43
427012,4270.12
427081,4270.81
427152,4271.52
427225,4272.25
427297,4272.97
427366,4273.66
427434,4274.34
427500,4275.0
427567,4275.67
427634,4276.34
427700,4277.0
427767,4277.67
427834,4278.34
427901,4279.01
427968,4279.68
428039,4280.39
428112,4281.12
428187,4281.87
428263,4282.63
428338,4283.38
428415,4284.15
428492,4284.92
428568,4285.68
428644,4286.44
428719,4287.19
428793,4287.93
428867,4288.67
428940,4289.4
429013,4290.13
429085,4290.85
429156,4291.56
429224,4292.24
429292,4292.92
429361,4293.61
429429,4294.29
429495,4294.95
429560,4295.6
429626,4296.26
429693,4296.93
429760,4297.6
429826,4298.26
429893,4298.93
429960,4299.6
430026,4300.26
430092,4300.92
430158,4301.58
430225,4302.25
430292,4302.92
430360,4303.6
430428,4304.28
430499,4304.99
430573,4305.73
430648,4306.48
430725,4307.25
430804,4308.04
430881,4308.81
430958,4309.58
431036,4310.36
431116,4311.16
431196,4311.96
431277,4312.77
431356,4313.56
431437,4314.37
431517,4315.17
431599,4315.99
431681,4316.81
431760,4317.6
431838,4318.38
431917,4319.17
431998,4319.98
432080,4320.8
432162,4321.62
432242,4322.42
432320,4323.2
432395,4323.95
432469,4324.69
432542,4325.42
432615,4326.15
432689,4326.89
432763,4327.63
432837,4328.37
432912,4329.12
432986,4329.86
433058,4330.58
433128,4331.28
433197,4331.97
433265,4332.65
433331,4333.31
433399,4333.99
433468,4334.68
433540,4335.4
433611,4336.11
433694,4336.94
433778,4337.78
433854,4338.54
433929,4339.29
434005,4340.05
434083,4340.83
434161,4341.61
434238,4342.38
434314,4343.14
434391,4343.91
434466,4344.66
434543,4345.43
434620,4346.2
434696,4346.96
434771,4347.71
434848,4348.48
434924,4349.24
435000,4350.0
435078,4350.78
435155,4351.55
435234,4352.34
435313,4353.13
435394,4353.94
435474,4354.74
435550,4355.5
435625,4356.25
435700,4357.0
435776,4357.76
435852,4358.52
435926,4359.26
436001,4360.01
436075,4360.75
436155,4361.55
436233,4362.33
436310,4363.1
436387,4363.87
436461,4364.61
436533,4365.33
436601,4366.01
436667,4366.67
436732,4367.32
436797,4367.97
436862,4368.62
436926,4369.26
436991,4369.91
437057,4370.57
437123,4371.23
437190,4371.9
437257,4372.57
437324,4373.24
437394,4373.94
437465,4374.65
437538,4375.38
437614,4376.14
437693,4376.93
437774,4377.74
437854,4378.54
437934,4379.34
438014,4380.14
438094,4380.94
438172,4381.72
438249,4382.49
438326,4383.26
438403,4384.03
438480,4384.8
438560,4385.6
438638,4386.38
438719,4387.19
438800,4388.0
438881,4388.81
438959,4389.59
439036,4390.36
439112,4391.12
439190,4391.9
439268,4392.68
439346,4393.46
439421,4394.21
439498,4394.98
439572,4395.72
439644,4396.44
439715,4397.15
439786,4397.86
439856,4398.56
439925,4399.25
439996,4399.96
440068,4400.68
440139,4401.39
440209,4402.09
440280,4402.8
440351,4403.51
440422,4404.22
440490,4404.9
440557,4405.57
440623,4406.23
440689,4406.89
440754,4407.54
440818,4408.18
440882,4408.82
440948,4409.48
441013,4410.13
441077,4410.77
441143,4411.43
441210,4412.1
441280,4412.8
441351,4413.51
441423,4414.23
441510,4415.1
441598,4415.98
441675,4416.75
441751,4417.51
441827,4418.27
441906,4419.06
441984,4419.84
442060,4420.6
442141,4421.41
442222,4422.22
442304,4423.04
442384,4423.84
442463,4424.63
442543,4425.43
442619,4426.19
442694,4426.94
442768,4427.68
442842,4428.42
442915,4429.15
442987,4429.87
443059,4430.59
443131,4431.31
443204,4432.04
443276,4432.76
443348,4433.48
443419,4434.19
443492,4434.92
443566,4435.66
443642,4436.42
443717,4437.17
443795,4437.95
443876,4438.76
443956,4439.56
444034,4440.34
444111,4441.11
444190,4441.9
444268,4442.68
444345,4443.45
444421,4444.21
444498,4444.98
444577,4445.77
444658,4446.58
444735,4447.35
444809,4448.09
444882,4448.82
444955,4449.55
445027,4450.27
445098,4450.98
445167,4451.67
445236,4452.36
445306,4453.06
445378,4453.78
445449,4454.49
445520,4455.2
445593,4455.93
445675,4456.75
445757,4457.57
445831,4458.31
445904,4459.04
445978,4459.78
446052,4460.52
446127,4461.27
446203,4462.03
446277,4462.77
446353,4463.53
446429,4464.29
446505,4465.05
446580,4465.8
446656,4466.56
446731,4467.31
446808,4468.08
446886,4468.86
446962,4469.62
447038,4470.38
447113,4471.13
447189,4471.89
447264,4472.64
447339,4473.39
447412,4474.12
447487,4474.87
447560,4475.6
447634,4476.34
447705,4477.05
447775,4477.75
447845,4478.45
447915,4479.15
447984,4479.84
448052,4480.52
448118,4481.18
448186,4481.86
448254,4482.54
448324,4483.24
448394,4483.94
448462,4484.62
448531,4485.31
448600,4486.0
448671,4486.71
448741,4487.41
448809,4488.09
448877,4488.77
448948,4489.48
449021,4490.21
449092,4490.92
449162,4491.62
449231,4492.31
449302,4493.02
449374,4493.74
449445,4494.45
449516,4495.16
449587,4495.87
449659,4496.59
449732,4497.32
449805,4498.05
449877,4498.77
449960,4499.6
450044,4500.44
450121,4501.21
450196,4501.96
450272,4502.72
450349,4503.49
450426,4504.26
450501,4505.01
450575,4505.75
450648,4506.48
450721,4507.21
450795,4507.95
450868,4508.68
450942,4509.42
451013,4510.13
451084,4510.84
451155,4511.55
451225,4512.25
451295,4512.95
451364,4513.64
451432,4514.32
451502,4515.02
451573,4515.73
451644,4516.44
451716,4517.16
451785,4517.85
451854,4518.54
451923,4519.23
451991,4519.91
452058,4520.58
452127,4521.27
452197,4521.97
452267,4522.67
452338,4523.38
452407,4524.07
452476,4524.76
452547,4525.47
452628,4526.28
452710,4527.1
452785,4527.85
452857,4528.57
452930,4529.3
453003,4530.03
453075,4530.75
453144,4531.44
453213,4532.13
453284,4532.84
453358,4533.58
453430,4534.3
453501,4535.01
453574,4535.74
453650,4536.5
453727,4537.27
453802,4538.02
453876,4538.76
453950,4539.5
454030,4540.3
454111,4541.11
454188,4541.88
454264,4542.64
454341,4543.41
454414,4544.14
454485,4544.85
454555,4545.55
454625,4546.25
454695,4546.95
454766,4547.66
454838,4548.38
454911,4549.11
454984,4549.84
455058,4550.58
455133,4551.33
455209,4552.09
455280,4552.8
455349,4553.49
455419,4554.19
455491,4554.91
455561,4555.61
455631,4556.31
455699,4556.99
455769,4557.69
455839,4558.39
455909,4559.09
455979,4559.79
456047,4560.47
456115,4561.15
456182,4561.82
456250,4562.5
456316,4563.16
456383,4563.83
456451,4564.51
456522,4565.22
456594,4565.94
456665,4566.65
456735,4567.35
456807,4568.07
456880,4568.8
456953,4569.53
457025,4570.25
457097,4570.97
457170,4571.7
457249,4572.49
457329,4573.29
457399,4573.99
457466,4574.66
457534,4575.34
457602,4576.02
457672,4576.72
457742,4577.42
457809,4578.09
457877,4578.77
457944,4579.44
458011,4580.11
458077,4580.77
458142,4581.42
458208,4582.08
458274,4582.74
458341,4583.41
458409,4584.09
458476,4584.76
458547,4585.47
458619,4586.19
458689,4586.89
458759,4587.59
458829,4588.29
458900,4589.0
458971,4589.71
459041,4590.41
459109,4591.09
459177,4591.77
459245,4592.45
459314,4593.14
459384,4593.84
459452,4594.52
459522,4595.22
459592,4595.92
459663,4596.63
459733,4597.33
459802,4598.02
459870,4598.7
459939,4599.39
460009,4600.09
460077,4600.77
460145,4601.45
460213,4602.13
460283,4602.83
460356,4603.56
460427,4604.27
460500,4605.0
460573,4605.73
460643,4606.43
460711,4607.11
460777,4607.77
460842,4608.42
460907,4609.07
460973,4609.73
461039,4610.39
461105,4611.05
461170,4611.7
461236,4612.36
461304,4613.04
461372,4613.72
461439,4614.39
461507,4615.07
461576,4615.76
461646,4616.46
461716,4617.16
461783,4617.83
461851,4618.51
461929,4619.29
462004,4620.04
462080,4620.8
462151,4621.51
462221,4622.21
462292,4622.92
462364,4623.64
462437,4624.37
462509,4625.09
462578,4625.78
462648,4626.48
462718,4627.18
462788,4627.88
462864,4628.64
462941,4629.41
463011,4630.11
463083,4630.83
463156,4631.56
463227,4632.27
463295,4632.95
463361,4633.61
463428,4634.28
463495,4634.95
463561,4635.61
463627,4636.27
463697,4636.97
463768,4637.68
463836,4638.36
463905,4639.05
463975,4639.75
464042,4640.42
464108,4641.08
464174,4641.74
464241,4642.41
464310,4643.1
464377,4643.77
464445,4644.45
464515,4645.15
464585,4645.85
464655,4646.55
464723,4647.23
464792,4647.92
464862,4648.62
464932,4649.32
465002,4650.02
465069,4650.69
465136,4651.36
465209,4652.09
465282,4652.82
465353,4653.53
465422,4654.22
465489,4654.89
465558,4655.58
465632,4656.32
465706,4657.06
465778,4657.78
465848,4658.48
465920,4659.2
465992,4659.92
466066,4660.66
466138,4661.38
466207,4662.07
466275,4662.75
466344,4663.44
466413,4664.13
466480,4664.8
466546,4665.46
466613,4666.13
466679,4666.79
466747,4667.47
466814,4668.14
466881,4668.81
466947,4669.47
467016,4670.16
467087,4670.87
467157,4671.57
467226,4672.26
467294,4672.94
467365,4673.65
467436,4674.36
467507,4675.07
467576,4675.76
467646,4676.46
467717,4677.17
467788,4677.88
467858,4678.58
467927,4679.27
467997,4679.97
468068,4680.68
468140,4681.4
468211,4682.11
468281,4682.81
468350,4683.5
468422,4684.22
468495,4684.95
468569,4685.69
468639,4686.39
468708,4687.08
468779,4687.79
468849,4688.49
468920,4689.2
468989,4689.89
469058,4690.58
469128,4691.28
469198,4691.98
469268,4692.68
469335,4693.35
469403,4694.03
469473,4694.73
469543,4695.43
469614,4696.14
469683,4696.83
469751,4697.51
469821,4698.21
469892,4698.92
469962,4699.62
470031,4700.31
470101,4701.01
470171,4701.71
470243,4702.43
470314,4703.14
470382,4703.82
470450,4704.5
470519,4705.19
470588,4705.88
470657,4706.57
470725,4707.25
470791,4707.91
470858,4708.58
470926,4709.26
470995,4709.95
471062,4710.62
471129,4711.29
471196,4711.96
471264,4712.64
471331,4713.31
471398,4713.98
471467,4714.67
471537,4715.37
471607,4716.07
471674,4716.74
471741,4717.41
471809,4718.09
471877,4718.77
471945,4719.45
472012,4720.12
472079,4720.79
472145,4721.45
472213,4722.13
472281,4722.81
472349,4723.49
472416,4724.16
472483,4724.83
472550,4725.5
472618,4726.18
472687,4726.87
472756,4727.56
472823,4728.23
472892,4728.92
472962,4729.62
473034,4730.34
473107,4731.07
473176,4731.76
473245,4732.45
473314,4733.14
473384,4733.84
473454,4734.54
473522,4735.22
473590,4735.9
473659,4736.59
473732,4737.32
473805,4738.05
473876,4738.76
473946,4739.46
474017,4740.17
474089,4740.89
474161,4741.61
474230,4742.3
474298,4742.98
474365,4743.65
474432,4744.32
474500,4745.0
474569,4745.69
474637,4746.37
474705,4747.05
474772,4747.72
474842,4748.42
474913,4749.13
474984,4749.84
475054,4750.54
475123,4751.23
475194,4751.94
475268,4752.68
475341,4753.41
475411,4754.11
475482,4754.82
475553,4755.53
475623,4756.23
475694,4756.94
475764,4757.64
475832,4758.32
475898,4758.98
475966,4759.66
476034,4760.34
476102,4761.02
476169,4761.69
476237,4762.37
476306,4763.06
476377,4763.77
476448,4764.48
476517,4765.17
476590,4765.9
476667,4766.67
476740,4767.4
476811,4768.11
476881,4768.81
476952,4769.52
477023,4770.23
477093,4770.93
477161,4771.61
477230,4772.3
477299,4772.99
477368,4773.68
477437,4774.37
477505,4775.05
477573,4775.73
477644,4776.44
477716,4777.16
477788,4777.88
477858,4778.58
477929,4779.29
478000,4780.0
478071,4780.71
478141,4781.41
478209,4782.09
478277,4782.77
478344,4783.44
478412,4784.12
478479,4784.79
478545,4785.45
478613,4786.13
478682,4786.82
478752,4787.52
478821,4788.21
478889,4788.89
478960,4789.6
479034,4790.34
479108,4791.08
479179,4791.79
479249,4792.49
479318,4793.18
479387,4793.87
479455,4794.55
479523,4795.23
479590,4795.9
479658,4796.58
479726,4797.26
479794,4797.94
479861,4798.61
479929,4799.29
479996,4799.96
480065,4800.65
480132,4801.32
480199,4801.99
480265,4802.65
480332,4803.32
480400,4804.0
480468,4804.68
480535,4805.35
480602,4806.02
480670,4806.7
480739,4807.39
480810,4808.1
480880,4808.8
480949,4809.49
481018,4810.18
481086,4810.86
481154,4811.54
481222,4812.22
481291,4812.91
481360,4813.6
481430,4814.3
481499,4814.99
481571,4815.71
481643,4816.43
481716,4817.16
481788,4817.88
481859,4818.59
481928,4819.28
481998,4819.98
482066,4820.66
482134,4821.34
482202,4822.02
482271,4822.71
482340,4823.4
482411,4824.11
482481,4824.81
482551,4825.51
482621,4826.21
482693,4826.93
482763,4827.63
482832,4828.32
482900,4829.0
482969,4829.69
483039,4830.39
483108,4831.08
483176,4831.76
483243,4832.43
483312,4833.12
483381,4833.81
483450,4834.5
483517,4835.17
483582,4835.82
483649,4836.49
483716,4837.16
483784,4837.84
483851,4838.51
483918,4839.18
483986,4839.86
484054,4840.54
484123,4841.23
484191,4841.91
484258,4842.58
484327,4843.27
484396,4843.96
484465,4844.65
484533,4845.33
484599,4845.99
484667,4846.67
484738,4847.38
484808,4848.08
484877,4848.77
484943,4849.43
485011,4850.11
485079,4850.79
485148,4851.48
485216,4852.16
485283,4852.83
485350,4853.5
485420,4854.2
485489,4854.89
485558,4855.58
485627,4856.27
485699,4856.99
485772,4857.72
485842,4858.42
485911,4859.11
485978,4859.78
486046,4860.46
486114,4861.14
486182,4861.82
486252,4862.52
486322,4863.22
486393,4863.93
486466,4864.66
486536,4865.36
486607,4866.07
486677,4866.77
486748,4867.48
486821,4868.21
486892,4868.92
486961,4869.61
487030,4870.3
487101,4871.01
487173,4871.73
487243,4872.43
487311,4873.11
487378,4873.78
487445,4874.45
487511,4875.11
487578,4875.78
487643,4876.43
487709,4877.09
487776,4877.76
487844,4878.44
487911,4879.11
487977,4879.77
488043,4880.43
488109,4881.09
488176,4881.76
488242,4882.42
488308,4883.08
488374,4883.74
488439,4884.39
488507,4885.07
488575,4885.75
488646,4886.46
488714,4887.14
488780,4887.8
488847,4888.47
488915,4889.15
488983,4889.83
489050,4890.5
489117,4891.17
489186,4891.86
489255,4892.55
489325,4893.25
489393,4893.93
489460,4894.6
489528,4895.28
489598,4895.98
489668,4896.68
489736,4897.36
489805,4898.05
489873,4898.73
489942,4899.42
490010,4900.1
490078,4900.78
490146,4901.46
490214,4902.14
490284,4902.84
490353,4903.53
490421,4904.21
490489,4904.89
490558,4905.58
490628,4906.28
490697,4906.97
490766,4907.66
490835,4908.35
490903,4909.03
490972,4909.72
491040,4910.4
491107,4911.07
491173,4911.73
491241,4912.41
491310,4913.1
491379,4913.79
491448,4914.48
491515,4915.15
491584,4915.84
491654,4916.54
491724,4917.24
491792,4917.92
491860,4918.6
491929,4919.29
492000,4920.0
492071,4920.71
492141,4921.41
492210,4922.1
492279,4922.79
492348,4923.48
492417,4924.17
492485,4924.85
492552,4925.52
492619,4926.19
492688,4926.88
492757,4927.57
492824,4928.24
492889,4928.89
492955,4929.55
493022,4930.22
493091,4930.91
493158,4931.58
493224,4932.24
493292,4932.92
493360,4933.6
493429,4934.29
493496,4934.96
493563,4935.63
493633,4936.33
493704,4937.04
493775,4937.75
493842,4938.42
493907,4939.07
493971,4939.71
494035,4940.35
494100,4941.0
494165,4941.65
494231,4942.31
494298,4942.98
494367,4943.67
494440,4944.4
494512,4945.12
494580,4945.8
494651,4946.51
494724,4947.24
494796,4947.96
494866,4948.66
494936,4949.36
495006,4950.06
495076,4950.76
495145,4951.45
495214,4952.14
495280,4952.8
495348,4953.48
495416,4954.16
495483,4954.83
495550,4955.5
495615,4956.15
495680,4956.8
495745,4957.45
495811,4958.11
495879,4958.79
495946,4959.46
496015,4960.15
496085,4960.85
496157,4961.57
496228,4962.28
496298,4962.98
496367,4963.67
496436,4964.36
496505,4965.05
496573,4965.73
496640,4966.4
496706,4967.06
496773,4967.73
496842,4968.42
496909,4969.09
496976,4969.76
497044,4970.44
497114,4971.14
497184,4971.84
497253,4972.53
497322,4973.22
497388,4973.88
497456,4974.56
497524,4975.24
497595,4975.95
497665,4976.65
497733,4977.33
497802,4978.02
497872,4978.72
497943,4979.43
498012,4980.12
498080,4980.8
498148,4981.48
498217,4982.17
498287,4982.87
498354,4983.54
498420,4984.2
498485,4984.85
498551,4985.51
498619,4986.19
498686,4986.86
498752,4987.52
498818,4988.18
498884,4988.84
498951,4989.51
499019,4990.19
499088,4990.88
499154,4991.54
499221,4992.21
499288,4992.88
499355,4993.55
499421,4994.21
499488,4994.88
499557,4995.57
499627,4996.27
499697,4996.97
499765,4997.65
499834,4998.34
499903,4999.03
499973,4999.73
500042,5000.42
500110,5001.1
500178,5001.78
500247,5002.47
500316,5003.16
500386,5003.86
500456,5004.56
500526,5005.26
500595,5005.95
500664,5006.64
500733,5007.33
500802,5008.02
500870,5008.7
500939,5009.39
501009,5010.09
501080,5010.8
501150,5011.5
501218,5012.18
501285,5012.85
501353,5013.53
501421,5014.21
501488,5014.88
501554,5015.54
501621,5016.21
501690,5016.9
501759,5017.59
501825,5018.25
501889,5018.89
501953,5019.53
502016,5020.16
502077,5020.77
502139,5021.39
502200,5022.0
502261,5022.61
502323,5023.23
502387,5023.87
502450,5024.5
502514,5025.14
502579,5025.79
502646,5026.46
502715,5027.15
502783,5027.83
502850,5028.5
502920,5029.2
502992,5029.92
503063,5030.63
503133,5031.33
503201,5032.01
503272,5032.72
503343,5033.43
503415,5034.15
503484,5034.84
503553,5035.53
503623,5036.23
503696,5036.96
503768,5037.68
503838,5038.38
503908,5039.08
503980,5039.8
504052,5040.52
504123,5041.23
504194,5041.94
504263,5042.63
504333,5043.33
504409,5044.09
504485,5044.85
504558,5045.58
504630,5046.3
504700,5047.0
504773,5047.73
504848,5048.48
504923,5049.23
504994,5049.94
505064,5050.64
505131,5051.31
505196,5051.96
505262,5052.62
505328,5053.28
505392,5053.92
505458,5054.58
505525,5055.25
505593,5055.93
505661,5056.61
505729,5057.29
505797,5057.97
505867,5058.67
505937,5059.37
506006,5060.06
506073,5060.73
506141,5061.41
506211,5062.11
506280,5062.8
506349,5063.49
506415,5064.15
506482,5064.82
506550,5065.5
506620,5066.2
506688,5066.88
506756,5067.56
506824,5068.24
506895,5068.95
506967,5069.67
507036,5070.36
507103,5071.03
507171,5071.71
507240,5072.4
507310,5073.1
507379,5073.79
507448,5074.48
507517,5075.17
507588,5075.88
507659,5076.59
507728,5077.28
507798,5077.98
507867,5078.67
507936,5079.36
508005,5080.05
508074,5080.74
508142,5081.42
508210,5082.1
508279,5082.79
508348,5083.48
508417,5084.17
508485,5084.85
508555,5085.55
508626,5086.26
508697,5086.97
508767,5087.67
508837,5088.37
508907,5089.07
508977,5089.77
509048,5090.48
509117,5091.17
509186,5091.86
509255,5092.55
509326,5093.26
509399,5093.99
509469,5094.69
509539,5095.39
509610,5096.1
509685,5096.85
509758,5097.58
509829,5098.29
509899,5098.99
509970,5099.7
510041,5100.41
510112,5101.12
510182,5101.82
510251,5102.51
510320,5103.2
510388,5103.88
510458,5104.58
510525,5105.25
510592,5105.92
510659,5106.59
510728,5107.28
510798,5107.98
510867,5108.67
510936,5109.36
511004,5110.04
511073,5110.73
511143,5111.43
511212,5112.12
511282,5112.82
511351,5113.51
511421,5114.21
511490,5114.9
511558,5115.58
511626,5116.26
511692,5116.92
511759,5117.59
511827,5118.27
511894,5118.94
511960,5119.6
512027,5120.27
512095,5120.95
512163,5121.63
512232,5122.32
512300,5123.0
512367,5123.67
512436,5124.36
512505,5125.05
512575,5125.75
512644,5126.44
512713,5127.13
512783,5127.83
512853,5128.53
512921,5129.21
512990,5129.9
513060,5130.6
513131,5131.31
513201,5132.01
513270,5132.7
513339,5133.39
513412,5134.12
513485,5134.85
513555,5135.55
513623,5136.23
513691,5136.91
513759,5137.59
513827,5138.27
513894,5138.94
513962,5139.62
514028,5140.28
514096,5140.96
514164,5141.64
514232,5142.32
514300,5143.0
514368,5143.68
514436,5144.36
514504,5145.04
514573,5145.73
514641,5146.41
514709,5147.09
514778,5147.78
514847,5148.47
514916,5149.16
514984,5149.84
515053,5150.53
515122,5151.22
515193,5151.93
515262,5152.62
515332,5153.32
515400,5154.0
515470,5154.7
515541,5155.41
515610,5156.1
515679,5156.79
515749,5157.49
515819,5158.19
515888,5158.88
515957,5159.57
516025,5160.25
516095,5160.95
516166,5161.66
516237,5162.37
516305,5163.05
516372,5163.72
516439,5164.39
516506,5165.06
516575,5165.75
516642,5166.42
516710,5167.1
516780,5167.8
516851,5168.51
516922,5169.22
516991,5169.91
517062,5170.62
517132,5171.32
517202,5172.02
517272,5172.72
517341,5173.41
517409,5174.09
517477,5174.77
517545,5175.45
517613,5176.13
517680,5176.8
517746,5177.46
517812,5178.12
517879,5178.79
517946,5179.46
518013,5180.13
518080,5180.8
518149,5181.49
518218,5182.18
518289,5182.89
518358,5183.58
518426,5184.26
518493,5184.93
518562,5185.62
518630,5186.3
518697,5186.97
518764,5187.64
518833,5188.33
518901,5189.01
518970,5189.7
519038,5190.38
519103,5191.03
519170,5191.7
519238,5192.38
519306,5193.06
519374,5193.74
519442,5194.42
519510,5195.1
519581,5195.81
519651,5196.51
519719,5197.19
519787,5197.87
519856,5198.56
519926,5199.26
519996,5199.96
520066,5200.66
520136,5201.36
520205,5202.05
520275,5202.75
520346,5203.46
520414,5204.14
520482,5204.82
520550,5205.5
520618,5206.18
520685,5206.85
520753,5207.53
520819,5208.19
520886,5208.86
520953,5209.53
521022,5210.22
521091,5210.91
521159,5211.59
521227,5212.27
521296,5212.96
521367,5213.67
521440,5214.4
521508,5215.08
521576,5215.76
521646,5216.46
521716,5217.16
521784,5217.84
521853,5218.53
521923,5219.23
521997,5219.97
522069,5220.69
522140,5221.4
522215,5222.15
522290,5222.9
522361,5223.61
522432,5224.32
522501,5225.01
522571,5225.71
522640,5226.4
522708,5227.08
522777,5227.77
522845,5228.45
522914,5229.14
522978,5229.78
523043,5230.43
523113,5231.13
523184,5231.84
523250,5232.5
523317,5233.17
523385,5233.85
523452,5234.52
523520,5235.2
523590,5235.9
523655,5236.55
523721,5237.21
523791,5237.91
523862,5238.62
523931,5239.31
523996,5239.96
524062,5240.62
524133,5241.33
524204,5242.04
524276,5242.76
524349,5243.49
524418,5244.18
524486,5244.86
524554,5245.54
524623,5246.23
524691,5246.91
524758,5247.58
524824,5248.24
524891,5248.91
524959,5249.59
525027,5250.27
525095,5250.95
525161,5251.61
525228,5252.28
525296,5252.96
525363,5253.63
525430,5254.3
525497,5254.97
525565,5255.65
525633,5256.33
525701,5257.01
525770,5257.7
525839,5258.39
525911,5259.11
525982,5259.82
526054,5260.54
526125,5261.25
526195,5261.95
526267,5262.67
526339,5263.39
526408,5264.08
526476,5264.76
526544,5265.44
526613,5266.13
526683,5266.83
526751,5267.51
526819,5268.19
526888,5268.88
526959,5269.59
527030,5270.3
527100,5271.0
527168,5271.68
527237,5272.37
527307,5273.07
527376,5273.76
527443,5274.43
527510,5275.1
527577,5275.77
527644,5276.44
527711,5277.11
527778,5277.78
527844,5278.44
527911,5279.11
527979,5279.79
528047,5280.47
528115,5281.15
528183,5281.83
528252,5282.52
528322,5283.22
528392,5283.92
528461,5284.61
528529,5285.29
528597,5285.97
528666,5286.66
528733,5287.33
528799,5287.99
528867,5288.67
528934,5289.34
529003,5290.03
529073,5290.73
529142,5291.42
529213,5292.13
529285,5292.85
529352,5293.52
529420,5294.2
529487,5294.87
529556,5295.56
529623,5296.23
529690,5296.9
529758,5297.58
529826,5298.26
529892,5298.92
529960,5299.6
530029,5300.29
530098,5300.98
530166,5301.66
530234,5302.34
530305,5303.05
530377,5303.77
530445,5304.45
530514,5305.14
530582,5305.82
530651,5306.51
530720,5307.2
530789,5307.89
530858,5308.58
530926,5309.26
530997,5309.97
531069,5310.69
531138,5311.38
531206,5312.06
531274,5312.74
531343,5313.43
531413,5314.13
531481,5314.81
531549,5315.49
531618,5316.18
531686,5316.86
531754,5317.54
531820,5318.2
531887,5318.87
531954,5319.54
532022,5320.22
532089,5320.89
532155,5321.55
532220,5322.2
532287,5322.87
532355,5323.55
532423,5324.23
532491,5324.91
532558,5325.58
532627,5326.27
532698,5326.98
532767,5327.67
532835,5328.35
532904,5329.04
532973,5329.73
533042,5330.42
533110,5331.1
533176,5331.76
533243,5332.43
533311,5333.11
533379,5333.79
533447,5334.47
533515,5335.15
533584,5335.84
533653,5336.53
533723,5337.23
533791,5337.91
533859,5338.59
533929,5339.29
533998,5339.98
534066,5340.66
534135,5341.35
534202,5342.02
534270,5342.7
534338,5343.38
534406,5344.06
534473,5344.73
534539,5345.39
534606,5346.06
534673,5346.73
534741,5347.41
534807,5348.07
534875,5348.75
534944,5349.44
535015,5350.15
535083,5350.83
535150,5351.5
535217,5352.17
535284,5352.84
535351,5353.51
535419,5354.19
535485,5354.85
535551,5355.51
535618,5356.18
535687,5356.87
535756,5357.56
535823,5358.23
535891,5358.91
535959,5359.59
536029,5360.29
536096,5360.96
536163,5361.63
536230,5362.3
536298,5362.98
536366,5363.66
536434,5364.34
536501,5365.01
536568,5365.68
536636,5366.36
536704,5367.04
536772,5367.72
536838,5368.38
536905,5369.05
536974,5369.74
537043,5370.43
537111,5371.11
537179,5371.79
537246,5372.46
537315,5373.15
537383,5373.83
537451,5374.51
537518,5375.18
537586,5375.86
537654,5376.54
537724,5377.24
537792,5377.92
537860,5378.6
537928,5379.28
537996,5379.96
538066,5380.66
538134,5381.34
538202,5382.02
538271,5382.71
538341,5383.41
538412,5384.12
538480,5384.8
538547,5385.47
538615,5386.15
538684,5386.84
538752,5387.52
538820,5388.2
538887,5388.87
538955,5389.55
539022,5390.22
539089,5390.89
539155,5391.55
539222,5392.22
539289,5392.89
539358,5393.58
539427,5394.27
539494,5394.94
539562,5395.62
539630,5396.3
539699,5396.99
539769,5397.69
539837,5398.37
539905,5399.05
539974,5399.74
540042,5400.42
540109,5401.09
540175,5401.75
540242,5402.42
540310,5403.1
540377,5403.77
540443,5404.43
540508,5405.08
540575,5405.75
540643,5406.43
540710,5407.1
540776,5407.76
540843,5408.43
540912,5409.12
540980,5409.8
541048,5410.48
541116,5411.16
541184,5411.84
541254,5412.54
541321,5413.21
541388,5413.88
541454,5414.54
541522,5415.22
541590,5415.9
541657,5416.57
541722,5417.22
541789,5417.89
541857,5418.57
541925,5419.25
541993,5419.93
542059,5420.59
542125,5421.25
542192,5421.92
542259,5422.59
542324,5423.24
542390,5423.9
542456,5424.56
542523,5425.23
542590,5425.9
542655,5426.55
542721,5427.21
542786,5427.86
542851,5428.51
542915,5429.15
542980,5429.8
543044,5430.44
543109,5431.09
543176,5431.76
543244,5432.44
543310,5433.1
543376,5433.76
543442,5434.42
543509,5435.09
543576,5435.76
543643,5436.43
543712,5437.12
543781,5437.81
543849,5438.49
543916,5439.16
543984,5439.84
544052,5440.52
544120,5441.2
544188,5441.88
544253,5442.53
544318,5443.18
544385,5443.85
544451,5444.51
544516,5445.16
544580,5445.8
544645,5446.45
544711,5447.11
544777,5447.77
544842,5448.42
544908,5449.08
544976,5449.76
545046,5450.46
545115,5451.15
545183,5451.83
545251,5452.51
545320,5453.2
545389,5453.89
545458,5454.58
545527,5455.27
545594,5455.94
545662,5456.62
545729,5457.29
545798,5457.98
545866,5458.66
545933,5459.33
546000,5460.0
546069,5460.69
546137,5461.37
546204,5462.04
546270,5462.7
546337,5463.37
546404,5464.04
546472,5464.72
546539,5465.39
546606,5466.06
546674,5466.74
546742,5467.42
546810,5468.1
546878,5468.78
546944,5469.44
547011,5470.11
547080,5470.8
547147,5471.47
547215,5472.15
547282,5472.82
547349,5473.49
547419,5474.19
547488,5474.88
547556,5475.56
547624,5476.24
547692,5476.92
547762,5477.62
547832,5478.32
547901,5479.01
547969,5479.69
548037,5480.37
548106,5481.06
548176,5481.76
548247,5482.47
548316,5483.16
548385,5483.85
548455,5484.55
548525,5485.25
548594,5485.94
548662,5486.62
548728,5487.28
548794,5487.94
548862,5488.62
548929,5489.29
548996,5489.96
549062,5490.62
549130,5491.3
549198,5491.98
549268,5492.68
549336,5493.36
549404,5494.04
549473,5494.73
549543,5495.43
549611,5496.11
549677,5496.77
549744,5497.44
549814,5498.14
549882,5498.82
549951,5499.51
550018,5500.18
550086,5500.86
550155,5501.55
550225,5502.25
550293,5502.93
550360,5503.6
550427,5504.27
550494,5504.94
550562,5505.62
550628,5506.28
550694,5506.94
550760,5507.6
550828,5508.28
550896,5508.96
550963,5509.63
551029,5510.29
551097,5510.97
551165,5511.65
551234,5512.34
551301,5513.01
551367,5513.67
551435,5514.35
551504,5515.04
551572,5515.72
551640,5516.4
551705,5517.05
551773,5517.73
551840,5518.4
551906,5519.06
551972,5519.72
552038,5520.38
552105,5521.05
552172,5521.72
552238,5522.38
552303,5523.03
552369,5523.69
552435,5524.35
552501,5525.01
552568,5525.68
552633,5526.33
552700,5527.0
552767,5527.67
552836,5528.36
552903,5529.03
552969,5529.69
553035,5530.35
553103,5531.03
553171,5531.71
553238,5532.38
553304,5533.04
553371,5533.71
553438,5534.38
553507,5535.07
553575,5535.75
553641,5536.41
553708,5537.08
553776,5537.76
553845,5538.45
553913,5539.13
553979,5539.79
554048,5540.48
554118,5541.18
554188,5541.88
554255,5542.55
554324,5543.24
554393,5543.93
554463,5544.63
554530,5545.3
554596,5545.96
554663,5546.63
554730,5547.3
554797,5547.97
554863,5548.63
554929,5549.29
554995,5549.95
555062,5550.62
555130,5551.3
555197,5551.97
555263,5552.63
555330,5553.3
555399,5553.99
555468,5554.68
555536,5555.36
555604,5556.04
555672,5556.72
555741,5557.41
555811,5558.11
555880,5558.8
555947,5559.47
556015,5560.15
556082,5560.82
556149,5561.49
556213,5562.13
556278,5562.78
556343,5563.43
556408,5564.08
556473,5564.73
556537,5565.37
556603,5566.03
556668,5566.68
556736,5567.36
556804,5568.04
556871,5568.71
556940,5569.4
557010,5570.1
557082,5570.82
557151,5571.51
557219,5572.19
557289,5572.89
557358,5573.58
557426,5574.26
557493,5574.93
557560,5575.6
557628,5576.28
557694,5576.94
557761,5577.61
557827,5578.27
557893,5578.93
557961,5579.61
558029,5580.29
558095,5580.95
558163,5581.63
558230,5582.3
558299,5582.99
558371,5583.71
558441,5584.41
558509,5585.09
558578,5585.78
558648,5586.48
558718,5587.18
558787,5587.87
558855,5588.55
558923,5589.23
558992,5589.92
559061,5590.61
559130,5591.3
559196,5591.96
559264,5592.64
559333,5593.33
559401,5594.01
559468,5594.68
559533,5595.33
559599,5595.99
559665,5596.65
559732,5597.32
559799,5597.99
559863,5598.63
559929,5599.29
559995,5599.95
560062,5600.62
560128,5601.28
560193,5601.93
560259,5602.59
560326,5603.26
560394,5603.94
560460,5604.6
560526,5605.26
560593,5605.93
560661,5606.61
560730,5607.3
560796,5607.96
560863,5608.63
560930,5609.3
560997,5609.97
561064,5610.64
561130,5611.3
561197,5611.97
561264,5612.64
561331,5613.31
561398,5613.98
561464,5614.64
561530,5615.3
561597,5615.97
561665,5616.65
561732,5617.32
561799,5617.99
561867,5618.67
561935,5619.35
562005,5620.05
562072,5620.72
562140,5621.4
562207,5622.07
562276,5622.76
562345,5623.45
562412,5624.12
562480,5624.8
562549,5625.49
562618,5626.18
562686,5626.86
562754,5627.54
562821,5628.21
562889,5628.89
562956,5629.56
563023,5630.23
563091,5630.91
563159,5631.59
563227,5632.27
563296,5632.96
563362,5633.62
563429,5634.29
563497,5634.97
563565,5635.65
563631,5636.31
563697,5636.97
563762,5637.62
563828,5638.28
563893,5638.93
563959,5639.59
564024,5640.24
564090,5640.9
564156,5641.56
564223,5642.23
564291,5642.91
564357,5643.57
564423,5644.23
564491,5644.91
564560,5645.6
564627,5646.27
564694,5646.94
564761,5647.61
564829,5648.29
564897,5648.97
564964,5649.64
565031,5650.31
565097,5650.97
565164,5651.64
565231,5652.31
565298,5652.98
565363,5653.63
565429,5654.29
565496,5654.96
565564,5655.64
565633,5656.33
565700,5657.0
565767,5657.67
565836,5658.36
565906,5659.06
565976,5659.76
566046,5660.46
566115,5661.15
566185,5661.85
566255,5662.55
566324,5663.24
566391,5663.91
566458,5664.58
566527,5665.27
566595,5665.95
566662,5666.62
566726,5667.26
566791,5667.91
566857,5668.57
566922,5669.22
566986,5669.86
567050,5670.5
567115,5671.15
567180,5671.8
567245,5672.45
567310,5673.1
567375,5673.75
567442,5674.42
567511,5675.11
567580,5675.8
567647,5676.47
567713,5677.13
567780,5677.8
567847,5678.47
567914,5679.14
567980,5679.8
568046,5680.46
568113,5681.13
568182,5681.82
568249,5682.49
568315,5683.15
568382,5683.82
568450,5684.5
568517,5685.17
568582,5685.82
568647,5686.47
568713,5687.13
568779,5687.79
568845,5688.45
568911,5689.11
568976,5689.76
569043,5690.43
569111,5691.11
569179,5691.79
569245,5692.45
569312,5693.12
569380,5693.8
569447,5694.47
569512,5695.12
569577,5695.77
569645,5696.45
569713,5697.13
569781,5697.81
569848,5698.48
569916,5699.16
569985,5699.85
570054,5700.54
570123,5701.23
570190,5701.9
570257,5702.57
570323,5703.23
570390,5703.9
570456,5704.56
570522,5705.22
570587,5705.87
570655,5706.55
570723,5707.23
570791,5707.91
570857,5708.57
570925,5709.25
570994,5709.94
571062,5710.62
571129,5711.29
571196,5711.96
571263,5712.63
571330,5713.3
571396,5713.96
571461,5714.61
571527,5715.27
571593,5715.93
571659,5716.59
571726,5717.26
571791,5717.91
571857,5718.57
571923,5719.23
571988,5719.88
572054,5720.54
572119,5721.19
572184,5721.84
572251,5722.51
572319,5723.19
572385,5723.85
572451,5724.51
572518,5725.18
572585,5725.85
572653,5726.53
572720,5727.2
572785,5727.85
572852,5728.52
572918,5729.18
572986,5729.86
573053,5730.53
573119,5731.19
573186,5731.86
573252,5732.52
573318,5733.18
573384,5733.84
573449,5734.49
573515,5735.15
573581,5735.81
573648,5736.48
573714,5737.14
573780,5737.8
573847,5738.47
573913,5739.13
573980,5739.8
574044,5740.44
574107,5741.07
574171,5741.71
574235,5742.35
574300,5743.0
574364,5743.64
574430,5744.3
574497,5744.97
574565,5745.65
574632,5746.32
574698,5746.98
574765,5747.65
574833,5748.33
574903,5749.03
574971,5749.71
575039,5750.39
575107,5751.07
575176,5751.76
575244,5752.44
575309,5753.09
575374,5753.74
575440,5754.4
575506,5755.06
575572,5755.72
575637,5756.37
575702,5757.02
575768,5757.68
575834,5758.34
575900,5759.0
575965,5759.65
576030,5760.3
576096,5760.96
576162,5761.62
576229,5762.29
576294,5762.94
576360,5763.6
576427,5764.27
576493,5764.93
576559,5765.59
576627,5766.27
576694,5766.94
576760,5767.6
576826,5768.26
576892,5768.92
576957,5769.57
577022,5770.22
577088,5770.88
577154,5771.54
577220,5772.2
577285,5772.85
577352,5773.52
577421,5774.21
577488,5774.88
577555,5775.55
577621,5776.21
577690,5776.9
577759,5777.59
577827,5778.27
577894,5778.94
577961,5779.61
578028,5780.28
578097,5780.97
578165,5781.65
578231,5782.31
578299,5782.99
578368,5783.68
578437,5784.37
578504,5785.04
578572,5785.72
578640,5786.4
578710,5787.1
578779,5787.79
578847,5788.47
578914,5789.14
578981,5789.81
579050,5790.5
579118,5791.18
579184,5791.84
579251,5792.51
579318,5793.18
579388,5793.88
579458,5794.58
579526,5795.26
579594,5795.94
579662,5796.62
579730,5797.3
579798,5797.98
579864,5798.64
579929,5799.29
579995,5799.95
580063,5800.63
580128,5801.28
580193,5801.93
580258,5802.58
580324,5803.24
580390,5803.9
580455,5804.55
580519,5805.19
580585,5805.85
580651,5806.51
580717,5807.17
580783,5807.83
580849,5808.49
580915,5809.15
580981,5809.81
581048,5810.48
581114,5811.14
581179,5811.79
581244,5812.44
581310,5813.1
581377,5813.77
581442,5814.42
581507,5815.07
581572,5815.72
581638,5816.38
581704,5817.04
581771,5817.71
581837,5818.37
581906,5819.06
581975,5819.75
582043,5820.43
582112,5821.12
582180,5821.8
582249,5822.49
582319,5823.19
582388,5823.88
582457,5824.57
582526,5825.26
582596,5825.96
582665,5826.65
582733,5827.33
582800,5828.0
582867,5828.67
582934,5829.34
583003,5830.03
583071,5830.71
583138,5831.38
583204,5832.04
583270,5832.7
583338,5833.38
583406,5834.06
583472,5834.72
583540,5835.4
583608,5836.08
583676,5836.76
583742,5837.42
583807,5838.07
583873,5838.73
583938,5839.38
584003,5840.03
584068,5840.68
584132,5841.32
584197,5841.97
584262,5842.62
584328,5843.28
584395,5843.95
584461,5844.61
584528,5845.28
584597,5845.97
584667,5846.67
584735,5847.35
584803,5848.03
584871,5848.71
584939,5849.39
585007,5850.07
585073,5850.73
585138,5851.38
585204,5852.04
585270,5852.7
585336,5853.36
585400,5854.0
585464,5854.64
585532,5855.32
585598,5855.98
585663,5856.63
585728,5857.28
585792,5857.92
585857,5858.57
585922,5859.22
585988,5859.88
586052,5860.52
586118,5861.18
586184,5861.84
586250,5862.5
586316,5863.16
586382,5863.82
586450,5864.5
586519,5865.19
586588,5865.88
586655,5866.55
586721,5867.21
586788,5867.88
586855,5868.55
586923,5869.23
586990,5869.9
587056,5870.56
587122,5871.22
587189,5871.89
587257,5872.57
587324,5873.24
587391,5873.91
587461,5874.61
587532,5875.32
587603,5876.03
587673,5876.73
587742,5877.42
587812,5878.12
587880,5878.8
587949,5879.49
588017,5880.17
588086,5880.86
588156,5881.56
588226,5882.26
588295,5882.95
588362,5883.62
588430,5884.3
588497,5884.97
588565,5885.65
588631,5886.31
588696,5886.96
588763,5887.63
588830,5888.3
588896,5888.96
588961,5889.61
589027,5890.27
589092,5890.92
589157,5891.57
589221,5892.21
589285,5892.85
589350,5893.5
589415,5894.15
589482,5894.82
589549,5895.49
589615,5896.15
589683,5896.83
589750,5897.5
589818,5898.18
589884,5898.84
589950,5899.5
590015,5900.15
590082,5900.82
590149,5901.49
590214,5902.14
590280,5902.8
590346,5903.46
590412,5904.12
590478,5904.78
590543,5905.43
590609,5906.09
590676,5906.76
590743,5907.43
590808,5908.08
590873,5908.73
590939,5909.39
591005,5910.05
591073,5910.73
591138,5911.38
591204,5912.04
591270,5912.7
591336,5913.36
591403,5914.03
591469,5914.69
591533,5915.33
591598,5915.98
591665,5916.65
591731,5917.31
591797,5917.97
591863,5918.63
591929,5919.29
591997,5919.97
592065,5920.65
592132,5921.32
592197,5921.97
592264,5922.64
592332,5923.32
592400,5924.0
592468,5924.68
592535,5925.35
592603,5926.03
592673,5926.73
592743,5927.43
592813,5928.13
592880,5928.8
592946,5929.46
593013,5930.13
593081,5930.81
593146,5931.46
593210,5932.1
593275,5932.75
593339,5933.39
593404,5934.04
593469,5934.69
593533,5935.33
593597,5935.97
593662,5936.62
593726,5937.26
593792,5937.92
593856,5938.56
593923,5939.23
593991,5939.91
594060,5940.6
594128,5941.28
594195,5941.95
594263,5942.63
594332,5943.32
594400,5944.0
594468,5944.68
594535,5945.35
594602,5946.02
594671,5946.71
594737,5947.37
594802,5948.02
594867,5948.67
594932,5949.32
594998,5949.98
595064,5950.64
595129,5951.29
595195,5951.95
595261,5952.61
595328,5953.28
595393,5953.93
595459,5954.59
595525,5955.25
595591,5955.91
595657,5956.57
595724,5957.24
595789,5957.89
595853,5958.53
595918,5959.18
595983,5959.83
596048,5960.48
596113,5961.13
596177,5961.77
596243,5962.43
596309,5963.09
596376,5963.76
596443,5964.43
596510,5965.1
596578,5965.78
596647,5966.47
596714,5967.14
596780,5967.8
596847,5968.47
596915,5969.15
596981,5969.81
597046,5970.46
