sample,time_sec
135,1.35
250,2.5
355,3.55
459,4.59
553,5.53
638,6.38
721,7.21
812,8.12
905,9.05
992,9.92
1079,10.79
1170,11.7
1261,12.61
1352,13.52
1440,14.4
1529,15.29
1628,16.28
1730,17.3
1835,18.35
1939,19.39
2044,20.44
2148,21.48
2263,22.63
2382,23.82
2499,24.99
2612,26.12
2724,27.24
2833,28.33
2942,29.42
3054,30.54
3177,31.77
3300,33.0
3417,34.17
3530,35.3
3646,36.46
3768,37.68
3892,38.92
4011,40.11
4134,41.34
4259,42.59
4388,43.88
4516,45.16
4647,46.47
4774,47.74
4893,48.93
5002,50.02
5103,51.03
5215,52.15
5318,53.18
5406,54.06
5492,54.92
5584,55.84
5673,56.73
5773,57.73
5900,59.0
6023,60.23
6136,61.36
6245,62.45
6361,63.61
6484,64.84
6609,66.09
6731,67.31
6858,68.58
6978,69.78
7100,71.0
7221,72.21
7339,73.39
7461,74.61
7573,75.73
7669,76.69
7770,77.7
7886,78.86
7998,79.98
8103,81.03
8207,82.07
8304,83.04
8390,83.9
8474,84.74
8570,85.7
8669,86.69
8770,87.7
8886,88.86
9004,90.04
9111,91.11
9215,92.15
9328,93.28
9444,94.44
9553,95.53
9654,96.54
9757,97.57
9871,98.71
9988,99.88
10100,101.0
10206,102.06
10320,103.2
10430,104.3
10541,105.41
10661,106.61
10787,107.87
10913,109.13
11040,110.4
11166,111.66
11278,112.78
11376,113.76
11476,114.76
11602,116.02
11723,117.23
11837,118.37
11958,119.58
12074,120.74
12176,121.76
12273,122.73
12371,123.71
12468,124.68
12586,125.86
12708,127.08
12820,128.2
12938,129.38
13053,130.53
13163,131.63
13269,132.69
13368,133.68
13469,134.69
13564,135.64
13660,136.6
13767,137.67
13857,138.57
13938,139.38
14032,140.32
14144,141.44
14253,142.53
14362,143.62
14470,144.7
14569,145.69
14673,146.73
14775,147.75
14871,148.71
14977,149.77
15093,150.93
15194,151.94
15295,152.95
15404,154.04
15514,155.14
15611,156.11
15718,157.18
15828,158.28
15935,159.35
16033,160.33
16127,161.27
16217,162.17
16302,163.02
16385,163.85
16451,164.51
16517,165.17
16642,166.42
16732,167.32
16813,168.13
16892,168.92
16971,169.71
17070,170.7
17181,171.81
17285,172.85
17385,173.85
17474,174.74
17559,175.59
17649,176.49
17755,177.55
17861,178.61
17966,179.66
18056,180.56
18138,181.38
18216,182.16
18292,182.92
18369,183.69
18492,184.92
18613,186.13
18736,187.36
18850,188.5
18961,189.61
19071,190.71
19179,191.79
19284,192.84
19389,193.89
19492,194.92
19596,195.96
19696,196.96
19800,198.0
19905,199.05
20006,200.06
20101,201.01
20186,201.86
20267,202.67
20347,203.47
20427,204.27
20514,205.14
20617,206.17
20713,207.13
20798,207.98
20879,208.79
20970,209.7
21078,210.78
21184,211.84
21276,212.76
21360,213.6
21445,214.45
21563,215.63
21683,216.83
21799,217.99
21911,219.11
22015,220.15
22116,221.16
22213,222.13
22308,223.08
22399,223.99
22483,224.83
22565,225.65
22642,226.42
22717,227.17
22790,227.9
22861,228.61
22932,229.32
23008,230.08
23094,230.94
23210,232.1
23329,233.29
23445,234.45
23552,235.52
23651,236.51
23757,237.57
23856,238.56
23950,239.5
24055,240.55
24155,241.55
24248,242.48
24346,243.46
24451,244.51
24549,245.49
24634,246.34
24714,247.14
24798,247.98
24896,248.96
24993,249.93
25095,250.95
25193,251.93
25287,252.87
25382,253.82
25478,254.78
25580,255.8
25678,256.78
25775,257.75
25875,258.75
25976,259.76
26077,260.77
26175,261.75
26268,262.68
26369,263.69
26477,264.77
26583,265.83
26681,266.81
26771,267.71
26863,268.63
26970,269.7
27083,270.83
27192,271.92
27289,272.89
27381,273.81
27477,274.77
27582,275.82
27689,276.89
27798,277.98
27909,279.09
28011,280.11
28113,281.13
28217,282.17
28328,283.28
28437,284.37
28536,285.36
28628,286.28
28726,287.26
28826,288.26
28924,289.24
29014,290.14
29100,291.0
29181,291.81
29258,292.58
29339,293.39
29423,294.23
29549,295.49
29668,296.68
29782,297.82
29887,298.87
29992,299.92
30108,301.08
30216,302.16
30325,303.25
30438,304.38
30555,305.55
30668,306.68
30770,307.7
30873,308.73
30977,309.77
31093,310.93
31209,312.09
31322,313.22
31430,314.3
31542,315.42
31645,316.45
31733,317.33
31821,318.21
31903,319.03
31983,319.83
32076,320.76
32202,322.02
32325,323.25
32443,324.43
32555,325.55
32663,326.63
32771,327.71
32883,328.83
32991,329.91
33096,330.96
33193,331.93
33286,332.86
33389,333.89
33500,335.0
33614,336.14
33725,337.25
33842,338.42
33954,339.54
34060,340.6
34159,341.59
34256,342.56
34356,343.56
34464,344.64
34575,345.75
34682,346.82
34788,347.88
34892,348.92
34995,349.95
35106,351.06
35217,352.17
35317,353.17
35406,354.06
35491,354.91
35572,355.72
35653,356.53
35730,357.3
35810,358.1
35909,359.09
36030,360.3
36144,361.44
36252,362.52
36355,363.55
36459,364.59
36563,365.63
36657,366.57
36749,367.49
36834,368.34
36920,369.2
37012,370.12
37109,371.09
37206,372.06
37311,373.11
37425,374.25
37539,375.39
37644,376.44
37744,377.44
37846,378.46
37953,379.53
38059,380.59
38166,381.66
38283,382.83
38402,384.02
38515,385.15
38622,386.22
38725,387.25
38823,388.23
38924,389.24
39029,390.29
39131,391.31
39236,392.36
39347,393.47
39460,394.6
39573,395.73
39682,396.82
39788,397.88
39891,398.91
39990,399.9
40092,400.92
40202,402.02
40307,403.07
40412,404.12
40524,405.24
40640,406.4
40752,407.52
40861,408.61
40970,409.7
41083,410.83
41196,411.96
41304,413.04
41408,414.08
41505,415.05
41599,415.99
41703,417.03
41816,418.16
41919,419.19
42012,420.12
42102,421.02
42198,421.98
42304,423.04
42411,424.11
42510,425.1
42612,426.12
42714,427.14
42815,428.15
42920,429.2
43020,430.2
43118,431.18
43214,432.14
43312,433.12
43405,434.05
43503,435.03
43596,435.96
43688,436.88
43774,437.74
43858,438.58
43938,439.38
44015,440.15
44091,440.91
44177,441.77
44289,442.89
44396,443.96
44512,445.12
44611,446.11
44711,447.11
44824,448.24
44939,449.39
45055,450.55
45167,451.67
45272,452.72
45365,453.65
45463,454.63
45561,455.61
45655,456.55
45744,457.44
45826,458.26
45904,459.04
45989,459.89
46092,460.92
46215,462.15
46337,463.37
46455,464.55
46567,465.67
46671,466.71
46780,467.8
46895,468.95
47006,470.06
47111,471.11
47206,472.06
47310,473.1
47436,474.36
47556,475.56
47669,476.69
47779,477.79
47895,478.95
48019,480.19
48140,481.4
48255,482.55
48368,483.68
48485,484.85
48601,486.01
48712,487.12
48818,488.18
48918,489.18
49020,490.2
49130,491.3
49242,492.42
49348,493.48
49438,494.38
49524,495.24
49610,496.1
49696,496.96
49784,497.84
49866,498.66
49943,499.43
50029,500.29
50146,501.46
50262,502.62
50373,503.73
50475,504.75
50568,505.68
50667,506.67
50775,507.75
50880,508.8
50983,509.83
51081,510.81
51183,511.83
51296,512.96
51406,514.06
51505,515.05
51598,515.98
51701,517.01
51820,518.2
51937,519.37
52048,520.48
52154,521.54
52263,522.63
52381,523.81
52502,525.02
52615,526.15
52723,527.23
52837,528.37
52956,529.56
53075,530.75
53191,531.91
53305,533.05
53413,534.13
53526,535.26
53636,536.36
53734,537.34
53828,538.28
53927,539.27
54051,540.51
54166,541.66
54274,542.74
54382,543.82
54493,544.93
54601,546.01
54702,547.02
54807,548.07
54916,549.16
55017,550.17
55115,551.15
55218,552.18
55323,553.23
55426,554.26
55523,555.23
55618,556.18
55720,557.2
55833,558.33
55942,559.42
56046,560.46
56146,561.46
56251,562.51
56358,563.58
56463,564.63
56566,565.66
56669,566.69
56767,567.67
56861,568.61
56958,569.58
57056,570.56
57171,571.71
57286,572.86
57396,573.96
57501,575.01
57606,576.06
57714,577.14
57818,578.18
57915,579.15
58000,580.0
58080,580.8
58159,581.59
58236,582.36
58314,583.14
58392,583.92
58471,584.71
58549,585.49
58625,586.25
58700,587.0
58773,587.73
58845,588.45
58917,589.17
58990,589.9
59064,590.64
59139,591.39
59215,592.15
59292,592.92
59367,593.67
59442,594.42
59516,595.16
59589,595.89
59662,596.62
59736,597.36
59817,598.17
59905,599.05
59999,599.99
60096,600.96
60207,602.07
60325,603.25
60443,604.43
60554,605.54
60658,606.58
60758,607.58
60874,608.74
60994,609.94
61113,611.13
61222,612.22
61329,613.29
61436,614.36
61553,615.53
61672,616.72
61785,617.85
61892,618.92
62002,620.02
62118,621.18
62234,622.34
62343,623.43
62445,624.45
62550,625.5
62670,626.7
62788,627.88
62902,629.02
63002,630.02
63096,630.96
63195,631.95
63320,633.2
63442,634.42
63555,635.55
63663,636.63
63770,637.7
63884,638.84
63999,639.99
64111,641.11
64219,642.19
64325,643.25
64436,644.36
64556,645.56
64681,646.81
64797,647.97
64907,649.07
65021,650.21
65137,651.37
65243,652.43
65346,653.46
65454,654.54
65570,655.7
65684,656.84
65801,658.01
65908,659.08
66004,660.04
66100,661.0
66213,662.13
66329,663.29
66438,664.38
66543,665.43
66662,666.62
66788,667.88
66906,669.06
67018,670.18
67130,671.3
67249,672.49
67373,673.73
67492,674.92
67606,676.06
67725,677.25
67848,678.48
67968,679.68
68080,680.8
68180,681.8
68270,682.7
68359,683.59
68445,684.45
68529,685.29
68610,686.1
68690,686.9
68812,688.12
68943,689.43
69071,690.71
69191,691.91
69298,692.98
69392,693.92
69482,694.82
69576,695.76
69677,696.77
69781,697.81
69878,698.78
69971,699.71
70057,700.57
70146,701.46
70235,702.35
70322,703.22
70409,704.09
70491,704.91
70573,705.73
70652,706.52
70732,707.32
70812,708.12
70890,708.9
70967,709.67
71043,710.43
71118,711.18
71194,711.94
71270,712.7
71346,713.46
71421,714.21
71497,714.97
71570,715.7
71646,716.46
71723,717.23
71811,718.11
71900,719.0
71982,719.82
72062,720.62
72140,721.4
72216,722.16
72294,722.94
72382,723.82
72489,724.89
72593,725.93
72687,726.87
72777,727.77
72871,728.71
72969,729.69
73064,730.64
73155,731.55
73247,732.47
73342,733.42
73446,734.46
73549,735.49
73645,736.45
73743,737.43
73841,738.41
73939,739.39
74033,740.33
74120,741.2
74210,742.1
74307,743.07
74412,744.12
74507,745.07
74597,745.97
74691,746.91
74795,747.95
74892,748.92
74986,749.86
75077,750.77
75177,751.77
75274,752.74
75368,753.68
75455,754.55
75545,755.45
75640,756.4
75726,757.26
75809,758.09
75892,758.92
75973,759.73
76060,760.6
76143,761.43
76225,762.25
76303,763.03
76382,763.82
76480,764.8
76578,765.78
76685,766.85
76801,768.01
76915,769.15
77024,770.24
77137,771.37
77248,772.48
77353,773.53
77461,774.61
77583,775.83
77699,776.99
77807,778.07
77921,779.21
78038,780.38
78152,781.52
78265,782.65
78383,783.83
78496,784.96
78605,786.05
78719,787.19
78835,788.35
78951,789.51
79073,790.73
79195,791.95
79312,793.12
79437,794.37
79558,795.58
79677,796.77
79795,797.95
79919,799.19
80036,800.36
80134,801.34
80232,802.32
80348,803.48
80452,804.52
80549,805.49
80644,806.44
80754,807.54
80861,808.61
80963,809.63
81064,810.64
81177,811.77
81292,812.92
81398,813.98
81502,815.02
81625,816.25
81741,817.41
81852,818.52
81960,819.6
82074,820.74
82190,821.9
82302,823.02
82411,824.11
82527,825.27
82645,826.45
82761,827.61
82872,828.72
82989,829.89
83111,831.11
83232,832.32
83355,833.55
83479,834.79
83608,836.08
83727,837.27
83838,838.38
83957,839.57
84082,840.82
84201,842.01
84309,843.09
84404,844.04
84502,845.02
84614,846.14
84716,847.16
84810,848.1
84898,848.98
84980,849.8
85060,850.6
85141,851.41
85254,852.54
85378,853.78
85496,854.96
85604,856.04
85716,857.16
85832,858.32
85941,859.41
86045,860.45
86156,861.56
86278,862.78
86396,863.96
86511,865.11
86623,866.23
86745,867.45
86865,868.65
86980,869.8
87102,871.02
87222,872.22
87345,873.45
87469,874.69
87588,875.88
87699,876.99
87805,878.05
87922,879.22
88035,880.35
88145,881.45
88268,882.68
88390,883.9
88503,885.03
88617,886.17
88735,887.35
88850,888.5
88961,889.61
89070,890.7
89189,891.89
89308,893.08
89426,894.26
89550,895.5
89673,896.73
89795,897.95
89918,899.18
90041,900.41
90163,901.63
90289,902.89
90398,903.98
90490,904.9
90592,905.92
90703,907.03
90801,908.01
90892,908.92
90996,909.96
91115,911.15
91225,912.25
91339,913.39
91461,914.61
91581,915.81
91700,917.0
91826,918.26
91955,919.55
92077,920.77
92200,922.0
92315,923.15
92424,924.24
92541,925.41
92678,926.78
92799,927.99
92918,929.18
93040,930.4
93161,931.61
93283,932.83
93403,934.03
93526,935.26
93649,936.49
93776,937.76
93897,938.97
94027,940.27
94153,941.53
94264,942.64
94372,943.72
94492,944.92
94611,946.11
94719,947.19
94826,948.26
94938,949.38
95047,950.47
95160,951.6
95270,952.7
95376,953.76
95490,954.9
95600,956.0
95715,957.15
95831,958.31
95953,959.53
96068,960.68
96185,961.85
96289,962.89
96381,963.81
96501,965.01
96618,966.18
96720,967.2
96818,968.18
96931,969.31
97035,970.35
97132,971.32
97226,972.26
97328,973.28
97443,974.43
97553,975.53
97671,976.71
97788,977.88
97907,979.07
98028,980.28
98146,981.46
98265,982.65
98379,983.79
98500,985.0
98616,986.16
98734,987.34
98857,988.57
98980,989.8
99090,990.9
99183,991.83
99277,992.77
99394,993.94
99511,995.11
99614,996.14
99729,997.29
99845,998.45
99961,999.61
100082,1000.82
100200,1002.0
100320,1003.2
100443,1004.43
100565,1005.65
100682,1006.82
100804,1008.04
100923,1009.23
101042,1010.42
101167,1011.67
101285,1012.85
101396,1013.96
101516,1015.16
101636,1016.36
101734,1017.34
101838,1018.38
101945,1019.45
102038,1020.38
102127,1021.27
102221,1022.21
102311,1023.11
102398,1023.98
102479,1024.79
102567,1025.67
102695,1026.95
102827,1028.27
102957,1029.57
103091,1030.91
103215,1032.15
103342,1033.42
103467,1034.67
103585,1035.85
103706,1037.06
103827,1038.27
103947,1039.47
104075,1040.75
104201,1042.01
104311,1043.11
104425,1044.25
104550,1045.5
104662,1046.62
104758,1047.58
104854,1048.54
104979,1049.79
105096,1050.96
105217,1052.17
105345,1053.45
105465,1054.65
105588,1055.88
105716,1057.16
105836,1058.36
105958,1059.58
106075,1060.75
106189,1061.89
106304,1063.04
106417,1064.17
106536,1065.36
106654,1066.54
106779,1067.79
106909,1069.09
107035,1070.35
107164,1071.64
107289,1072.89
107387,1073.87
107485,1074.85
107614,1076.14
107744,1077.44
107855,1078.55
107967,1079.67
108075,1080.75
108178,1081.78
108290,1082.9
108403,1084.03
108527,1085.27
108647,1086.47
108755,1087.55
108870,1088.7
108987,1089.87
109101,1091.01
109222,1092.22
109341,1093.41
109454,1094.54
109577,1095.77
109696,1096.96
109809,1098.09
109931,1099.31
110047,1100.47
110160,1101.6
110290,1102.9
110412,1104.12
110524,1105.24
110648,1106.48
110772,1107.72
110900,1109.0
110999,1109.99
111085,1110.85
111172,1111.72
111266,1112.66
111351,1113.51
111430,1114.3
111510,1115.1
111595,1115.95
111717,1117.17
111840,1118.4
111941,1119.41
112047,1120.47
112160,1121.6
112269,1122.69
112387,1123.87
112502,1125.02
112615,1126.15
112724,1127.24
112830,1128.3
112938,1129.38
113049,1130.49
113151,1131.51
113264,1132.64
113380,1133.8
113493,1134.93
113601,1136.01
113717,1137.17
113836,1138.36
113949,1139.49
114068,1140.68
114181,1141.81
114292,1142.92
114410,1144.1
114530,1145.3
114652,1146.52
114779,1147.79
114912,1149.12
115049,1150.49
115175,1151.75
115308,1153.08
115439,1154.39
115555,1155.55
115648,1156.48
115741,1157.41
115867,1158.67
115994,1159.94
116111,1161.11
116227,1162.27
116331,1163.31
116445,1164.45
116555,1165.55
116680,1166.8
116801,1168.01
116919,1169.19
117046,1170.46
117170,1171.7
117290,1172.9
117415,1174.15
117535,1175.35
117649,1176.49
117777,1177.77
117903,1179.03
118020,1180.2
118144,1181.44
118264,1182.64
118375,1183.75
118499,1184.99
118624,1186.24
118745,1187.45
118838,1188.38
118931,1189.31
119052,1190.52
119173,1191.73
119277,1192.77
119392,1193.92
119505,1195.05
119608,1196.08
119715,1197.15
119833,1198.33
119947,1199.47
120070,1200.7
120193,1201.93
120310,1203.1
120429,1204.29
120544,1205.44
120664,1206.64
120785,1207.85
120905,1209.05
121018,1210.18
121139,1211.39
121258,1212.58
121373,1213.73
121492,1214.92
121618,1216.18
121734,1217.34
121860,1218.6
121987,1219.87
122104,1221.04
122235,1222.35
122367,1223.67
122484,1224.84
122602,1226.02
122720,1227.2
122807,1228.07
122897,1228.97
122986,1229.86
123070,1230.7
123151,1231.51
123228,1232.28
123305,1233.05
123389,1233.89
123494,1234.94
123593,1235.93
123687,1236.87
123794,1237.94
123916,1239.16
124032,1240.32
124138,1241.38
124258,1242.58
124387,1243.87
124510,1245.1
124630,1246.3
124753,1247.53
124874,1248.74
124997,1249.97
125117,1251.17
125234,1252.34
125347,1253.47
125466,1254.66
125583,1255.83
125693,1256.93
125809,1258.09
125928,1259.28
126046,1260.46
126173,1261.73
126301,1263.01
126423,1264.23
126550,1265.5
126675,1266.75
126794,1267.94
126922,1269.22
127042,1270.42
127155,1271.55
127273,1272.73
127368,1273.68
127462,1274.62
127564,1275.64
127662,1276.62
127751,1277.51
127842,1278.42
127951,1279.51
128053,1280.53
128150,1281.5
128265,1282.65
128393,1283.93
128513,1285.13
128639,1286.39
128765,1287.65
128890,1288.9
129020,1290.2
129143,1291.43
129271,1292.71
129397,1293.97
129521,1295.21
129645,1296.45
129760,1297.6
129873,1298.73
129990,1299.9
130107,1301.07
130234,1302.34
130363,1303.63
130483,1304.83
130604,1306.04
130730,1307.3
130853,1308.53
130981,1309.81
131109,1311.09
131236,1312.36
131368,1313.68
131496,1314.96
131634,1316.34
131776,1317.76
131901,1319.01
132034,1320.34
132151,1321.51
132245,1322.45
132330,1323.3
132422,1324.22
132520,1325.2
132609,1326.09
132698,1326.98
132819,1328.19
132926,1329.26
133027,1330.27
133120,1331.2
133223,1332.23
133348,1333.48
133471,1334.71
133581,1335.81
133705,1337.05
133838,1338.38
133961,1339.61
134081,1340.81
134208,1342.08
134330,1343.3
134448,1344.48
134568,1345.68
134682,1346.82
134793,1347.93
134908,1349.08
135019,1350.19
135138,1351.38
135261,1352.61
135386,1353.86
135518,1355.18
135644,1356.44
135763,1357.63
135888,1358.88
136010,1360.1
136127,1361.27
136250,1362.5
136374,1363.74
136491,1364.91
136626,1366.26
136732,1367.32
136822,1368.22
136918,1369.18
137040,1370.4
137163,1371.63
137274,1372.74
137392,1373.92
137499,1374.99
137606,1376.06
137721,1377.21
137829,1378.29
137951,1379.51
138073,1380.73
138194,1381.94
138322,1383.22
138447,1384.47
138574,1385.74
138690,1386.9
138810,1388.1
138934,1389.34
139048,1390.48
139163,1391.63
139290,1392.9
139412,1394.12
139529,1395.29
139652,1396.52
139778,1397.78
139899,1398.99
140037,1400.37
140161,1401.61
140279,1402.79
140408,1404.08
140532,1405.32
140626,1406.26
140720,1407.2
140844,1408.44
140969,1409.69
141078,1410.78
141207,1412.07
141319,1413.19
141435,1414.35
141557,1415.57
141675,1416.75
141801,1418.01
141927,1419.27
142045,1420.45
142167,1421.67
142291,1422.91
142408,1424.08
142541,1425.41
142658,1426.58
142776,1427.76
142886,1428.86
142983,1429.83
143103,1431.03
143226,1432.26
143341,1433.41
143446,1434.46
143558,1435.58
143672,1436.72
143787,1437.87
143906,1439.06
144020,1440.2
144133,1441.33
144250,1442.5
144368,1443.68
144493,1444.93
144619,1446.19
144737,1447.37
144872,1448.72
145000,1450.0
145119,1451.19
145252,1452.52
145379,1453.79
145497,1454.97
145630,1456.3
145733,1457.33
145822,1458.22
145909,1459.09
146041,1460.41
146155,1461.55
146269,1462.69
146388,1463.88
146492,1464.92
146597,1465.97
146712,1467.12
146823,1468.23
146941,1469.41
147070,1470.7
147190,1471.9
147303,1473.03
147423,1474.23
147536,1475.36
147654,1476.54
147773,1477.73
147885,1478.85
147998,1479.98
148106,1481.06
148213,1482.13
148325,1483.25
148440,1484.4
148544,1485.44
148657,1486.57
148777,1487.77
148889,1488.89
149009,1490.09
149132,1491.32
149249,1492.49
149378,1493.78
149504,1495.04
149620,1496.2
149744,1497.44
149864,1498.64
149961,1499.61
150058,1500.58
150173,1501.73
150288,1502.88
150385,1503.85
150483,1504.83
150577,1505.77
150679,1506.79
150800,1508.0
150911,1509.11
151029,1510.29
151150,1511.5
151262,1512.62
151381,1513.81
151499,1514.99
151617,1516.17
151738,1517.38
151855,1518.55
151977,1519.77
152096,1520.96
152224,1522.24
152346,1523.46
152460,1524.6
152585,1525.85
152707,1527.07
152825,1528.25
152957,1529.57
153085,1530.85
153204,1532.04
153325,1533.25
153454,1534.54
153572,1535.72
153687,1536.87
153816,1538.16
153940,1539.4
154057,1540.57
154189,1541.89
154318,1543.18
154458,1544.58
154592,1545.92
154691,1546.91
154790,1547.9
154900,1549.0
155011,1550.11
155111,1551.11
155226,1552.26
155328,1553.28
155424,1554.24
155540,1555.4
155653,1556.53
155759,1557.59
155880,1558.8
156002,1560.02
156118,1561.18
156239,1562.39
156356,1563.56
156469,1564.69
156586,1565.86
156699,1566.99
156817,1568.17
156933,1569.33
157042,1570.42
157145,1571.45
157254,1572.54
157377,1573.77
157494,1574.94
157604,1576.04
157728,1577.28
157850,1578.5
157965,1579.65
158082,1580.82
158209,1582.09
158329,1583.29
158459,1584.59
158581,1585.81
158688,1586.88
158780,1587.8
158909,1589.09
159039,1590.39
159140,1591.4
159246,1592.46
159362,1593.62
159476,1594.76
159588,1595.88
159711,1597.11
159831,1598.31
159966,1599.66
160095,1600.95
160216,1602.16
160347,1603.47
160477,1604.77
160599,1605.99
160724,1607.24
160843,1608.43
160956,1609.56
161074,1610.74
161201,1612.01
161319,1613.19
161438,1614.38
161562,1615.62
161682,1616.82
161807,1618.07
161943,1619.43
162067,1620.67
162184,1621.84
162314,1623.14
162430,1624.3
162527,1625.27
162625,1626.25
162745,1627.45
162866,1628.66
162974,1629.74
163093,1630.93
163196,1631.96
163299,1632.99
163413,1634.13
163521,1635.21
163640,1636.4
163765,1637.65
163882,1638.82
164003,1640.03
164120,1641.2
164235,1642.35
164355,1643.55
164474,1644.74
164597,1645.97
164719,1647.19
164834,1648.34
164946,1649.46
165066,1650.66
165185,1651.85
165303,1653.03
165432,1654.32
165555,1655.55
165670,1656.7
165796,1657.96
165924,1659.24
166041,1660.41
166164,1661.64
166290,1662.9
166406,1664.06
166532,1665.32
166654,1666.54
166746,1667.46
166839,1668.39
166962,1669.62
167081,1670.81
167184,1671.84
167302,1673.02
167420,1674.2
167523,1675.23
167637,1676.37
167751,1677.51
167869,1678.69
167997,1679.97
168120,1681.2
168252,1682.52
168381,1683.81
168511,1685.11
168642,1686.42
168772,1687.72
168900,1689.0
169035,1690.35
169166,1691.66
169285,1692.85
169410,1694.1
169536,1695.36
169650,1696.5
169778,1697.78
169901,1699.01
170015,1700.15
170145,1701.45
170267,1702.67
170386,1703.86
170523,1705.23
170661,1706.61
170780,1707.8
170911,1709.11
171038,1710.38
171136,1711.36
171238,1712.38
171364,1713.64
171459,1714.59
171559,1715.59
171678,1716.78
171780,1717.8
171871,1718.71
171983,1719.83
172102,1721.02
172216,1722.16
172338,1723.38
172457,1724.57
172580,1725.8
172678,1726.78
172770,1727.7
172881,1728.81
172998,1729.98
173123,1731.23
173241,1732.41
173367,1733.67
173490,1734.9
173606,1736.06
173729,1737.29
173855,1738.55
173973,1739.73
174103,1741.03
174226,1742.26
174342,1743.42
174472,1744.72
174604,1746.04
174729,1747.29
174869,1748.69
174998,1749.98
175122,1751.22
175264,1752.64
175405,1754.05
175506,1755.06
175614,1756.14
175729,1757.29
175823,1758.23
175912,1759.12
176050,1760.5
176175,1761.75
176281,1762.81
176402,1764.02
176527,1765.27
176653,1766.53
176785,1767.85
176914,1769.14
177044,1770.44
177163,1771.63
177276,1772.76
177397,1773.97
177523,1775.23
177642,1776.42
177763,1777.63
177885,1778.85
178000,1780.0
178120,1781.2
178238,1782.38
178354,1783.54
178486,1784.86
178609,1786.09
178725,1787.25
178859,1788.59
178993,1789.93
179114,1791.14
179251,1792.51
179382,1793.82
179506,1795.06
179639,1796.39
179761,1797.61
179856,1798.56
179952,1799.52
180071,1800.71
180191,1801.91
180299,1802.99
180418,1804.18
180521,1805.21
180627,1806.27
180738,1807.38
180853,1808.53
180977,1809.77
181095,1810.95
181219,1812.19
181347,1813.47
181478,1814.78
181614,1816.14
181735,1817.35
181857,1818.57
181975,1819.75
182090,1820.9
182214,1822.14
182338,1823.38
182455,1824.55
182579,1825.79
182701,1827.01
182820,1828.2
182946,1829.46
183074,1830.74
183198,1831.98
183336,1833.36
183465,1834.65
183582,1835.82
183704,1837.04
183829,1838.29
183929,1839.29
184030,1840.3
184096,1840.96
184162,1841.62
184261,1842.61
184358,1843.58
184471,1844.71
184568,1845.68
184667,1846.67
184787,1847.87
184899,1848.99
185021,1850.21
185151,1851.51
185275,1852.75
185405,1854.05
185532,1855.32
185654,1856.54
185781,1857.81
185906,1859.06
186023,1860.23
186149,1861.49
186275,1862.75
186392,1863.92
186500,1865.0
186617,1866.17
186740,1867.4
186851,1868.51
186968,1869.68
187093,1870.93
187222,1872.22
187345,1873.45
187488,1874.88
187622,1876.22
187734,1877.34
187863,1878.63
187980,1879.8
188075,1880.75
188174,1881.74
188293,1882.93
188387,1883.87
188487,1884.87
188604,1886.04
188707,1887.07
188833,1888.33
188956,1889.56
189076,1890.76
189204,1892.04
189329,1893.29
189452,1894.52
189580,1895.8
189701,1897.01
189820,1898.2
189947,1899.47
190071,1900.71
190185,1901.85
190303,1903.03
190426,1904.26
190541,1905.41
190667,1906.67
190791,1907.91
190905,1909.05
191022,1910.22
191151,1911.51
191271,1912.71
191395,1913.95
191529,1915.29
191664,1916.64
191801,1918.01
191943,1919.43
192069,1920.69
192198,1921.98
192321,1923.21
192414,1924.14
192508,1925.08
192628,1926.28
192748,1927.48
192840,1928.4
192955,1929.55
193052,1930.52
193145,1931.45
193277,1932.77
193397,1933.97
193505,1935.05
193620,1936.2
193736,1937.36
193846,1938.46
193963,1939.63
194080,1940.8
194191,1941.91
194302,1943.02
194416,1944.16
194531,1945.31
194636,1946.36
194748,1947.48
194865,1948.65
194973,1949.73
195082,1950.82
195203,1952.03
195313,1953.13
195427,1954.27
195546,1955.46
195661,1956.61
195785,1957.85
195911,1959.11
196022,1960.22
196148,1961.48
196272,1962.72
196387,1963.87
196507,1965.07
196638,1966.38
196760,1967.6
196884,1968.84
197012,1970.12
197125,1971.25
197250,1972.5
197375,1973.75
197468,1974.68
197561,1975.61
197676,1976.76
197791,1977.91
197880,1978.8
197970,1979.7
198063,1980.63
198164,1981.64
198268,1982.68
198394,1983.94
198518,1985.18
198646,1986.46
198779,1987.79
198904,1989.04
199037,1990.37
199163,1991.63
199292,1992.92
199421,1994.21
199547,1995.47
199672,1996.72
199797,1997.97
199915,1999.15
200031,2000.31
200142,2001.42
200260,2002.6
200375,2003.75
200497,2004.97
200623,2006.23
200741,2007.41
200862,2008.62
200989,2009.89
201106,2011.06
201234,2012.34
201366,2013.66
201491,2014.91
201628,2016.28
201757,2017.57
201870,2018.7
201967,2019.67
202094,2020.94
202221,2022.21
202323,2023.23
202432,2024.32
202535,2025.35
202634,2026.34
202741,2027.41
202851,2028.51
202961,2029.61
203068,2030.68
203160,2031.6
203265,2032.65
203390,2033.9
203516,2035.16
203643,2036.43
203765,2037.65
203882,2038.82
203998,2039.98
204109,2041.09
204221,2042.21
204341,2043.41
204459,2044.59
204568,2045.68
204688,2046.88
204814,2048.14
204945,2049.45
205083,2050.83
205210,2052.1
205342,2053.42
205473,2054.73
205596,2055.96
205733,2057.33
205848,2058.48
205940,2059.4
206038,2060.38
206139,2061.39
206234,2062.34
206364,2063.64
206476,2064.76
206571,2065.71
206672,2066.72
206783,2067.83
206892,2068.92
207020,2070.2
207142,2071.42
207271,2072.71
207401,2074.01
207530,2075.3
207662,2076.62
207786,2077.86
207909,2079.09
208039,2080.39
208159,2081.59
208274,2082.74
208399,2083.99
208520,2085.2
208630,2086.3
208750,2087.5
208873,2088.73
208991,2089.91
209103,2091.03
209224,2092.24
209348,2093.48
209467,2094.67
209602,2096.02
209735,2097.35
209860,2098.6
209995,2099.95
210001,2100.01
210131,2101.31
210250,2102.5
210366,2103.66
210502,2105.02
210603,2106.03
210705,2107.05
210817,2108.17
210915,2109.15
211040,2110.4
211165,2111.65
211288,2112.88
211416,2114.16
211541,2115.41
211671,2116.71
211795,2117.95
211921,2119.21
212045,2120.45
212170,2121.7
212294,2122.94
212412,2124.12
212538,2125.38
212666,2126.66
212789,2127.89
212908,2129.08
213037,2130.37
213157,2131.57
213283,2132.83
213417,2134.17
213542,2135.42
213666,2136.66
213797,2137.97
213922,2139.22
214048,2140.48
214182,2141.82
214315,2143.15
214419,2144.19
214524,2145.24
214639,2146.39
214754,2147.54
214857,2148.57
214978,2149.78
215077,2150.77
215176,2151.76
215293,2152.93
215399,2153.99
215523,2155.23
215643,2156.43
215763,2157.63
215884,2158.84
216007,2160.07
216135,2161.35
216260,2162.6
216390,2163.9
216519,2165.19
216644,2166.44
216777,2167.77
216900,2169.0
217026,2170.26
217154,2171.54
217275,2172.75
217391,2173.91
217518,2175.18
217638,2176.38
217749,2177.49
217868,2178.68
217989,2179.89
218105,2181.05
218234,2182.34
218369,2183.69
218495,2184.95
218633,2186.33
218764,2187.64
218891,2188.91
219025,2190.25
219155,2191.55
219283,2192.83
219404,2194.04
219501,2195.01
219599,2195.99
219712,2197.12
219825,2198.25
219926,2199.26
220027,2200.27
220121,2201.21
220215,2202.15
220319,2203.19
220425,2204.25
220533,2205.33
220652,2206.52
220774,2207.74
220904,2209.04
221022,2210.22
221143,2211.43
221261,2212.61
221377,2213.77
221494,2214.94
221603,2216.03
221720,2217.2
221835,2218.35
221944,2219.44
222056,2220.56
222170,2221.7
222275,2222.75
222384,2223.84
222503,2225.03
222613,2226.13
222726,2227.26
222841,2228.41
222948,2229.48
223062,2230.62
223175,2231.75
223301,2233.01
223428,2234.28
223541,2235.41
223664,2236.64
223781,2237.81
223878,2238.78
223993,2239.93
224120,2241.2
224217,2242.17
224317,2243.17
224425,2244.25
224521,2245.21
224639,2246.39
224754,2247.54
224865,2248.65
224992,2249.92
225117,2251.17
225248,2252.48
225373,2253.73
225499,2254.99
225620,2256.2
225745,2257.45
225868,2258.68
225985,2259.85
226094,2260.94
226221,2262.21
226349,2263.49
226468,2264.68
226604,2266.04
226741,2267.41
226864,2268.64
226984,2269.84
227115,2271.15
227236,2272.36
227365,2273.65
227494,2274.94
227623,2276.23
227755,2277.55
227884,2278.84
227992,2279.92
228099,2280.99
228191,2281.91
228332,2283.32
228474,2284.74
228595,2285.95
228709,2287.09
228814,2288.14
228937,2289.37
229058,2290.58
229178,2291.78
229302,2293.02
229420,2294.2
229541,2295.41
229665,2296.65
229784,2297.84
229908,2299.08
230024,2300.24
230140,2301.4
230266,2302.66
230388,2303.88
230510,2305.1
230629,2306.29
230743,2307.43
230862,2308.62
230994,2309.94
231120,2311.2
231247,2312.47
231372,2313.72
231487,2314.87
231614,2316.14
231740,2317.4
231853,2318.53
231968,2319.68
232099,2320.99
232207,2322.07
232316,2323.16
232431,2324.31
232538,2325.38
232668,2326.68
232795,2327.95
232929,2329.29
233061,2330.61
233195,2331.95
233336,2333.36
233464,2334.64
233592,2335.92
233722,2337.22
233844,2338.44
233976,2339.76
234099,2340.99
234210,2342.1
234330,2343.3
234451,2344.51
234566,2345.66
234694,2346.94
234817,2348.17
234939,2349.39
235070,2350.7
235194,2351.94
235325,2353.25
235460,2354.6
235595,2355.95
235735,2357.35
235867,2358.67
236000,2360.0
236142,2361.42
236249,2362.49
236359,2363.59
236479,2364.79
236581,2365.81
236684,2366.84
236804,2368.04
236902,2369.02
236995,2369.95
237100,2371.0
237197,2371.97
237308,2373.08
237436,2374.36
237558,2375.58
237684,2376.84
237800,2378.0
237914,2379.14
238036,2380.36
238155,2381.55
238277,2382.77
238400,2384.0
238518,2385.18
238625,2386.25
238742,2387.42
238855,2388.55
238960,2389.6
239068,2390.68
239188,2391.88
239302,2393.02
239427,2394.27
239554,2395.54
239669,2396.69
239785,2397.85
239905,2399.05
240023,2400.23
240145,2401.45
240274,2402.74
240397,2403.97
240516,2405.16
240644,2406.44
240768,2407.68
240893,2408.93
241018,2410.18
241122,2411.22
241241,2412.41
241354,2413.54
241450,2414.5
241549,2415.49
241642,2416.42
241732,2417.32
241825,2418.25
241940,2419.4
242042,2420.42
242166,2421.66
242290,2422.9
242410,2424.1
242538,2425.38
242661,2426.61
242793,2427.93
242927,2429.27
243050,2430.5
243178,2431.78
243303,2433.03
243421,2434.21
243548,2435.48
243670,2436.7
243788,2437.88
243910,2439.1
244034,2440.34
244154,2441.54
244279,2442.79
244404,2444.04
244527,2445.27
244663,2446.63
244807,2448.07
244938,2449.38
245081,2450.81
245207,2452.07
245334,2453.34
245471,2454.71
245592,2455.92
245725,2457.25
245855,2458.55
245964,2459.64
246062,2460.62
246179,2461.79
246273,2462.73
246390,2463.9
246494,2464.94
246584,2465.84
246685,2466.85
246797,2467.97
246904,2469.04
247013,2470.13
247136,2471.36
247260,2472.6
247396,2473.96
247519,2475.19
247652,2476.52
247777,2477.77
247903,2479.03
248021,2480.21
248143,2481.43
248262,2482.62
248388,2483.88
248511,2485.11
248625,2486.25
248748,2487.48
248870,2488.7
248989,2489.89
249114,2491.14
249239,2492.39
249361,2493.61
249494,2494.94
249622,2496.22
249741,2497.41
249871,2498.71
250002,2500.02
250142,2501.42
250280,2502.8
250413,2504.13
250550,2505.5
250673,2506.73
250793,2507.93
250892,2508.92
250979,2509.79
251067,2510.67
251155,2511.55
251237,2512.37
251316,2513.16
251396,2513.96
251483,2514.83
251577,2515.77
251678,2516.78
251770,2517.7
251858,2518.58
251940,2519.4
252020,2520.2
252098,2520.98
252175,2521.75
252252,2522.52
252337,2523.37
252425,2524.25
252519,2525.19
252637,2526.37
252756,2527.56
252864,2528.64
252978,2529.78
253104,2531.04
253228,2532.28
253349,2533.49
253479,2534.79
253609,2536.09
253732,2537.32
253865,2538.65
253988,2539.88
254105,2541.05
254233,2542.33
254358,2543.58
254478,2544.78
254609,2546.09
254737,2547.37
254867,2548.67
255000,2550.0
255128,2551.28
255260,2552.6
255393,2553.93
255512,2555.12
255643,2556.43
255774,2557.74
255877,2558.77
255997,2559.97
256100,2561.0
256196,2561.96
256319,2563.19
256443,2564.43
256556,2565.56
256660,2566.6
256782,2567.82
256893,2568.93
257015,2570.15
257126,2571.26
257236,2572.36
257335,2573.35
257440,2574.4
257558,2575.58
257670,2576.7
257787,2577.87
257919,2579.19
258042,2580.42
258163,2581.63
258287,2582.87
258405,2584.05
258539,2585.39
258664,2586.64
258787,2587.87
258928,2589.28
259053,2590.53
259174,2591.74
259301,2593.01
259424,2594.24
259538,2595.38
259669,2596.69
259801,2598.01
259938,2599.38
260078,2600.78
260214,2602.14
260359,2603.59
260488,2604.88
260596,2605.96
260708,2607.08
260800,2608.0
260904,2609.04
261009,2610.09
261102,2611.02
261193,2611.93
261282,2612.82
261371,2613.71
261463,2614.63
261572,2615.72
261703,2617.03
261829,2618.29
261959,2619.59
262084,2620.84
262210,2622.1
262336,2623.36
262465,2624.65
262600,2626.0
262728,2627.28
262853,2628.53
262978,2629.78
263101,2631.01
263217,2632.17
263345,2633.45
263468,2634.68
263582,2635.82
263700,2637.0
263824,2638.24
263942,2639.42
264069,2640.69
264200,2642.0
264334,2643.34
264475,2644.75
264612,2646.12
264734,2647.34
264864,2648.64
264998,2649.98
265122,2651.22
265262,2652.62
265387,2653.87
265507,2655.07
265608,2656.08
265727,2657.27
265834,2658.34
265937,2659.37
266034,2660.34
266150,2661.5
266258,2662.58
266363,2663.63
266494,2664.94
266616,2666.16
266740,2667.4
266869,2668.69
266989,2669.89
267114,2671.14
267234,2672.34
267354,2673.54
267482,2674.82
267600,2676.0
267720,2677.2
267848,2678.48
267970,2679.7
268085,2680.85
268207,2682.07
268333,2683.33
268449,2684.49
268580,2685.8
268709,2687.09
268832,2688.32
268968,2689.68
269101,2691.01
269228,2692.28
269371,2693.71
269494,2694.94
269624,2696.24
269744,2697.44
269840,2698.4
269954,2699.54
270088,2700.88
270192,2701.92
270297,2702.97
270403,2704.03
270497,2704.97
270609,2706.09
270725,2707.25
270838,2708.38
270966,2709.66
271092,2710.92
271222,2712.22
271342,2713.42
271467,2714.67
271586,2715.86
271705,2717.05
271830,2718.3
271950,2719.5
272066,2720.66
272195,2721.95
272321,2723.21
272446,2724.46
272576,2725.76
272699,2726.99
272821,2728.21
272964,2729.64
273093,2730.93
273214,2732.14
273345,2733.45
273469,2734.69
273608,2736.08
273741,2737.41
273866,2738.66
274011,2740.11
274146,2741.46
274285,2742.85
274428,2744.28
274551,2745.51
274672,2746.72
274768,2747.68
274869,2748.69
274975,2749.75
275066,2750.66
275178,2751.78
275308,2753.08
275409,2754.09
275516,2755.16
275633,2756.33
275739,2757.39
275852,2758.52
275972,2759.72
276086,2760.86
276209,2762.09
276326,2763.26
276439,2764.39
276563,2765.63
276681,2766.81
276797,2767.97
276912,2769.12
277021,2770.21
277131,2771.31
277242,2772.42
277344,2773.44
277450,2774.5
277565,2775.65
277668,2776.68
277778,2777.78
277906,2779.06
278026,2780.26
278141,2781.41
278271,2782.71
278395,2783.95
278513,2785.13
278648,2786.48
278774,2787.74
278852,2788.52
278931,2789.31
279039,2790.39
279125,2791.25
279210,2792.1
279308,2793.08
279407,2794.07
279539,2795.39
279664,2796.64
279769,2797.69
279883,2798.83
280001,2800.01
280106,2801.06
280235,2802.35
280364,2803.64
280492,2804.92
280624,2806.24
280743,2807.43
280871,2808.71
280996,2809.96
281122,2811.22
281256,2812.56
281383,2813.83
281508,2815.08
281635,2816.35
281757,2817.57
281875,2818.75
282003,2820.03
282122,2821.22
282238,2822.38
282374,2823.74
282497,2824.97
282624,2826.24
282755,2827.55
282878,2828.78
283003,2830.03
283137,2831.37
283261,2832.61
283396,2833.96
283522,2835.22
283621,2836.21
283721,2837.21
283832,2838.32
283942,2839.42
284038,2840.38
284175,2841.75
284311,2843.11
284430,2844.3
284529,2845.29
284629,2846.29
284747,2847.47
284869,2848.69
285000,2850.0
285127,2851.27
285251,2852.51
285375,2853.75
285507,2855.07
285633,2856.33
285755,2857.55
285883,2858.83
286007,2860.07
286133,2861.33
286264,2862.64
286387,2863.87
286507,2865.07
286634,2866.34
286753,2867.53
286879,2868.79
287007,2870.07
287128,2871.28
287257,2872.57
287392,2873.92
287518,2875.18
287658,2876.58
287791,2877.91
287924,2879.24
288046,2880.46
288147,2881.47
288248,2882.48
288364,2883.64
288480,2884.8
288590,2885.9
288699,2886.99
288799,2887.99
288903,2889.03
289005,2890.05
289121,2891.21
289241,2892.41
289369,2893.69
289506,2895.06
289634,2896.34
289772,2897.72
289901,2899.01
290026,2900.26
290155,2901.55
290280,2902.8
290395,2903.95
290519,2905.19
290640,2906.4
290757,2907.57
290883,2908.83
291002,2910.02
291125,2911.25
291255,2912.55
291379,2913.79
291517,2915.17
291653,2916.53
291799,2917.99
291930,2919.3
292060,2920.6
292204,2922.04
292353,2923.53
292469,2924.69
292566,2925.66
292660,2926.6
292786,2927.86
292912,2929.12
293027,2930.27
293136,2931.36
293242,2932.42
293358,2933.58
293469,2934.69
293589,2935.89
293711,2937.11
293831,2938.31
293962,2939.62
294085,2940.85
294208,2942.08
294336,2943.36
294455,2944.55
294581,2945.81
294703,2947.03
294812,2948.12
294934,2949.34
295053,2950.53
295166,2951.66
295289,2952.89
295412,2954.12
295509,2955.09
295606,2956.06
295735,2957.35
295858,2958.58
295979,2959.79
296121,2961.21
296246,2962.46
296374,2963.74
296505,2965.05
296609,2966.09
296714,2967.14
296834,2968.34
296947,2969.47
297072,2970.72
297173,2971.73
297280,2972.8
297371,2973.71
297467,2974.67
297575,2975.75
297671,2976.71
297778,2977.78
297908,2979.08
298027,2980.27
298161,2981.61
298296,2982.96
298426,2984.26
298553,2985.53
298683,2986.83
298808,2988.08
298928,2989.28
299054,2990.54
299175,2991.75
299293,2992.93
299418,2994.18
299538,2995.38
299652,2996.52
299777,2997.77
299907,2999.07
300026,3000.26
300151,3001.51
300272,3002.72
300395,3003.95
300522,3005.22
300648,3006.48
300772,3007.72
300913,3009.13
301043,3010.43
301183,3011.83
301317,3013.17
301439,3014.39
301575,3015.75
301685,3016.85
301781,3017.81
301888,3018.88
301984,3019.84
302078,3020.78
302192,3021.92
302282,3022.82
302376,3023.76
302490,3024.9
302592,3025.92
302714,3027.14
302843,3028.43
302969,3029.69
303109,3031.09
303238,3032.38
303370,3033.7
303496,3034.96
303622,3036.22
303751,3037.51
303868,3038.68
303983,3039.83
304107,3041.07
304224,3042.24
304339,3043.39
304468,3044.68
304589,3045.89
304707,3047.07
304830,3048.3
304952,3049.52
305068,3050.68
305190,3051.9
305321,3053.21
305440,3054.4
305563,3055.63
305702,3057.02
305833,3058.33
305973,3059.73
306108,3061.08
306219,3062.19
306326,3063.26
306420,3064.2
306552,3065.52
306678,3066.78
306787,3067.87
306900,3069.0
307004,3070.04
307109,3071.09
307220,3072.2
307324,3073.24
307449,3074.49
307570,3075.7
307696,3076.96
307823,3078.23
307937,3079.37
308060,3080.6
308181,3081.81
308300,3083.0
308435,3084.35
308561,3085.61
308693,3086.93
308829,3088.29
308951,3089.51
309070,3090.7
309199,3091.99
309322,3093.22
309444,3094.44
309575,3095.75
309700,3097.0
309831,3098.31
309962,3099.62
310090,3100.9
310232,3102.32
310360,3103.6
310491,3104.91
310604,3106.04
310695,3106.95
310794,3107.94
310905,3109.05
311001,3110.01
311095,3110.95
311193,3111.93
311290,3112.9
311391,3113.91
311511,3115.11
311631,3116.31
311744,3117.44
311864,3118.64
311987,3119.87
312116,3121.16
312242,3122.42
312368,3123.68
312486,3124.86
312597,3125.97
312716,3127.16
312833,3128.33
312952,3129.52
313074,3130.74
313190,3131.9
313313,3133.13
313434,3134.34
313545,3135.45
313662,3136.62
313786,3137.86
313903,3139.03
314029,3140.29
314151,3141.51
314264,3142.64
314385,3143.85
314502,3145.02
314620,3146.2
314749,3147.49
314877,3148.77
314996,3149.96
315127,3151.27
315231,3152.31
315339,3153.39
315443,3154.43
315544,3155.44
315660,3156.6
315777,3157.77
315874,3158.74
315972,3159.72
316066,3160.66
316168,3161.68
316276,3162.76
316396,3163.96
316526,3165.26
316650,3166.5
316782,3167.82
316908,3169.08
317039,3170.39
317171,3171.71
317297,3172.97
317425,3174.25
317546,3175.46
317670,3176.7
317788,3177.88
317899,3178.99
318019,3180.19
318145,3181.45
318263,3182.63
318389,3183.89
318512,3185.12
318633,3186.33
318770,3187.7
318895,3188.95
319024,3190.24
319166,3191.66
319295,3192.95
319432,3194.32
319558,3195.58
319659,3196.59
319760,3197.6
319881,3198.81
320003,3200.03
320112,3201.12
320233,3202.33
320339,3203.39
320450,3204.5
320554,3205.54
320666,3206.66
320797,3207.97
320919,3209.19
321043,3210.43
321175,3211.75
321300,3213.0
321430,3214.3
321556,3215.56
321680,3216.8
321809,3218.09
321929,3219.29
322054,3220.54
322180,3221.8
322302,3223.02
322426,3224.26
322553,3225.53
322673,3226.73
322804,3228.04
322925,3229.25
323049,3230.49
323181,3231.81
323307,3233.07
323441,3234.41
323578,3235.78
323695,3236.95
323820,3238.2
323931,3239.31
324025,3240.25
324153,3241.53
324282,3242.82
324404,3244.04
324506,3245.06
324598,3245.98
324706,3247.06
324826,3248.26
324947,3249.47
325072,3250.72
325204,3252.04
325330,3253.3
325465,3254.65
325602,3256.02
325721,3257.21
325849,3258.49
325971,3259.71
326094,3260.94
326223,3262.23
326343,3263.43
326463,3264.63
326599,3265.99
326721,3267.21
326852,3268.52
326977,3269.77
327117,3271.17
327245,3272.45
327366,3273.66
327506,3275.06
327632,3276.32
327758,3277.58
327887,3278.87
328000,3280.0
328113,3281.13
328239,3282.39
328348,3283.48
328464,3284.64
328567,3285.67
328672,3286.72
328792,3287.92
328900,3289.0
329031,3290.31
329152,3291.52
329274,3292.74
329401,3294.01
329526,3295.26
329658,3296.58
329778,3297.78
329898,3298.98
330025,3300.25
330140,3301.4
330258,3302.58
330382,3303.82
330495,3304.95
330610,3306.1
330728,3307.28
330837,3308.37
330950,3309.5
331070,3310.7
331184,3311.84
331298,3312.98
331424,3314.24
331550,3315.5
331669,3316.69
331804,3318.04
331926,3319.26
332045,3320.45
332183,3321.83
332298,3322.98
332413,3324.13
332514,3325.14
332631,3326.31
332731,3327.31
332819,3328.19
332906,3329.06
332989,3329.89
333070,3330.7
333151,3331.51
333233,3332.33
333326,3333.26
333435,3334.35
333568,3335.68
333699,3336.99
333832,3338.32
333973,3339.73
334116,3341.16
334252,3342.52
334383,3343.83
334520,3345.2
334651,3346.51
334777,3347.77
334912,3349.12
335027,3350.27
335152,3351.52
335278,3352.78
335398,3353.98
335532,3355.32
335661,3356.61
335788,3357.88
335927,3359.27
336062,3360.62
336188,3361.88
336327,3363.27
336457,3364.57
336598,3365.98
336729,3367.29
336848,3368.48
336979,3369.79
337076,3370.76
337174,3371.74
337240,3372.4
337306,3373.06
337402,3374.02
337488,3374.88
337576,3375.76
337665,3376.65
337756,3377.56
337855,3378.55
337969,3379.69
338099,3380.99
338218,3382.18
338351,3383.51
338473,3384.73
338600,3386.0
338724,3387.24
338840,3388.4
338959,3389.59
339084,3390.84
339203,3392.03
339321,3393.21
339444,3394.44
339563,3395.63
339676,3396.76
339807,3398.07
339935,3399.35
340055,3400.55
340184,3401.84
340311,3403.11
340425,3404.25
340544,3405.44
340666,3406.66
340786,3407.86
340920,3409.2
341048,3410.48
341174,3411.74
341307,3413.07
341432,3414.32
341571,3415.71
341700,3417.0
341822,3418.22
341959,3419.59
342064,3420.64
342173,3421.73
342272,3422.72
342390,3423.9
342508,3425.08
342616,3426.16
342718,3427.18
342811,3428.11
342911,3429.11
343025,3430.25
343131,3431.31
343253,3432.53
343375,3433.75
343508,3435.08
343630,3436.3
343761,3437.61
343894,3438.94
344019,3440.19
344148,3441.48
344274,3442.74
344395,3443.95
344527,3445.27
344650,3446.5
344768,3447.68
344891,3448.91
345012,3450.12
345130,3451.3
345253,3452.53
345376,3453.76
345495,3454.95
345625,3456.25
345755,3457.55
345878,3458.78
346009,3460.09
346141,3461.41
346269,3462.69
346403,3464.03
346529,3465.29
346662,3466.62
346801,3468.01
346933,3469.33
347064,3470.64
347179,3471.79
347295,3472.95
347421,3474.21
347522,3475.22
347623,3476.23
347722,3477.22
347813,3478.13
347907,3479.07
348010,3480.1
348119,3481.19
348245,3482.45
348370,3483.7
348497,3484.97
348619,3486.19
348748,3487.48
348866,3488.66
348987,3489.87
349112,3491.12
349234,3492.34
349363,3493.63
349485,3494.85
349600,3496.0
349719,3497.19
349841,3498.41
349959,3499.59
350073,3500.73
350194,3501.94
350317,3503.17
350431,3504.31
350561,3505.61
350687,3506.87
350805,3508.05
350932,3509.32
351061,3510.61
351179,3511.79
351310,3513.1
351442,3514.42
351558,3515.58
351688,3516.88
351797,3517.97
351901,3519.01
352033,3520.33
352146,3521.46
352276,3522.76
352392,3523.92
352507,3525.07
352629,3526.29
352745,3527.45
352874,3528.74
352998,3529.98
353129,3531.29
353263,3532.63
353384,3533.84
353507,3535.07
353633,3536.33
353750,3537.5
353876,3538.76
353985,3539.85
354110,3541.1
354232,3542.32
354356,3543.56
354480,3544.8
354614,3546.14
354740,3547.4
354869,3548.69
354994,3549.94
355089,3550.89
355184,3551.84
355322,3553.22
355460,3554.6
355607,3556.07
355733,3557.33
355858,3558.58
355975,3559.75
356093,3560.93
356230,3562.3
356335,3563.35
356431,3564.31
356524,3565.24
356618,3566.18
356711,3567.11
356837,3568.37
356947,3569.47
357066,3570.66
357187,3571.87
357296,3572.96
357417,3574.17
357538,3575.38
357659,3576.59
357782,3577.82
357894,3578.94
358012,3580.12
358127,3581.27
358238,3582.38
358358,3583.58
358472,3584.72
358582,3585.82
358695,3586.95
358814,3588.14
358917,3589.17
359023,3590.23
359134,3591.34
359255,3592.55
359375,3593.75
359496,3594.96
359626,3596.26
359753,3597.53
359887,3598.87
360011,3600.11
360133,3601.33
360268,3602.68
360404,3604.04
360546,3605.46
360681,3606.81
360816,3608.16
360951,3609.51
361067,3610.67
361173,3611.73
361265,3612.65
361395,3613.95
361526,3615.26
361646,3616.46
361764,3617.64
361876,3618.76
361990,3619.9
362099,3620.99
362213,3622.13
362332,3623.32
362445,3624.45
362565,3625.65
362674,3626.74
362788,3627.88
362908,3629.08
363011,3630.11
363107,3631.07
363198,3631.98
363283,3632.83
363367,3633.67
363451,3634.51
363539,3635.39
363644,3636.44
363749,3637.49
363868,3638.68
363997,3639.97
364118,3641.18
364244,3642.44
364369,3643.69
364501,3645.01
364626,3646.26
364755,3647.55
364877,3648.77
364993,3649.93
365109,3651.09
365220,3652.2
365319,3653.19
365430,3654.3
365558,3655.58
365680,3656.8
365803,3658.03
365932,3659.32
366051,3660.51
366171,3661.71
366307,3663.07
366431,3664.31
366557,3665.57
366691,3666.91
366807,3668.07
366911,3669.11
367000,3670.0
367088,3670.88
367178,3671.78
367264,3672.64
367344,3673.44
367431,3674.31
367570,3675.7
367698,3676.98
367828,3678.28
367951,3679.51
368082,3680.82
368212,3682.12
368332,3683.32
368463,3684.63
368586,3685.86
368712,3687.12
368838,3688.38
368954,3689.54
369063,3690.63
369164,3691.64
369271,3692.71
369380,3693.8
369511,3695.11
369632,3696.32
369749,3697.49
369886,3698.86
370009,3700.09
370129,3701.29
370253,3702.53
370375,3703.75
370492,3704.92
370621,3706.21
370746,3707.46
370863,3708.63
370975,3709.75
371069,3710.69
371172,3711.72
371258,3712.58
371335,3713.35
371413,3714.13
371528,3715.28
371634,3716.34
371735,3717.35
371861,3718.61
371977,3719.77
372098,3720.98
372222,3722.22
372346,3723.46
372479,3724.79
372591,3725.91
372704,3727.04
372834,3728.34
372957,3729.57
373086,3730.86
373205,3732.05
373319,3733.19
373443,3734.43
373564,3735.64
373681,3736.81
373805,3738.05
373929,3739.29
374047,3740.47
374176,3741.76
374301,3743.01
374424,3744.24
374555,3745.55
374680,3746.8
374817,3748.17
374956,3749.56
375082,3750.82
375219,3752.19
375351,3753.51
375490,3754.9
375615,3756.15
375715,3757.15
375815,3758.15
375943,3759.43
376071,3760.71
376191,3761.91
376302,3763.02
376401,3764.01
376511,3765.11
376625,3766.25
376747,3767.47
376872,3768.72
376999,3769.99
377132,3771.32
377256,3772.56
377380,3773.8
377511,3775.11
377623,3776.23
377738,3777.38
377863,3778.63
377980,3779.8
378098,3780.98
378221,3782.21
378334,3783.34
378451,3784.51
378581,3785.81
378703,3787.03
378827,3788.27
378949,3789.49
379080,3790.8
379213,3792.13
379338,3793.38
379468,3794.68
379599,3795.99
379704,3797.04
379817,3798.17
379911,3799.11
380041,3800.41
380172,3801.72
380281,3802.81
380393,3803.93
380515,3805.15
380617,3806.17
380734,3807.34
380845,3808.45
380960,3809.6
381077,3810.77
381198,3811.98
381319,3813.19
381434,3814.34
381556,3815.56
381676,3816.76
381795,3817.95
381919,3819.19
382030,3820.3
382136,3821.36
382242,3822.42
382342,3823.42
382454,3824.54
382571,3825.71
382687,3826.87
382814,3828.14
382935,3829.35
383050,3830.5
383173,3831.73
383297,3832.97
383411,3834.11
383542,3835.42
383665,3836.65
383797,3837.97
383928,3839.28
384071,3840.71
384208,3842.08
384343,3843.43
384466,3844.66
384581,3845.81
384716,3847.16
384853,3848.53
384990,3849.9
385111,3851.11
385207,3852.07
385308,3853.08
385404,3854.04
385499,3854.99
385587,3855.87
385666,3856.66
385745,3857.45
385820,3858.2
385894,3858.94
385966,3859.66
386038,3860.38
386110,3861.1
386181,3861.81
386254,3862.54
386337,3863.37
386461,3864.61
386575,3865.75
386690,3866.9
386813,3868.13
386931,3869.31
387050,3870.5
387174,3871.74
387291,3872.91
387410,3874.1
387523,3875.23
387645,3876.45
387764,3877.64
387876,3878.76
388001,3880.01
388128,3881.28
388247,3882.47
388382,3883.82
388512,3885.12
388634,3886.34
388761,3887.61
388870,3888.7
388976,3889.76
389097,3890.97
389221,3892.21
389341,3893.41
389470,3894.7
389599,3895.99
389732,3897.32
389860,3898.6
389977,3899.77
390088,3900.88
390181,3901.81
390287,3902.87
390404,3904.04
390522,3905.22
390615,3906.15
390712,3907.12
390824,3908.24
390937,3909.37
391040,3910.4
391157,3911.57
391283,3912.83
391410,3914.1
391543,3915.43
391678,3916.78
391809,3918.09
391943,3919.43
392065,3920.65
392175,3921.75
392286,3922.86
392394,3923.94
392511,3925.11
392628,3926.28
392747,3927.47
392869,3928.69
392987,3929.87
393104,3931.04
393228,3932.28
393349,3933.49
393473,3934.73
393601,3936.01
393726,3937.26
393859,3938.59
393983,3939.83
394103,3941.03
394227,3942.27
394326,3943.26
394427,3944.27
394534,3945.34
394627,3946.27
394749,3947.49
394871,3948.71
394984,3949.84
395104,3951.04
395216,3952.16
395345,3953.45
395474,3954.74
395608,3956.08
395744,3957.44
395875,3958.75
396005,3960.05
396126,3961.26
396253,3962.53
396377,3963.77
396486,3964.86
396591,3965.91
396705,3967.05
396822,3968.22
396942,3969.42
397066,3970.66
397198,3971.98
397328,3973.28
397457,3974.57
397592,3975.92
397724,3977.24
397861,3978.61
397995,3979.95
398136,3981.36
398262,3982.62
398391,3983.91
398528,3985.28
398665,3986.65
398787,3987.87
398886,3988.86
398987,3989.87
399095,3990.95
399191,3991.91
399300,3993.0
399410,3994.1
399504,3995.04
399597,3995.97
399689,3996.89
399784,3997.84
399907,3999.07
400022,4000.22
400145,4001.45
400265,4002.65
400385,4003.85
400513,4005.13
400632,4006.32
400752,4007.52
400863,4008.63
400962,4009.62
401070,4010.7
401180,4011.8
401294,4012.94
401413,4014.13
401526,4015.26
401633,4016.33
401750,4017.5
401873,4018.73
401992,4019.92
402120,4021.2
402251,4022.51
402378,4023.78
402507,4025.07
402634,4026.34
402761,4027.61
402889,4028.89
403027,4030.27
403162,4031.62
403292,4032.92
403423,4034.23
403561,4035.61
403704,4037.04
403847,4038.47
403995,4039.95
404129,4041.29
404266,4042.66
404405,4044.05
404548,4045.48
404690,4046.9
404838,4048.38
404974,4049.74
405088,4050.88
405199,4051.99
405294,4052.94
405392,4053.92
405489,4054.89
405588,4055.88
405698,4056.98
405788,4057.88
405877,4058.77
405971,4059.71
406069,4060.69
406160,4061.6
406248,4062.48
406377,4063.77
406490,4064.9
406615,4066.15
406741,4067.41
406867,4068.67
406991,4069.91
407106,4071.06
407210,4072.1
407310,4073.1
407411,4074.11
407519,4075.19
407633,4076.33
407742,4077.42
407847,4078.47
407967,4079.67
408086,4080.86
408199,4081.99
408328,4083.28
408450,4084.5
408562,4085.62
408691,4086.91
408821,4088.21
408940,4089.4
409074,4090.74
409196,4091.96
409315,4093.15
409447,4094.47
409573,4095.73
409702,4097.02
409829,4098.29
409929,4099.29
410024,4100.24
410132,4101.32
410231,4102.31
410350,4103.5
410465,4104.65
410562,4105.62
410665,4106.65
410773,4107.73
410895,4108.95
411025,4110.25
411148,4111.48
411274,4112.74
411398,4113.98
411512,4115.12
411634,4116.34
411752,4117.52
411871,4118.71
411995,4119.95
412111,4121.11
412233,4122.33
412356,4123.56
412479,4124.79
412606,4126.06
412731,4127.31
412851,4128.51
412979,4129.79
413098,4130.98
413212,4132.12
413336,4133.36
413462,4134.62
413588,4135.88
413714,4137.14
413848,4138.48
413986,4139.86
414122,4141.22
414234,4142.34
414358,4143.58
414455,4144.55
414553,4145.53
414649,4146.49
414741,4147.41
414838,4148.38
414925,4149.25
415005,4150.05
415085,4150.85
415167,4151.67
415280,4152.8
415394,4153.94
415518,4155.18
415639,4156.39
415768,4157.68
415892,4158.92
416005,4160.05
416110,4161.1
416219,4162.19
416340,4163.4
416462,4164.62
416583,4165.83
416710,4167.1
416831,4168.31
416953,4169.53
417070,4170.7
417189,4171.89
417317,4173.17
417445,4174.45
417579,4175.79
417725,4177.25
417864,4178.64
418001,4180.01
418137,4181.37
418274,4182.74
418403,4184.03
418535,4185.35
418669,4186.69
418808,4188.08
418943,4189.43
419078,4190.78
419216,4192.16
419354,4193.54
419488,4194.88
419621,4196.21
419762,4197.62
419895,4198.95
420042,4200.42
420181,4201.81
420304,4203.04
420440,4204.4
420572,4205.72
420698,4206.98
420823,4208.23
420940,4209.4
421053,4210.53
421166,4211.66
421278,4212.78
421404,4214.04
421521,4215.21
421640,4216.4
421754,4217.54
421869,4218.69
421984,4219.84
422096,4220.96
422212,4222.12
422329,4223.29
422441,4224.41
422552,4225.52
422676,4226.76
422803,4228.03
422928,4229.28
423049,4230.49
423169,4231.69
423288,4232.88
423406,4234.06
423519,4235.19
423637,4236.37
423761,4237.61
423883,4238.83
424005,4240.05
424127,4241.27
424252,4242.52
424365,4243.65
424479,4244.79
424597,4245.97
424710,4247.1
424817,4248.17
424928,4249.28
425057,4250.57
425179,4251.79
425295,4252.95
425403,4254.03
425510,4255.1
425615,4256.15
425719,4257.19
425826,4258.26
425938,4259.38
426052,4260.52
426172,4261.72
426294,4262.94
426411,4264.11
426526,4265.26
426641,4266.41
426758,4267.58
426875,4268.75
427000,4270.0
427135,4271.35
427273,4272.73
427426,4274.26
427577,4275.77
427723,4277.23
427870,4278.7
428014,4280.14
428157,4281.57
428310,4283.1
428452,4284.52
428601,4286.01
428739,4287.39
428871,4288.71
428984,4289.84
429088,4290.88
429189,4291.89
429274,4292.74
429351,4293.51
429422,4294.22
429494,4294.94
429564,4295.64
429630,4296.3
429695,4296.95
429760,4297.6
429826,4298.26
429896,4298.96
429967,4299.67
430035,4300.35
430103,4301.03
430172,4301.72
430243,4302.43
430319,4303.19
430406,4304.06
430496,4304.96
430578,4305.78
430661,4306.61
430749,4307.49
430843,4308.43
430938,4309.38
431044,4310.44
431169,4311.69
431283,4312.83
431400,4314.0
431517,4315.17
431638,4316.38
431753,4317.53
431875,4318.75
431997,4319.97
432116,4321.16
432246,4322.46
432367,4323.67
432506,4325.06
432639,4326.39
432772,4327.72
432915,4329.15
433058,4330.58
433204,4332.04
433337,4333.37
433484,4334.84
433621,4336.21
433753,4337.53
433906,4339.06
434042,4340.42
434180,4341.8
434314,4343.14
434449,4344.49
434577,4345.77
434708,4347.08
434837,4348.37
434967,4349.67
435089,4350.89
435213,4352.13
435338,4353.38
435457,4354.57
435589,4355.89
435711,4357.11
435845,4358.45
435968,4359.68
436103,4361.03
436228,4362.28
436356,4363.56
436477,4364.77
436599,4365.99
436722,4367.22
436849,4368.49
436958,4369.58
437066,4370.66
437179,4371.79
437295,4372.95
437412,4374.12
437524,4375.24
437647,4376.47
437759,4377.59
437877,4378.77
438001,4380.01
438114,4381.14
438235,4382.35
438354,4383.54
438477,4384.77
438593,4385.93
438716,4387.16
438835,4388.35
438941,4389.41
439033,4390.33
439117,4391.17
439195,4391.95
439274,4392.74
439347,4393.47
439419,4394.19
439490,4394.9
439568,4395.68
439691,4396.91
439804,4398.04
439903,4399.03
439988,4399.88
440068,4400.68
440145,4401.45
440223,4402.23
440311,4403.11
440427,4404.27
440531,4405.31
440625,4406.25
440721,4407.21
440827,4408.27
440936,4409.36
441044,4410.44
441156,4411.56
441264,4412.64
441366,4413.66
441473,4414.73
441584,4415.84
441701,4417.01
441817,4418.17
441935,4419.35
442056,4420.56
442176,4421.76
442301,4423.01
442424,4424.24
442546,4425.46
442678,4426.78
442808,4428.08
442941,4429.41
443074,4430.74
443205,4432.05
443338,4433.38
443470,4434.7
443601,4436.01
443733,4437.33
443868,4438.68
444003,4440.03
444132,4441.32
444270,4442.7
444397,4443.97
444520,4445.2
444626,4446.26
444717,4447.17
444803,4448.03
444887,4448.87
445006,4450.06
445125,4451.25
445228,4452.28
445336,4453.36
445444,4454.44
445553,4455.53
445665,4456.65
445781,4457.81
445892,4458.92
446009,4460.09
446129,4461.29
446248,4462.48
446367,4463.67
446486,4464.86
446608,4466.08
446729,4467.29
446853,4468.53
446976,4469.76
447105,4471.05
447236,4472.36
447366,4473.66
447500,4475.0
447628,4476.28
447762,4477.62
447892,4478.92
448026,4480.26
448163,4481.63
448298,4482.98
448435,4484.35
448575,4485.75
448716,4487.16
448856,4488.56
448998,4489.98
449139,4491.39
449285,4492.85
449433,4494.33
449571,4495.71
449709,4497.09
449841,4498.41
449963,4499.63
450060,4500.6
450145,4501.45
450223,4502.23
450309,4503.09
450387,4503.87
450461,4504.61
450529,4505.29
450597,4505.97
450665,4506.65
450741,4507.41
450874,4508.74
451006,4510.06
451132,4511.32
451256,4512.56
451378,4513.78
451498,4514.98
451618,4516.18
451733,4517.33
451842,4518.42
451946,4519.46
452056,4520.56
452168,4521.68
452267,4522.67
452365,4523.65
452478,4524.78
452590,4525.9
452704,4527.04
452816,4528.16
452930,4529.3
453047,4530.47
453164,4531.64
453278,4532.78
453396,4533.96
453513,4535.13
453634,4536.34
453758,4537.58
453879,4538.79
454002,4540.02
454129,4541.29
454274,4542.74
454412,4544.12
454536,4545.36
454666,4546.66
454793,4547.93
454924,4549.24
455048,4550.48
455182,4551.82
455317,4553.17
455453,4554.53
455579,4555.79
455681,4556.81
455772,4557.72
455861,4558.61
455945,4559.45
456024,4560.24
456097,4560.97
456169,4561.69
456243,4562.43
456371,4563.71
456494,4564.94
456618,4566.18
456734,4567.34
456846,4568.46
456965,4569.65
457084,4570.84
457187,4571.87
457288,4572.88
457400,4574.0
457515,4575.15
457627,4576.27
457742,4577.42
457854,4578.54
457962,4579.62
458079,4580.79
458201,4582.01
458325,4583.25
458446,4584.46
458565,4585.65
458683,4586.83
458803,4588.03
458926,4589.26
459055,4590.55
459175,4591.75
459295,4592.95
459421,4594.21
459542,4595.42
459671,4596.71
459799,4597.99
459930,4599.3
460062,4600.62
460193,4601.93
460328,4603.28
460467,4604.67
460610,4606.1
460748,4607.48
460880,4608.8
461008,4610.08
461148,4611.48
461285,4612.85
461421,4614.21
461558,4615.58
461691,4616.91
461822,4618.22
461929,4619.29
462021,4620.21
462106,4621.06
462192,4621.92
462278,4622.78
462359,4623.59
462439,4624.39
462551,4625.51
462659,4626.59
462784,4627.84
462910,4629.1
463036,4630.36
463156,4631.56
463274,4632.74
463389,4633.89
463504,4635.04
463618,4636.18
463729,4637.29
463838,4638.38
463943,4639.43
464038,4640.38
464132,4641.32
464230,4642.3
464324,4643.24
464418,4644.18
464515,4645.15
464625,4646.25
464739,4647.39
464853,4648.53
464961,4649.61
465071,4650.71
465186,4651.86
465301,4653.01
465418,4654.18
465536,4655.36
465651,4656.51
465769,4657.69
465885,4658.85
466002,4660.02
466121,4661.21
466247,4662.47
466375,4663.75
466503,4665.03
466633,4666.33
466770,4667.7
466909,4669.09
467042,4670.42
467171,4671.71
467301,4673.01
467434,4674.34
467570,4675.7
467708,4677.08
467843,4678.43
467979,4679.79
468121,4681.21
468265,4682.65
468409,4684.09
468560,4685.6
468704,4687.04
468850,4688.5
468999,4689.99
469158,4691.58
469314,4693.14
469465,4694.65
469629,4696.29
469793,4697.93
469951,4699.51
470091,4700.91
470221,4702.21
470324,4703.24
470410,4704.1
470488,4704.88
470573,4705.73
470662,4706.62
470736,4707.36
470809,4708.09
470882,4708.82
471006,4710.06
471120,4711.2
471234,4712.34
471349,4713.49
471464,4714.64
471578,4715.78
471694,4716.94
471810,4718.1
471927,4719.27
472044,4720.44
472160,4721.6
472276,4722.76
472392,4723.92
472500,4725.0
472603,4726.03
472697,4726.97
472792,4727.92
472896,4728.96
473007,4730.07
473112,4731.12
473203,4732.03
473290,4732.9
473377,4733.77
473505,4735.05
473615,4736.15
473730,4737.3
473848,4738.48
473964,4739.64
474083,4740.83
474203,4742.03
474326,4743.26
474441,4744.41
474566,4745.66
474688,4746.88
474806,4748.06
474935,4749.35
475056,4750.56
475184,4751.84
475311,4753.11
475437,4754.37
475571,4755.71
475699,4756.99
475829,4758.29
475965,4759.65
476100,4761.0
476231,4762.31
476364,4763.64
476502,4765.02
476632,4766.32
476734,4767.34
476825,4768.25
476918,4769.18
477007,4770.07
477093,4770.93
477199,4771.99
477333,4773.33
477456,4774.56
477573,4775.73
477663,4776.63
477749,4777.49
477832,4778.32
477924,4779.24
478052,4780.52
478170,4781.7
478285,4782.85
478402,4784.02
478520,4785.2
478645,4786.45
478766,4787.66
478887,4788.87
479005,4790.05
479129,4791.29
479249,4792.49
479363,4793.63
479482,4794.82
479600,4796.0
479708,4797.08
479818,4798.18
479933,4799.33
480050,4800.5
480178,4801.78
480309,4803.09
480442,4804.42
480573,4805.73
480707,4807.07
480845,4808.45
480980,4809.8
481114,4811.14
481250,4812.5
481386,4813.86
481521,4815.21
481658,4816.58
481791,4817.91
481925,4819.25
482057,4820.57
482196,4821.96
482341,4823.41
482485,4824.85
482635,4826.35
482776,4827.76
482917,4829.17
483061,4830.61
483212,4832.12
483355,4833.55
483502,4835.02
483644,4836.44
483792,4837.92
483936,4839.36
484083,4840.83
484227,4842.27
484370,4843.7
484509,4845.09
484648,4846.48
484784,4847.84
484921,4849.21
485058,4850.58
485189,4851.89
485315,4853.15
485431,4854.31
485555,4855.55
485678,4856.78
485781,4857.81
485876,4858.76
485958,4859.58
486038,4860.38
486122,4861.22
486244,4862.44
486367,4863.67
486466,4864.66
486558,4865.58
486651,4866.51
486749,4867.49
486848,4868.48
486953,4869.53
487063,4870.63
487169,4871.69
487268,4872.68
487369,4873.69
487474,4874.74
487577,4875.77
487686,4876.86
487795,4877.95
487903,4879.03
488025,4880.25
488142,4881.42
488260,4882.6
488382,4883.82
488506,4885.06
488635,4886.35
488763,4887.63
488890,4888.9
489018,4890.18
489150,4891.5
489280,4892.8
489403,4894.03
489539,4895.39
489641,4896.41
489727,4897.27
489813,4898.13
489924,4899.24
490036,4900.36
490122,4901.22
490208,4902.08
490345,4903.45
490475,4904.75
490603,4906.03
490729,4907.29
490856,4908.56
490980,4909.8
491100,4911.0
491219,4912.19
491338,4913.38
491455,4914.55
491570,4915.7
491685,4916.85
491790,4917.9
491896,4918.96
492002,4920.02
492114,4921.14
492221,4922.21
492332,4923.32
492443,4924.43
492557,4925.57
492672,4926.72
492786,4927.86
492903,4929.03
493018,4930.18
493137,4931.37
493258,4932.58
493380,4933.8
493505,4935.05
493630,4936.3
493759,4937.59
493887,4938.87
494027,4940.27
494159,4941.59
494290,4942.9
494420,4944.2
494552,4945.52
494678,4946.78
494813,4948.13
494947,4949.47
495080,4950.8
495217,4952.17
495356,4953.56
495506,4955.06
495651,4956.51
495803,4958.03
495954,4959.54
496108,4961.08
496261,4962.61
496421,4964.21
496570,4965.7
496725,4967.25
496874,4968.74
497016,4970.16
497150,4971.5
497291,4972.91
497409,4974.09
497526,4975.26
497637,4976.37
497748,4977.48
497855,4978.55
497958,4979.58
498063,4980.63
498174,4981.74
498285,4982.85
498399,4983.99
498513,4985.13
498631,4986.31
498748,4987.48
498865,4988.65
498984,4989.84
499103,4991.03
499225,4992.25
499349,4993.49
499478,4994.78
499600,4996.0
499728,4997.28
499852,4998.52
499976,4999.76
500101,5001.01
500229,5002.29
500360,5003.6
500484,5004.84
500610,5006.1
500736,5007.36
500861,5008.61
500990,5009.9
501109,5011.09
501229,5012.29
501347,5013.47
501472,5014.72
501590,5015.9
501713,5017.13
501834,5018.34
501940,5019.4
502024,5020.24
502109,5021.09
502212,5022.12
502302,5023.02
502381,5023.81
502454,5024.54
502524,5025.24
502593,5025.93
502667,5026.67
502798,5027.98
502930,5029.3
503060,5030.6
503179,5031.79
503290,5032.9
503394,5033.94
503496,5034.96
503598,5035.98
503698,5036.98
503798,5037.98
503896,5038.96
504001,5040.01
504107,5041.07
504212,5042.12
504328,5043.28
504438,5044.38
504550,5045.5
504661,5046.61
504774,5047.74
504888,5048.88
505002,5050.02
505121,5051.21
505242,5052.42
505365,5053.65
505485,5054.85
505615,5056.15
505744,5057.44
505884,5058.84
506024,5060.24
506151,5061.51
506287,5062.87
506434,5064.34
506576,5065.76
506729,5067.29
506890,5068.9
507052,5070.52
507214,5072.14
507370,5073.7
507524,5075.24
507696,5076.96
507858,5078.58
508023,5080.23
508197,5081.97
508364,5083.64
508531,5085.31
508689,5086.89
508842,5088.42
508996,5089.96
509137,5091.37
509267,5092.67
509391,5093.91
509496,5094.96
509595,5095.95
509691,5096.91
509778,5097.78
509851,5098.51
509921,5099.21
509995,5099.95
510076,5100.76
510158,5101.58
510256,5102.56
510363,5103.63
510467,5104.67
510571,5105.71
510679,5106.79
510777,5107.77
510863,5108.63
510941,5109.41
511013,5110.13
511084,5110.84
511154,5111.54
511228,5112.28
511348,5113.48
511455,5114.55
511556,5115.56
511650,5116.5
511741,5117.41
511862,5118.62
511968,5119.68
512087,5120.87
512200,5122.0
512311,5123.11
512429,5124.29
512549,5125.49
512665,5126.65
512783,5127.83
512897,5128.97
513019,5130.19
513137,5131.37
513264,5132.64
513382,5133.82
513505,5135.05
513625,5136.25
513754,5137.54
513878,5138.78
514005,5140.05
514133,5141.33
514258,5142.58
514392,5143.92
514519,5145.19
514658,5146.58
514789,5147.89
514929,5149.29
515068,5150.68
515209,5152.09
515347,5153.47
515480,5154.8
515612,5156.12
515755,5157.55
515889,5158.89
516033,5160.33
516173,5161.73
516315,5163.15
516455,5164.55
516586,5165.86
516705,5167.05
516810,5168.1
516898,5168.98
516979,5169.79
517058,5170.58
517142,5171.42
517226,5172.26
517300,5173.0
517370,5173.7
517439,5174.39
517509,5175.09
517632,5176.32
517751,5177.51
517876,5178.76
518003,5180.03
518127,5181.27
518247,5182.47
518367,5183.67
518481,5184.81
518595,5185.95
518706,5187.06
518807,5188.07
518904,5189.04
519005,5190.05
519117,5191.17
519231,5192.31
519346,5193.46
519464,5194.64
519584,5195.84
519708,5197.08
519829,5198.29
519947,5199.47
520072,5200.72
520191,5201.91
520315,5203.15
520436,5204.36
520561,5205.61
520690,5206.9
520813,5208.13
520947,5209.47
521075,5210.75
521218,5212.18
521357,5213.57
521497,5214.97
521634,5216.34
521769,5217.69
521905,5219.05
522039,5220.39
522177,5221.77
522318,5223.18
522453,5224.53
522588,5225.88
522732,5227.32
522874,5228.74
523022,5230.22
523168,5231.68
523308,5233.08
523449,5234.49
523596,5235.96
523738,5237.38
523883,5238.83
524027,5240.27
524164,5241.64
524291,5242.91
524421,5244.21
524538,5245.38
524646,5246.46
524739,5247.39
524820,5248.2
524916,5249.16
525017,5250.17
525125,5251.25
525250,5252.5
525369,5253.69
525483,5254.83
525596,5255.96
525698,5256.98
525813,5258.13
525928,5259.28
526040,5260.4
526147,5261.47
526256,5262.56
526371,5263.71
526484,5264.84
526604,5266.04
526722,5267.22
526843,5268.43
526962,5269.62
527084,5270.84
527207,5272.07
527333,5273.33
527455,5274.55
527577,5275.77
527702,5277.02
527828,5278.28
527957,5279.57
528085,5280.85
528213,5282.13
528340,5283.4
528457,5284.57
528587,5285.87
528712,5287.12
528837,5288.37
528958,5289.58
529080,5290.8
529196,5291.96
529314,5293.14
529440,5294.4
529566,5295.66
529696,5296.96
529824,5298.24
529952,5299.52
530079,5300.79
530205,5302.05
530334,5303.34
530462,5304.62
530596,5305.96
530727,5307.27
530830,5308.3
530921,5309.21
531010,5310.1
531103,5311.03
531187,5311.87
531268,5312.68
531350,5313.5
531447,5314.47
531540,5315.4
531642,5316.42
531749,5317.49
531863,5318.63
531980,5319.8
532093,5320.93
532206,5322.06
532317,5323.17
532425,5324.25
532535,5325.35
532641,5326.41
532744,5327.44
532842,5328.42
532932,5329.32
533015,5330.15
533093,5330.93
533166,5331.66
533237,5332.37
533306,5333.06
533374,5333.74
533451,5334.51
533531,5335.31
533654,5336.54
533767,5337.67
533880,5338.8
533984,5339.84
534075,5340.75
534170,5341.7
534267,5342.67
534356,5343.56
534441,5344.41
534524,5345.24
534610,5346.1
534668,5346.68
534724,5347.24
534781,5347.81
534835,5348.35
534926,5349.26
535009,5350.09
535086,5350.86
535161,5351.61
535231,5352.31
535300,5353.0
535370,5353.7
535442,5354.42
535513,5355.13
535582,5355.82
535651,5356.51
535718,5357.18
535785,5357.85
535850,5358.5
535915,5359.15
535979,5359.79
536042,5360.42
536105,5361.05
536168,5361.68
536232,5362.32
536303,5363.03
536408,5364.08
536516,5365.16
536616,5366.16
536707,5367.07
536797,5367.97
536890,5368.9
536998,5369.98
537103,5371.03
537203,5372.03
537314,5373.14
537427,5374.27
537540,5375.4
537652,5376.52
537756,5377.56
537856,5378.56
537949,5379.49
538042,5380.42
538107,5381.07
538168,5381.68
538229,5382.29
538286,5382.86
538377,5383.77
538460,5384.6
538539,5385.39
538615,5386.15
538688,5386.88
538760,5387.6
538836,5388.36
538963,5389.63
539081,5390.81
539197,5391.97
539308,5393.08
539423,5394.23
539533,5395.33
539637,5396.37
539750,5397.5
539868,5398.68
539981,5399.81
540100,5401.0
540224,5402.24
540340,5403.4
540453,5404.53
540571,5405.71
540676,5406.76
540774,5407.74
540876,5408.76
540973,5409.73
541082,5410.82
541203,5412.03
541316,5413.16
541435,5414.35
541550,5415.5
541651,5416.51
541747,5417.47
541866,5418.66
541986,5419.86
542078,5420.78
542170,5421.7
542304,5423.04
542426,5424.26
542550,5425.5
542658,5426.58
542764,5427.64
542862,5428.62
542967,5429.67
543073,5430.73
543167,5431.67
543265,5432.65
543375,5433.75
543479,5434.79
543592,5435.92
543709,5437.09
543827,5438.27
543946,5439.46
544053,5440.53
544165,5441.65
544277,5442.77
544398,5443.98
544518,5445.18
544641,5446.41
544764,5447.64
544894,5448.94
545031,5450.31
545166,5451.66
545302,5453.02
545451,5454.51
545590,5455.9
545734,5457.34
545871,5458.71
546015,5460.15
546168,5461.68
546321,5463.21
546471,5464.71
546621,5466.21
546764,5467.64
546910,5469.1
547062,5470.62
547208,5472.08
547367,5473.67
547526,5475.26
547670,5476.7
547774,5477.74
547868,5478.68
547959,5479.59
548042,5480.42
548122,5481.22
548255,5482.55
548375,5483.75
548498,5484.98
548617,5486.17
548734,5487.34
548852,5488.52
548972,5489.72
549092,5490.92
549212,5492.12
549330,5493.3
549450,5494.5
549569,5495.69
549690,5496.9
549810,5498.1
549914,5499.14
550012,5500.12
550102,5501.02
550193,5501.93
550309,5503.09
550422,5504.22
550540,5505.4
550664,5506.64
550783,5507.83
550901,5509.01
551018,5510.18
551131,5511.31
551252,5512.52
551372,5513.72
551489,5514.89
551610,5516.1
551728,5517.28
551844,5518.44
551964,5519.64
552081,5520.81
552204,5522.04
552329,5523.29
552453,5524.53
552580,5525.8
552707,5527.07
552829,5528.29
552957,5529.57
553084,5530.84
553216,5532.16
553344,5533.44
553477,5534.77
553599,5535.99
553713,5537.13
553833,5538.33
553945,5539.45
554055,5540.55
554159,5541.59
554253,5542.53
554345,5543.45
554431,5544.31
554520,5545.2
554629,5546.29
554738,5547.38
554823,5548.23
554909,5549.09
555010,5550.1
555112,5551.12
555204,5552.04
555303,5553.03
555419,5554.19
555526,5555.26
555637,5556.37
555751,5557.51
555858,5558.58
555971,5559.71
556088,5560.88
556200,5562.0
556310,5563.1
556415,5564.15
556524,5565.24
556629,5566.29
556724,5567.24
556823,5568.23
556935,5569.35
557050,5570.5
557169,5571.69
557296,5572.96
557430,5574.3
557563,5575.63
557693,5576.93
557824,5578.24
557956,5579.56
558086,5580.86
558225,5582.25
558358,5583.58
558486,5584.86
558613,5586.13
558742,5587.42
558850,5588.5
558941,5589.41
559025,5590.25
559115,5591.15
559202,5592.02
559286,5592.86
559370,5593.7
559476,5594.76
559607,5596.07
559723,5597.23
559824,5598.24
559949,5599.49
560073,5600.73
560192,5601.92
560319,5603.19
560441,5604.41
560565,5605.65
560694,5606.94
560819,5608.19
560944,5609.44
561062,5610.62
561180,5611.8
561300,5613.0
561423,5614.23
561542,5615.42
561665,5616.65
561786,5617.86
561902,5619.02
562019,5620.19
562132,5621.32
562260,5622.6
562385,5623.85
562509,5625.09
562634,5626.34
562760,5627.6
562890,5628.9
563018,5630.18
563143,5631.43
563261,5632.61
563382,5633.82
563505,5635.05
563626,5636.26
563748,5637.48
563861,5638.61
563980,5639.8
564098,5640.98
564199,5641.99
564309,5643.09
564419,5644.19
564528,5645.28
564624,5646.24
564710,5647.1
564796,5647.96
564921,5649.21
565046,5650.46
565139,5651.39
565228,5652.28
565327,5653.27
565425,5654.25
565526,5655.26
565634,5656.34
565740,5657.4
565855,5658.55
565972,5659.72
566088,5660.88
566204,5662.04
566323,5663.23
566435,5664.35
566544,5665.44
566659,5666.59
566779,5667.79
566898,5668.98
567020,5670.2
567142,5671.42
567267,5672.67
567393,5673.93
567520,5675.2
567646,5676.46
567773,5677.73
567900,5679.0
568025,5680.25
568149,5681.49
568274,5682.74
568401,5684.01
568528,5685.28
568654,5686.54
568784,5687.84
568915,5689.15
569045,5690.45
569177,5691.77
569305,5693.05
569437,5694.37
569569,5695.69
569704,5697.04
569836,5698.36
569976,5699.76
570108,5701.08
570237,5702.37
570360,5703.6
570482,5704.82
570599,5705.99
570714,5707.14
570831,5708.31
570947,5709.47
571059,5710.59
571166,5711.66
571272,5712.72
571380,5713.8
571491,5714.91
571610,5716.1
571728,5717.28
571835,5718.35
571950,5719.5
572070,5720.7
572185,5721.85
572315,5723.15
572443,5724.43
572575,5725.75
572700,5727.0
572826,5728.26
572953,5729.53
573082,5730.82
573211,5732.11
573336,5733.36
573459,5734.59
573582,5735.82
573702,5737.02
573816,5738.16
573925,5739.25
574039,5740.39
574150,5741.5
574257,5742.57
574368,5743.68
574492,5744.92
574623,5746.23
574752,5747.52
574889,5748.89
575020,5750.2
575164,5751.64
575298,5752.98
575447,5754.47
575597,5755.97
575745,5757.45
575903,5759.03
576062,5760.62
576221,5762.21
576381,5763.81
576531,5765.31
576678,5766.78
576826,5768.26
576973,5769.73
577107,5771.07
577250,5772.5
577388,5773.88
577535,5775.35
577681,5776.81
577822,5778.22
577975,5779.75
578114,5781.14
578261,5782.61
578402,5784.02
578547,5785.47
578681,5786.81
578821,5788.21
578945,5789.45
579065,5790.65
579182,5791.82
579305,5793.05
579419,5794.19
579531,5795.31
579634,5796.34
579740,5797.4
579845,5798.45
579946,5799.46
580041,5800.41
580131,5801.31
580225,5802.25
580315,5803.15
580401,5804.01
580460,5804.6
580519,5805.19
580612,5806.12
580705,5807.05
580793,5807.93
580877,5808.77
580960,5809.6
581056,5810.56
581173,5811.73
581293,5812.93
581401,5814.01
581497,5814.97
581576,5815.76
581649,5816.49
581727,5817.27
581804,5818.04
581878,5818.78
581947,5819.47
582015,5820.15
582079,5820.79
582143,5821.43
582207,5822.07
582276,5822.76
582387,5823.87
582496,5824.96
582602,5826.02
582691,5826.91
582771,5827.71
582846,5828.46
582918,5829.18
582989,5829.89
583059,5830.59
583132,5831.32
583217,5832.17
583314,5833.14
583403,5834.03
583500,5835.0
583600,5836.0
583710,5837.1
583801,5838.01
583891,5838.91
583995,5839.95
584114,5841.14
584230,5842.3
584337,5843.37
584433,5844.33
584527,5845.27
584642,5846.42
584742,5847.42
584833,5848.33
584928,5849.28
585048,5850.48
585157,5851.57
585249,5852.49
585335,5853.35
585446,5854.46
585568,5855.68
585675,5856.75
585777,5857.77
585890,5858.9
585996,5859.96
586104,5861.04
586215,5862.15
586322,5863.22
586434,5864.34
586527,5865.27
586611,5866.11
586691,5866.91
586771,5867.71
586892,5868.92
587005,5870.05
587111,5871.11
587223,5872.23
587341,5873.41
587454,5874.54
587573,5875.73
587692,5876.92
587810,5878.1
587933,5879.33
588057,5880.57
588176,5881.76
588294,5882.94
588420,5884.2
588544,5885.44
588672,5886.72
588811,5888.11
588940,5889.4
589070,5890.7
589203,5892.03
589332,5893.32
589468,5894.68
589605,5896.05
589737,5897.37
589869,5898.69
590004,5900.04
590145,5901.45
590283,5902.83
590418,5904.18
590555,5905.55
590695,5906.95
590832,5908.32
590975,5909.75
591113,5911.13
591247,5912.47
591385,5913.85
591530,5915.3
591673,5916.73
591811,5918.11
591949,5919.49
592086,5920.86
592229,5922.29
592376,5923.76
592529,5925.29
592681,5926.81
592825,5928.25
592961,5929.61
593099,5930.99
593235,5932.35
593376,5933.76
593518,5935.18
593653,5936.53
593797,5937.97
593933,5939.33
594070,5940.7
594203,5942.03
594342,5943.42
594470,5944.7
594606,5946.06
594742,5947.42
594881,5948.81
595023,5950.23
595161,5951.61
595309,5953.09
595467,5954.67
595617,5956.17
595762,5957.62
595901,5959.01
596038,5960.38
596180,5961.8
596317,5963.17
596430,5964.3
596533,5965.33
596641,5966.41
596752,5967.52
596865,5968.65
596969,5969.69
597070,5970.7
597165,5971.65
597250,5972.5
597327,5973.27
597396,5973.96
597465,5974.65
597531,5975.31
597599,5975.99
597680,5976.8
597790,5977.9
597897,5978.97
598002,5980.02
598106,5981.06
598203,5982.03
598293,5982.93
598380,5983.8
598471,5984.71
598582,5985.82
598691,5986.91
598800,5988.0
598913,5989.13
599028,5990.28
599149,5991.49
599262,5992.62
599377,5993.77
599501,5995.01
599616,5996.16
599747,5997.47
599873,5998.73
599992,5999.92
600127,6001.27
600247,6002.47
600379,6003.79
600500,6005.0
600629,6006.29
600749,6007.49
600882,6008.82
601001,6010.01
601124,6011.24
601239,6012.39
601349,6013.49
601468,6014.68
601587,6015.87
601704,6017.04
601822,6018.22
601934,6019.34
602048,6020.48
602158,6021.58
602271,6022.71
602383,6023.83
602482,6024.82
602569,6025.69
602654,6026.54
602765,6027.65
602862,6028.62
602963,6029.63
603073,6030.73
603175,6031.75
603287,6032.87
603401,6034.01
603514,6035.14
603626,6036.26
603739,6037.39
603855,6038.55
603971,6039.71
604090,6040.9
604208,6042.08
604326,6043.26
604444,6044.44
604557,6045.57
604684,6046.84
604811,6048.11
604939,6049.39
605062,6050.62
605172,6051.72
605271,6052.71
605358,6053.58
605442,6054.42
605529,6055.29
605611,6056.11
605689,6056.89
605765,6057.65
605868,6058.68
605999,6059.99
606122,6061.22
606244,6062.44
606354,6063.54
606459,6064.59
606576,6065.76
606693,6066.93
606800,6068.0
606906,6069.06
607018,6070.18
607133,6071.33
607246,6072.46
607366,6073.66
607486,6074.86
607603,6076.03
607721,6077.21
607832,6078.32
607952,6079.52
608071,6080.71
608194,6081.94
608321,6083.21
608453,6084.53
608586,6085.86
608718,6087.18
608853,6088.53
608988,6089.88
609120,6091.2
609247,6092.47
609372,6093.72
609511,6095.11
609644,6096.44
609781,6097.81
609915,6099.15
610061,6100.61
610202,6102.02
610345,6103.45
610480,6104.8
610617,6106.17
610757,6107.57
610894,6108.94
611028,6110.28
611160,6111.6
611290,6112.9
611412,6114.12
611543,6115.43
611662,6116.62
611785,6117.85
611912,6119.12
612040,6120.4
612170,6121.7
612294,6122.94
612424,6124.24
612547,6125.47
612668,6126.68
612789,6127.89
612915,6129.15
613042,6130.42
613174,6131.74
613306,6133.06
613436,6134.36
613563,6135.63
613681,6136.81
613811,6138.11
613942,6139.42
614064,6140.64
614186,6141.86
614302,6143.02
614419,6144.19
614538,6145.38
614661,6146.61
614785,6147.85
614919,6149.19
615043,6150.43
615170,6151.7
615291,6152.91
615417,6154.17
615538,6155.38
615666,6156.66
615797,6157.97
615929,6159.29
616072,6160.72
616207,6162.07
616345,6163.45
616480,6164.8
616626,6166.26
616769,6167.69
616911,6169.11
617055,6170.55
617191,6171.91
617324,6173.24
617451,6174.51
617544,6175.44
617622,6176.22
617692,6176.92
617767,6177.67
617838,6178.38
617906,6179.06
617968,6179.68
618031,6180.31
618094,6180.94
618167,6181.67
618228,6182.28
618290,6182.9
618350,6183.5
618411,6184.11
618531,6185.31
618651,6186.51
618768,6187.68
618881,6188.81
618990,6189.9
619100,6191.0
619213,6192.13
619325,6193.25
619439,6194.39
619552,6195.52
619662,6196.62
619762,6197.62
619853,6198.53
619939,6199.39
620028,6200.28
620155,6201.55
620274,6202.74
620394,6203.94
620515,6205.15
620634,6206.34
620773,6207.73
620906,6209.06
621037,6210.37
621172,6211.72
621307,6213.07
621446,6214.46
621584,6215.84
621733,6217.33
621874,6218.74
622030,6220.3
622173,6221.73
622322,6223.22
622460,6224.6
622610,6226.1
622763,6227.63
622919,6229.19
623081,6230.81
623248,6232.48
623417,6234.17
623574,6235.74
623740,6237.4
623907,6239.07
624067,6240.67
624249,6242.49
624432,6244.32
624590,6245.9
624735,6247.35
624840,6248.4
624924,6249.24
624997,6249.97
625078,6250.78
625150,6251.5
625217,6252.17
625280,6252.8
625344,6253.44
625472,6254.72
625604,6256.04
625736,6257.36
625871,6258.71
626007,6260.07
626143,6261.43
626281,6262.81
626414,6264.14
626546,6265.46
626676,6266.76
626805,6268.05
626928,6269.28
627060,6270.6
627188,6271.88
627314,6273.14
627438,6274.38
627558,6275.58
627677,6276.77
627787,6277.87
627879,6278.79
627963,6279.63
628058,6280.58
628193,6281.93
628320,6283.2
628447,6284.47
628577,6285.77
628703,6287.03
628820,6288.2
628928,6289.28
629047,6290.47
629167,6291.67
629272,6292.72
629365,6293.65
629452,6294.52
629516,6295.16
629580,6295.8
629643,6296.43
629706,6297.06
629813,6298.13
629911,6299.11
630011,6300.11
630106,6301.06
630193,6301.93
630278,6302.78
630368,6303.68
630497,6304.97
630619,6306.19
630736,6307.36
630856,6308.56
630978,6309.78
631098,6310.98
631201,6312.01
631293,6312.93
631377,6313.77
631457,6314.57
631537,6315.37
631623,6316.23
631710,6317.1
631795,6317.95
631880,6318.8
631964,6319.64
632046,6320.46
632125,6321.25
632203,6322.03
632277,6322.77
632349,6323.49
632418,6324.18
632487,6324.87
632560,6325.6
632675,6326.75
632785,6327.85
632883,6328.83
632974,6329.74
633073,6330.73
633182,6331.82
633287,6332.87
633393,6333.93
633504,6335.04
633598,6335.98
633684,6336.84
633766,6337.66
633844,6338.44
633919,6339.19
633994,6339.94
634070,6340.7
634146,6341.46
634223,6342.23
634306,6343.06
634394,6343.94
634478,6344.78
634561,6345.61
634647,6346.47
634730,6347.3
634810,6348.1
634888,6348.88
634964,6349.64
635039,6350.39
635115,6351.15
635198,6351.98
635281,6352.81
635360,6353.6
635439,6354.39
635520,6355.2
635607,6356.07
635697,6356.97
635792,6357.92
635886,6358.86
635975,6359.75
636066,6360.66
636170,6361.7
636284,6362.84
636401,6364.01
636512,6365.12
636623,6366.23
636745,6367.45
636872,6368.72
637000,6370.0
637125,6371.25
637250,6372.5
637374,6373.74
637500,6375.0
637629,6376.29
637755,6377.55
637877,6378.77
637997,6379.97
638107,6381.07
638207,6382.07
638341,6383.41
638475,6384.75
638590,6385.9
638692,6386.92
638802,6388.02
638923,6389.23
639036,6390.36
639143,6391.43
639262,6392.62
639383,6393.83
639503,6395.03
639627,6396.27
639752,6397.52
639868,6398.68
639980,6399.8
640095,6400.95
640205,6402.05
640317,6403.17
640436,6404.36
640556,6405.56
640669,6406.69
640788,6407.88
640914,6409.14
641038,6410.38
641152,6411.52
641268,6412.68
641384,6413.84
641487,6414.87
641587,6415.87
641710,6417.1
641828,6418.28
641946,6419.46
642059,6420.59
642173,6421.73
642293,6422.93
642407,6424.07
642526,6425.26
642648,6426.48
642754,6427.54
642848,6428.48
642971,6429.71
643095,6430.95
643198,6431.98
643310,6433.1
643433,6434.33
643549,6435.49
643663,6436.63
643776,6437.76
643892,6438.92
644012,6440.12
644127,6441.27
644236,6442.36
644348,6443.48
644465,6444.65
644575,6445.75
644686,6446.86
644797,6447.97
644913,6449.13
645026,6450.26
645146,6451.46
645264,6452.64
645374,6453.74
645480,6454.8
645596,6455.96
645712,6457.12
645817,6458.17
645929,6459.29
646047,6460.47
646150,6461.5
646246,6462.46
646380,6463.8
646499,6464.99
646611,6466.11
646732,6467.32
646843,6468.43
646958,6469.58
647083,6470.83
647200,6472.0
647314,6473.14
647442,6474.42
647566,6475.66
647691,6476.91
647812,6478.12
647929,6479.29
648050,6480.5
648171,6481.71
648277,6482.77
648380,6483.8
648496,6484.96
648609,6486.09
648726,6487.26
648848,6488.48
648963,6489.63
649087,6490.87
649211,6492.11
649329,6493.29
649453,6494.53
649582,6495.82
649691,6496.91
649801,6498.01
649919,6499.19
650017,6500.17
650118,6501.18
650234,6502.34
650332,6503.32
650430,6504.3
650564,6505.64
650685,6506.85
650792,6507.92
650895,6508.95
651004,6510.04
651107,6511.07
651218,6512.18
651336,6513.36
651453,6514.53
651571,6515.71
651690,6516.9
651800,6518.0
651913,6519.13
652033,6520.33
652151,6521.51
652272,6522.72
652392,6523.92
652506,6525.06
652624,6526.24
652737,6527.37
652845,6528.45
652938,6529.38
653026,6530.26
653131,6531.31
653235,6532.35
653350,6533.5
653465,6534.65
653565,6535.65
653666,6536.66
653793,6537.93
653903,6539.03
654009,6540.09
654132,6541.32
654243,6542.43
654357,6543.57
654477,6544.77
654588,6545.88
654702,6547.02
654824,6548.24
654936,6549.36
655044,6550.44
655154,6551.54
655265,6552.65
655381,6553.81
655503,6555.03
655617,6556.17
655736,6557.36
655843,6558.43
655943,6559.43
656046,6560.46
656166,6561.66
656275,6562.75
656392,6563.92
656493,6564.93
656599,6565.99
656700,6567.0
656790,6567.9
656884,6568.84
657015,6570.15
657137,6571.37
657240,6572.4
657343,6573.43
657455,6574.55
657559,6575.59
657669,6576.69
657779,6577.79
657882,6578.82
657992,6579.92
658107,6581.07
658213,6582.13
658322,6583.22
658434,6584.34
658533,6585.33
658634,6586.34
658747,6587.47
658858,6588.58
658974,6589.74
659095,6590.95
659209,6592.09
659340,6593.4
659468,6594.68
659593,6595.93
659719,6597.19
659837,6598.37
659946,6599.46
660064,6600.64
660162,6601.62
660260,6602.6
660381,6603.81
660502,6605.02
660608,6606.08
660711,6607.11
660809,6608.09
660904,6609.04
660998,6609.98
661088,6610.88
661201,6612.01
661318,6613.18
661427,6614.27
661529,6615.29
661630,6616.3
661734,6617.34
661833,6618.33
661927,6619.27
662014,6620.14
662097,6620.97
662186,6621.86
662313,6623.13
662428,6624.28
662541,6625.41
662659,6626.59
662774,6627.74
662887,6628.87
663000,6630.0
663115,6631.15
663233,6632.33
663343,6633.43
663454,6634.54
663571,6635.71
663685,6636.85
663798,6637.98
663917,6639.17
664035,6640.35
664144,6641.44
664257,6642.57
664361,6643.61
664461,6644.61
664571,6645.71
664695,6646.95
664812,6648.12
664945,6649.45
665075,6650.75
665203,6652.03
665344,6653.44
665471,6654.71
665600,6656.0
665723,6657.23
665824,6658.24
665928,6659.28
666045,6660.45
666135,6661.35
666225,6662.25
666299,6662.99
666373,6663.73
666479,6664.79
666586,6665.86
666677,6666.77
666775,6667.75
666870,6668.7
666963,6669.63
667071,6670.71
667187,6671.87
667300,6673.0
667425,6674.25
667547,6675.47
667664,6676.64
667788,6677.88
667905,6679.05
668020,6680.2
668141,6681.41
668252,6682.52
668352,6683.52
668454,6684.54
668571,6685.71
668684,6686.84
668802,6688.02
668923,6689.23
669035,6690.35
669154,6691.54
669277,6692.77
669400,6694.0
669514,6695.14
669638,6696.38
669762,6697.62
669877,6698.77
670005,6700.05
670127,6701.27
670238,6702.38
670357,6703.57
670465,6704.65
670557,6705.57
670649,6706.49
670744,6707.44
670831,6708.31
670939,6709.39
671062,6710.62
671178,6711.78
671280,6712.8
671386,6713.86
671500,6715.0
671612,6716.12
671731,6717.31
671841,6718.41
671949,6719.49
672066,6720.66
672180,6721.8
672286,6722.86
672394,6723.94
672508,6725.08
672615,6726.15
672717,6727.17
672833,6728.33
672949,6729.49
673062,6730.62
673180,6731.8
673300,6733.0
673413,6734.13
673534,6735.34
673657,6736.57
673775,6737.75
673899,6738.99
674021,6740.21
674145,6741.45
674269,6742.69
674380,6743.8
674494,6744.94
674615,6746.15
674724,6747.24
674838,6748.38
674946,6749.46
675036,6750.36
675134,6751.34
675247,6752.47
675342,6753.42
675437,6754.37
675559,6755.59
675666,6756.66
675759,6757.59
675849,6758.49
675946,6759.46
676046,6760.46
676149,6761.49
676269,6762.69
676385,6763.85
676507,6765.07
676633,6766.33
676753,6767.53
676874,6768.74
676998,6769.98
677116,6771.16
677232,6772.32
677354,6773.54
677469,6774.69
677579,6775.79
677692,6776.92
677805,6778.05
677912,6779.12
678019,6780.19
678116,6781.16
678216,6782.16
678329,6783.29
678447,6784.47
678568,6785.68
678684,6786.84
678791,6787.91
678907,6789.07
679021,6790.21
679120,6791.2
679218,6792.18
679327,6793.27
679437,6794.37
679539,6795.39
679647,6796.47
679741,6797.41
679834,6798.34
679940,6799.4
680038,6800.38
680147,6801.47
680259,6802.59
680373,6803.73
680496,6804.96
680611,6806.11
680722,6807.22
680828,6808.28
680925,6809.25
681023,6810.23
681138,6811.38
681250,6812.5
681360,6813.6
681478,6814.78
681593,6815.93
681708,6817.08
681830,6818.3
681946,6819.46
682066,6820.66
682192,6821.92
682310,6823.1
682426,6824.26
682549,6825.49
682666,6826.66
682783,6827.83
682914,6829.14
683035,6830.35
683141,6831.41
683245,6832.45
683336,6833.36
683422,6834.22
683514,6835.14
683604,6836.04
683686,6836.86
683763,6837.63
683839,6838.39
683917,6839.17
684006,6840.06
684093,6840.93
684181,6841.81
684300,6843.0
684411,6844.11
684515,6845.15
684628,6846.28
684735,6847.35
684851,6848.51
684965,6849.65
685077,6850.77
685191,6851.91
685305,6853.05
685419,6854.19
685531,6855.31
685637,6856.37
685749,6857.49
685853,6858.53
685950,6859.5
686053,6860.53
686168,6861.68
686276,6862.76
686388,6863.88
686499,6864.99
686607,6866.07
686724,6867.24
686842,6868.42
686951,6869.51
687069,6870.69
687179,6871.79
687272,6872.72
687362,6873.62
687483,6874.83
687587,6875.87
687703,6877.03
687809,6878.09
687911,6879.11
688017,6880.17
688127,6881.27
688238,6882.38
688359,6883.59
688471,6884.71
688589,6885.89
688716,6887.16
688836,6888.36
688956,6889.56
689079,6890.79
689195,6891.95
689317,6893.17
689441,6894.41
689563,6895.63
689683,6896.83
689801,6898.01
689916,6899.16
690029,6900.29
690137,6901.37
690248,6902.48
690379,6903.79
690502,6905.02
690626,6906.26
690747,6907.47
690871,6908.71
690983,6909.83
691080,6910.8
691166,6911.66
691254,6912.54
691325,6913.25
691396,6913.96
691517,6915.17
691617,6916.17
691711,6917.11
691806,6918.06
691900,6919.0
692003,6920.03
692117,6921.17
692228,6922.28
692349,6923.49
692466,6924.66
692583,6925.83
692702,6927.02
692816,6928.16
692923,6929.23
693031,6930.31
693137,6931.37
693253,6932.53
693368,6933.68
693478,6934.78
693599,6935.99
693717,6937.17
693827,6938.27
693950,6939.5
694063,6940.63
694170,6941.7
694285,6942.85
694408,6944.08
694528,6945.28
694651,6946.51
694769,6947.69
694892,6948.92
695019,6950.19
695133,6951.33
695248,6952.48
695363,6953.63
695472,6954.72
695575,6955.75
695667,6956.67
695753,6957.53
695866,6958.66
695959,6959.59
696069,6960.69
696175,6961.75
696267,6962.67
696355,6963.55
696453,6964.53
696575,6965.75
696690,6966.9
696805,6968.05
696914,6969.14
697013,6970.13
697107,6971.07
697205,6972.05
697316,6973.16
697419,6974.19
697525,6975.25
697631,6976.31
697725,6977.25
697824,6978.24
697936,6979.36
698042,6980.42
698146,6981.46
698257,6982.57
698365,6983.65
698474,6984.74
698587,6985.87
698701,6987.01
698813,6988.13
698920,6989.2
699024,6990.24
699140,6991.4
699253,6992.53
699359,6993.59
699476,6994.76
699592,6995.92
699703,6997.03
699821,6998.21
699935,6999.35
700047,7000.47
700154,7001.54
700250,7002.5
700337,7003.37
700427,7004.27
700533,7005.33
700639,7006.39
700737,7007.37
700864,7008.64
700971,7009.71
701063,7010.63
701155,7011.55
701258,7012.58
701361,7013.61
701469,7014.69
701588,7015.88
701696,7016.96
701805,7018.05
701926,7019.26
702042,7020.42
702156,7021.56
702277,7022.77
702387,7023.87
702493,7024.93
702605,7026.05
702717,7027.17
702832,7028.32
702952,7029.52
703070,7030.7
703185,7031.85
703304,7033.04
703420,7034.2
703530,7035.3
703655,7036.55
703781,7037.81
703898,7038.98
704021,7040.21
704140,7041.4
704251,7042.51
704366,7043.66
704478,7044.78
704583,7045.83
704696,7046.96
704814,7048.14
704909,7049.09
704998,7049.98
705088,7050.88
705173,7051.73
705268,7052.68
705392,7053.92
705497,7054.97
705593,7055.93
705697,7056.97
705797,7057.97
705915,7059.15
706040,7060.4
706157,7061.57
706285,7062.85
706404,7064.04
706525,7065.25
706648,7066.48
706766,7067.66
706892,7068.92
707004,7070.04
707111,7071.11
707215,7072.15
707320,7073.2
707424,7074.24
707525,7075.25
707624,7076.24
707743,7077.43
707859,7078.59
707969,7079.69
708085,7080.85
708197,7081.97
708318,7083.18
708426,7084.26
708528,7085.28
708624,7086.24
708734,7087.34
708853,7088.53
708968,7089.68
709079,7090.79
709198,7091.98
709309,7093.09
709401,7094.01
709493,7094.93
709605,7096.05
709718,7097.18
709818,7098.18
709919,7099.19
710012,7100.12
710106,7101.06
710195,7101.95
710277,7102.77
710363,7103.63
710469,7104.69
710589,7105.89
710704,7107.04
710819,7108.19
710938,7109.38
711054,7110.54
711170,7111.7
711292,7112.92
711410,7114.1
711526,7115.26
711647,7116.47
711761,7117.61
711861,7118.61
711957,7119.57
712068,7120.68
712177,7121.77
712291,7122.91
712411,7124.11
712528,7125.28
712647,7126.47
712765,7127.65
712883,7128.83
713011,7130.11
713126,7131.26
713240,7132.4
713357,7133.57
713467,7134.67
713592,7135.92
713711,7137.11
713832,7138.32
713956,7139.56
714069,7140.69
714195,7141.95
714317,7143.17
714422,7144.22
714528,7145.28
714618,7146.18
714713,7147.13
714829,7148.29
714945,7149.45
715032,7150.32
715128,7151.28
715255,7152.55
715382,7153.82
715481,7154.81
715575,7155.75
715678,7156.78
715789,7157.89
715898,7158.98
716018,7160.18
716131,7161.31
716247,7162.47
716363,7163.63
716471,7164.71
716584,7165.84
716689,7166.89
716797,7167.97
716914,7169.14
717027,7170.27
717135,7171.35
717251,7172.51
717352,7173.52
717449,7174.49
717552,7175.52
717659,7176.59
717769,7177.69
717886,7178.86
717995,7179.95
718104,7181.04
718213,7182.13
718323,7183.23
718433,7184.33
718548,7185.48
718659,7186.59
718777,7187.77
718894,7188.94
719007,7190.07
719127,7191.27
719248,7192.48
719354,7193.54
719452,7194.52
719540,7195.4
719627,7196.27
719694,7196.94
719762,7197.62
719868,7198.68
719961,7199.61
720060,7200.6
720150,7201.5
720245,7202.45
720361,7203.61
720468,7204.68
720576,7205.76
720696,7206.96
720812,7208.12
720937,7209.37
721054,7210.54
721171,7211.71
721293,7212.93
721412,7214.12
721534,7215.34
721653,7216.53
721765,7217.65
721880,7218.8
721997,7219.97
722102,7221.02
722204,7222.04
722322,7223.22
722437,7224.37
722549,7225.49
722672,7226.72
722798,7227.98
722912,7229.12
723033,7230.33
723155,7231.55
723276,7232.76
723402,7234.02
723526,7235.26
723639,7236.39
723756,7237.56
723870,7238.7
723972,7239.72
724084,7240.84
724202,7242.02
724301,7243.01
724393,7243.93
724478,7244.78
724570,7245.7
724669,7246.69
724757,7247.57
724846,7248.46
724934,7249.34
725022,7250.22
725111,7251.11
725207,7252.07
725303,7253.03
725408,7254.08
725522,7255.22
725628,7256.28
725744,7257.44
725858,7258.58
725970,7259.7
726089,7260.89
726200,7262.0
726310,7263.1
726421,7264.21
726531,7265.31
726636,7266.36
726739,7267.39
726836,7268.36
726927,7269.27
727023,7270.23
727139,7271.39
727252,7272.52
727360,7273.6
727474,7274.74
727598,7275.98
727720,7277.2
727850,7278.5
727975,7279.75
728095,7280.95
728228,7282.28
728355,7283.55
728467,7284.67
728589,7285.89
728706,7287.06
728821,7288.21
728922,7289.22
729011,7290.11
729103,7291.03
729221,7292.21
729340,7293.4
729431,7294.31
729529,7295.29
729619,7296.19
729710,7297.1
729802,7298.02
729902,7299.02
730013,7300.13
730138,7301.38
730258,7302.58
730375,7303.75
730504,7305.04
730623,7306.23
730741,7307.41
730861,7308.61
730973,7309.73
731086,7310.86
731194,7311.94
731291,7312.91
731390,7313.9
731503,7315.03
731622,7316.22
731734,7317.34
731857,7318.57
731977,7319.77
732091,7320.91
732219,7322.19
732339,7323.39
732454,7324.54
732572,7325.72
732692,7326.92
732808,7328.08
732933,7329.33
733055,7330.55
733174,7331.74
733300,7333.0
733431,7334.31
733535,7335.35
733629,7336.29
733713,7337.13
733804,7338.04
733914,7339.14
734009,7340.09
734101,7341.01
734189,7341.89
734283,7342.83
734389,7343.89
734497,7344.97
734609,7346.09
734722,7347.22
734827,7348.27
734940,7349.4
735053,7350.53
735164,7351.64
735285,7352.85
735411,7354.11
735527,7355.27
735642,7356.42
735763,7357.63
735873,7358.73
735973,7359.73
736067,7360.67
736158,7361.58
736254,7362.54
736361,7363.61
736469,7364.69
736574,7365.74
736687,7366.87
736798,7367.98
736908,7369.08
737022,7370.22
737127,7371.27
737231,7372.31
737338,7373.38
737441,7374.41
737551,7375.51
737659,7376.59
737756,7377.56
737854,7378.54
737979,7379.79
738086,7380.86
738186,7381.86
738283,7382.83
738378,7383.78
738470,7384.7
738565,7385.65
738662,7386.62
738775,7387.75
738895,7388.95
739015,7390.15
739141,7391.41
739261,7392.61
739384,7393.84
739507,7395.07
739620,7396.2
739743,7397.43
739864,7398.64
739971,7399.71
740085,7400.85
740200,7402.0
740309,7403.09
740430,7404.3
740544,7405.44
740656,7406.56
740780,7407.8
740902,7409.02
741015,7410.15
741137,7411.37
741256,7412.56
741373,7413.73
741495,7414.95
741613,7416.13
741717,7417.17
741825,7418.25
741919,7419.19
742004,7420.04
742093,7420.93
742207,7422.07
742322,7423.22
742411,7424.11
742502,7425.02
742591,7425.91
742676,7426.76
742765,7427.65
742878,7428.78
742984,7429.84
743105,7431.05
743225,7432.25
743338,7433.38
743457,7434.57
743573,7435.73
743686,7436.86
743800,7438.0
743913,7439.13
744021,7440.21
744132,7441.32
744245,7442.45
744353,7443.53
744461,7444.61
744562,7445.62
744658,7446.58
744756,7447.56
744859,7448.59
744957,7449.57
745062,7450.62
745173,7451.73
745281,7452.81
745398,7453.98
745500,7455.0
745595,7455.95
745697,7456.97
745813,7458.13
745925,7459.25
746039,7460.39
746161,7461.61
746274,7462.74
746381,7463.81
746478,7464.78
746565,7465.65
746652,7466.52
746775,7467.75
746884,7468.84
746992,7469.92
747091,7470.91
747186,7471.86
747286,7472.86
747383,7473.83
747486,7474.86
747598,7475.98
747705,7477.05
747817,7478.17
747933,7479.33
748046,7480.46
748163,7481.63
748274,7482.74
748379,7483.79
748498,7484.98
748618,7486.18
748724,7487.24
748836,7488.36
748949,7489.49
749063,7490.63
749189,7491.89
749306,7493.06
749425,7494.25
749546,7495.46
749659,7496.59
749785,7497.85
749906,7499.06
750015,7500.15
750128,7501.28
750221,7502.21
750306,7503.06
750391,7503.91
750473,7504.73
750554,7505.54
750646,7506.46
750763,7507.63
750871,7508.71
750964,7509.64
751049,7510.49
751133,7511.33
751212,7512.12
751292,7512.92
751373,7513.73
751456,7514.56
751540,7515.4
751627,7516.27
751732,7517.32
751832,7518.32
751937,7519.37
752048,7520.48
752156,7521.56
752270,7522.7
752379,7523.79
752483,7524.83
752595,7525.95
752701,7527.01
752803,7528.03
752901,7529.01
753003,7530.03
753102,7531.02
753202,7532.02
753308,7533.08
753421,7534.21
753540,7535.4
753658,7536.58
753770,7537.7
753883,7538.83
753985,7539.85
754079,7540.79
754171,7541.71
754257,7542.57
754350,7543.5
754452,7544.52
754554,7545.54
754646,7546.46
754737,7547.37
754823,7548.23
754912,7549.12
755028,7550.28
755132,7551.32
755256,7552.56
755380,7553.8
755502,7555.02
755629,7556.29
755740,7557.4
755854,7558.54
755969,7559.69
756077,7560.77
756185,7561.85
756302,7563.02
756416,7564.16
756526,7565.26
756645,7566.45
756760,7567.6
756866,7568.66
756984,7569.84
757102,7571.02
757210,7572.1
757329,7573.29
757449,7574.49
757555,7575.55
757654,7576.54
757759,7577.59
757882,7578.82
758000,7580.0
758116,7581.16
758237,7582.37
758361,7583.61
758471,7584.71
758588,7585.88
758697,7586.97
758793,7587.93
758887,7588.87
758985,7589.85
759071,7590.71
759163,7591.63
759264,7592.64
759352,7593.52
759438,7594.38
759529,7595.29
759621,7596.21
759708,7597.08
759801,7598.01
759898,7598.98
759987,7599.87
760080,7600.8
760192,7601.92
760303,7603.03
760405,7604.05
760510,7605.1
760620,7606.2
760718,7607.18
760823,7608.23
760934,7609.34
761036,7610.36
761130,7611.3
761226,7612.26
761333,7613.33
761437,7614.37
761550,7615.5
761666,7616.66
761778,7617.78
761899,7618.99
762023,7620.23
762132,7621.32
762247,7622.47
762368,7623.68
762483,7624.83
762608,7626.08
762730,7627.3
762841,7628.41
762956,7629.56
763058,7630.58
763148,7631.48
763263,7632.63
763373,7633.73
763472,7634.72
763564,7635.64
763655,7636.55
763743,7637.43
763839,7638.39
763945,7639.45
764049,7640.49
764170,7641.7
764285,7642.85
764400,7644.0
764523,7645.23
764633,7646.33
764745,7647.45
764861,7648.61
764971,7649.71
765077,7650.77
765189,7651.89
765305,7653.05
765406,7654.06
765508,7655.08
765631,7656.31
765749,7657.49
765862,7658.62
765980,7659.8
766094,7660.94
766215,7662.15
766337,7663.37
766455,7664.55
766586,7665.86
766712,7667.12
766826,7668.26
766945,7669.45
767055,7670.55
767159,7671.59
767267,7672.67
767359,7673.59
767451,7674.51
767575,7675.75
767683,7676.83
767780,7677.8
767869,7678.69
767953,7679.53
768044,7680.44
768141,7681.41
768234,7682.34
768334,7683.34
768434,7684.34
768531,7685.31
768637,7686.37
768755,7687.55
768861,7688.61
768969,7689.69
769075,7690.75
769180,7691.8
769292,7692.92
769402,7694.02
769507,7695.07
769618,7696.18
769734,7697.34
769840,7698.4
769950,7699.5
770065,7700.65
770173,7701.73
770291,7702.91
770409,7704.09
770522,7705.22
770646,7706.46
770775,7707.75
770893,7708.93
771009,7710.09
771117,7711.17
771206,7712.06
771293,7712.93
771388,7713.88
771482,7714.82
771568,7715.68
771657,7716.57
771751,7717.51
771849,7718.49
771952,7719.52
772053,7720.53
772151,7721.51
772246,7722.46
772343,7723.43
772445,7724.45
772544,7725.44
772643,7726.43
772737,7727.37
772822,7728.22
772908,7729.08
772997,7729.97
773093,7730.93
773185,7731.85
773283,7732.83
773395,7733.95
773496,7734.96
773594,7735.94
773696,7736.96
773791,7737.91
773879,7738.79
773974,7739.74
774082,7740.82
774192,7741.92
774295,7742.95
774404,7744.04
774517,7745.17
774621,7746.21
774730,7747.3
774849,7748.49
774961,7749.61
775073,7750.73
775197,7751.97
775312,7753.12
775415,7754.15
775522,7755.22
775637,7756.37
775751,7757.51
775877,7758.77
775998,7759.98
776116,7761.16
776223,7762.23
776312,7763.12
776400,7764.0
776500,7765.0
776610,7766.1
776706,7767.06
776793,7767.93
776878,7768.78
776965,7769.65
777070,7770.7
777157,7771.57
777239,7772.39
777321,7773.21
777409,7774.09
777527,7775.27
777629,7776.29
777727,7777.27
777842,7778.42
777952,7779.52
778060,7780.6
778175,7781.75
778281,7782.81
778381,7783.81
778483,7784.83
778587,7785.87
778684,7786.84
778785,7787.85
778882,7788.82
778985,7789.85
779094,7790.94
779189,7791.89
779288,7792.88
779404,7794.04
779514,7795.14
779636,7796.36
779750,7797.5
779861,7798.61
779985,7799.85
780101,7801.01
780216,7802.16
780336,7803.36
780437,7804.37
780542,7805.42
780650,7806.5
780753,7807.53
780884,7808.84
780995,7809.95
781102,7811.02
781209,7812.09
781309,7813.09
781426,7814.26
781533,7815.33
781643,7816.43
781765,7817.65
781876,7818.76
781988,7819.88
782101,7821.01
782208,7822.08
782329,7823.29
782445,7824.45
782555,7825.55
782682,7826.82
782806,7828.06
782920,7829.2
783052,7830.52
783169,7831.69
783274,7832.74
783391,7833.91
783506,7835.06
783611,7836.11
783721,7837.21
783840,7838.4
783946,7839.46
784055,7840.55
784173,7841.73
784278,7842.78
784383,7843.83
784474,7844.74
784560,7845.6
784647,7846.47
784734,7847.34
784819,7848.19
784931,7849.31
785026,7850.26
785116,7851.16
785198,7851.98
785281,7852.81
785369,7853.69
785468,7854.68
785567,7855.67
785680,7856.8
785785,7857.85
785889,7858.89
786002,7860.02
786101,7861.01
786201,7862.01
786309,7863.09
786411,7864.11
786511,7865.11
786619,7866.19
786727,7867.27
786829,7868.29
786944,7869.44
787060,7870.6
787165,7871.65
787272,7872.72
787380,7873.8
787480,7874.8
787584,7875.84
787696,7876.96
787804,7878.04
787919,7879.19
788032,7880.32
788138,7881.38
788251,7882.51
788370,7883.7
788487,7884.87
788603,7886.03
788705,7887.05
788831,7888.31
788958,7889.58
789054,7890.54
789141,7891.41
789224,7892.24
789309,7893.09
789392,7893.92
789469,7894.69
789541,7895.41
789612,7896.12
789683,7896.83
789765,7897.65
789874,7898.74
789969,7899.69
790073,7900.73
790174,7901.74
790276,7902.76
790396,7903.96
790502,7905.02
790609,7906.09
790718,7907.18
790820,7908.2
790920,7909.2
791031,7910.31
791132,7911.32
791239,7912.39
791355,7913.55
791463,7914.63
791565,7915.65
791682,7916.82
791799,7917.99
791910,7919.1
792028,7920.28
792142,7921.42
792246,7922.46
792357,7923.57
792470,7924.7
792580,7925.8
792701,7927.01
792812,7928.12
792934,7929.34
793050,7930.5
793156,7931.56
793278,7932.78
793391,7933.91
793509,7935.09
793622,7936.22
793721,7937.21
793812,7938.12
793894,7938.94
793975,7939.75
794063,7940.63
794148,7941.48
794233,7942.33
794318,7943.18
794403,7944.03
794483,7944.83
794563,7945.63
794655,7946.55
794758,7947.58
794850,7948.5
794944,7949.44
795064,7950.64
795177,7951.77
795280,7952.8
795391,7953.91
795496,7954.96
795601,7956.01
795713,7957.13
795822,7958.22
795928,7959.28
796041,7960.41
796147,7961.47
796255,7962.55
796374,7963.74
796484,7964.84
796593,7965.93
796716,7967.16
796835,7968.35
796945,7969.45
797063,7970.63
797185,7971.85
797299,7972.99
797418,7974.18
797541,7975.41
797659,7976.59
797775,7977.75
797876,7978.76
797996,7979.96
798114,7981.14
798222,7982.22
798336,7983.36
798435,7984.35
798525,7985.25
798619,7986.19
798726,7987.26
798819,7988.19
798907,7989.07
798994,7989.94
799080,7990.8
799173,7991.73
799280,7992.8
799379,7993.79
799494,7994.94
799610,7996.1
799723,7997.23
799847,7998.47
799971,7999.71
800094,8000.94
800209,8002.09
800332,8003.32
800452,8004.52
800568,8005.68
800692,8006.92
800808,8008.08
800916,8009.16
801034,8010.34
801152,8011.52
801263,8012.63
801381,8013.81
801500,8015.0
801615,8016.15
801744,8017.44
801868,8018.68
801989,8019.89
802109,8021.09
802216,8022.16
802325,8023.25
802442,8024.42
802562,8025.62
802663,8026.63
802755,8027.55
802845,8028.45
802934,8029.34
803046,8030.46
803159,8031.59
803255,8032.55
803344,8033.44
803433,8034.33
803520,8035.2
803613,8036.13
803722,8037.22
803821,8038.21
803935,8039.35
804048,8040.48
804156,8041.56
804273,8042.73
804381,8043.81
804491,8044.91
804611,8046.11
804722,8047.22
804837,8048.37
804955,8049.55
805067,8050.67
805174,8051.74
805280,8052.8
805388,8053.88
805490,8054.9
805603,8056.03
805715,8057.15
805818,8058.18
805930,8059.3
806047,8060.47
806157,8061.57
806270,8062.7
806388,8063.88
806498,8064.98
806619,8066.19
806738,8067.38
806846,8068.46
806960,8069.6
807056,8070.56
807142,8071.42
807227,8072.27
807321,8073.21
807408,8074.08
807491,8074.91
807580,8075.8
807690,8076.9
807795,8077.95
807918,8079.18
808040,8080.4
808172,8081.72
808294,8082.94
808418,8084.18
808540,8085.4
808659,8086.59
808789,8087.89
808911,8089.11
809035,8090.35
809160,8091.6
809275,8092.75
809401,8094.01
809520,8095.2
809634,8096.34
809752,8097.52
809864,8098.64
809967,8099.67
810080,8100.8
810190,8101.9
810300,8103.0
810429,8104.29
810550,8105.5
810669,8106.69
810797,8107.97
810913,8109.13
811012,8110.12
811117,8111.17
811223,8112.23
811313,8113.13
811405,8114.05
811511,8115.11
811608,8116.08
811717,8117.17
811820,8118.2
811917,8119.17
812022,8120.22
812126,8121.26
812233,8122.33
812352,8123.52
812460,8124.6
812576,8125.76
812695,8126.95
812810,8128.1
812930,8129.3
813042,8130.42
813152,8131.52
813261,8132.61
813374,8133.74
813477,8134.77
813590,8135.9
813713,8137.13
813822,8138.22
813939,8139.39
814049,8140.49
814160,8141.6
814268,8142.68
814370,8143.7
814489,8144.89
814608,8146.08
814715,8147.15
814827,8148.27
814928,8149.28
815018,8150.18
815117,8151.17
815226,8152.26
815318,8153.18
815408,8154.08
815500,8155.0
815590,8155.9
815683,8156.83
815784,8157.84
815882,8158.82
815991,8159.91
816092,8160.92
816202,8162.02
816314,8163.14
816421,8164.21
816540,8165.4
816654,8166.54
816759,8167.59
816874,8168.74
816989,8169.89
817099,8170.99
817222,8172.22
817342,8173.42
817455,8174.55
817580,8175.8
817698,8176.98
817809,8178.09
817933,8179.33
818048,8180.48
818157,8181.57
818281,8182.81
818400,8184.0
818517,8185.17
818633,8186.33
818738,8187.38
818858,8188.58
818972,8189.72
819072,8190.72
819175,8191.75
819266,8192.66
819349,8193.49
819435,8194.35
819523,8195.23
819607,8196.07
819695,8196.95
819787,8197.87
819870,8198.7
819953,8199.53
820038,8200.38
820126,8201.26
820234,8202.34
820350,8203.5
820460,8204.6
820577,8205.77
820689,8206.89
820795,8207.95
820908,8209.08
821021,8210.21
821126,8211.26
821233,8212.33
821342,8213.42
821444,8214.44
821554,8215.54
821660,8216.6
821769,8217.69
821888,8218.88
822000,8220.0
822113,8221.13
822232,8222.32
822344,8223.44
822457,8224.57
822580,8225.8
822696,8226.96
822821,8228.21
822942,8229.42
823057,8230.57
823183,8231.83
823304,8233.04
823424,8234.24
823554,8235.54
823677,8236.77
823793,8237.93
823913,8239.13
824015,8240.15
824115,8241.15
824218,8242.18
824305,8243.05
824395,8243.95
824485,8244.85
824571,8245.71
824668,8246.68
824775,8247.75
824882,8248.82
824985,8249.85
825096,8250.96
825207,8252.07
825322,8253.22
825438,8254.38
825554,8255.54
825665,8256.65
825776,8257.76
825884,8258.84
825989,8259.89
826106,8261.06
826225,8262.25
826336,8263.36
826456,8264.56
826579,8265.79
826685,8266.85
826794,8267.94
826909,8269.09
827020,8270.2
827150,8271.5
827271,8272.71
827390,8273.9
827519,8275.19
827638,8276.38
827765,8277.65
827890,8278.9
828003,8280.03
828130,8281.3
828255,8282.55
828364,8283.64
828462,8284.62
828552,8285.52
828635,8286.35
828731,8287.31
828832,8288.32
828934,8289.34
829020,8290.2
829108,8291.08
829192,8291.92
829280,8292.8
829373,8293.73
829468,8294.68
829569,8295.69
829679,8296.79
829780,8297.8
829894,8298.94
830009,8300.09
830122,8301.22
830241,8302.41
830354,8303.54
830461,8304.61
830576,8305.76
830684,8306.84
830792,8307.92
830903,8309.03
831010,8310.1
831118,8311.18
831234,8312.34
831344,8313.44
831447,8314.47
831565,8315.65
831678,8316.78
831787,8317.87
831902,8319.02
832017,8320.17
832137,8321.37
832271,8322.71
832379,8323.79
832478,8324.78
832572,8325.72
832656,8326.56
832737,8327.37
832819,8328.19
832907,8329.07
832994,8329.94
833076,8330.76
833158,8331.58
833237,8332.37
833321,8333.21
833407,8334.07
833511,8335.11
833619,8336.19
833727,8337.27
833846,8338.46
833963,8339.63
834085,8340.85
834204,8342.04
834315,8343.15
834430,8344.3
834546,8345.46
834656,8346.56
834772,8347.72
834882,8348.82
834993,8349.93
835109,8351.09
835218,8352.18
835329,8353.29
835445,8354.45
835555,8355.55
835678,8356.78
835790,8357.9
835894,8358.94
836011,8360.11
836126,8361.26
836227,8362.27
836334,8363.34
836439,8364.39
836532,8365.32
836625,8366.25
836743,8367.43
836849,8368.49
836953,8369.53
837048,8370.48
837146,8371.46
837245,8372.45
837353,8373.53
837459,8374.59
837561,8375.61
837681,8376.81
837797,8377.97
837916,8379.16
838046,8380.46
838164,8381.64
838281,8382.81
838399,8383.99
838511,8385.11
838628,8386.28
838741,8387.41
838853,8388.53
838974,8389.74
839086,8390.86
839203,8392.03
839322,8393.22
839434,8394.34
839549,8395.49
839664,8396.64
839771,8397.71
839883,8398.83
839976,8399.76
840065,8400.65
840157,8401.57
840243,8402.43
840333,8403.33
840432,8404.32
840524,8405.24
840615,8406.15
840711,8407.11
840803,8408.03
840900,8409.0
841005,8410.05
841109,8411.09
841230,8412.3
841353,8413.53
841466,8414.66
841587,8415.87
841707,8417.07
841817,8418.17
841921,8419.21
842034,8420.34
842147,8421.47
842253,8422.53
842367,8423.67
842483,8424.83
842592,8425.92
842709,8427.09
842823,8428.23
842935,8429.35
843056,8430.56
843170,8431.7
843282,8432.82
843402,8434.02
843516,8435.16
843633,8436.33
843749,8437.49
843860,8438.6
843978,8439.78
844099,8440.99
844210,8442.1
844323,8443.23
844446,8444.46
844564,8445.64
844662,8446.62
844749,8447.49
844839,8448.39
844924,8449.24
845005,8450.05
845093,8450.93
845151,8451.51
845209,8452.09
845305,8453.05
845394,8453.94
845483,8454.83
845568,8455.68
845656,8456.56
845751,8457.51
845849,8458.49
845951,8459.51
846069,8460.69
846182,8461.82
846298,8462.98
846417,8464.17
846524,8465.24
846622,8466.22
846723,8467.23
846830,8468.3
846932,8469.32
847031,8470.31
847145,8471.45
847252,8472.52
847351,8473.51
847459,8474.59
847567,8475.67
847669,8476.69
847788,8477.88
847898,8478.98
848006,8480.06
848120,8481.2
848232,8482.32
848335,8483.35
848451,8484.51
848547,8485.47
848635,8486.35
848736,8487.36
848852,8488.52
848953,8489.53
849050,8490.5
849144,8491.44
849239,8492.39
849338,8493.38
849432,8494.32
849537,8495.37
849645,8496.45
849752,8497.52
849869,8498.69
849987,8499.87
850108,8501.08
850224,8502.24
850332,8503.32
850451,8504.51
850561,8505.61
850664,8506.64
850777,8507.77
850897,8508.97
851005,8510.05
851123,8511.23
851240,8512.4
851356,8513.56
851475,8514.75
851590,8515.9
851703,8517.03
851820,8518.2
851928,8519.28
852046,8520.46
852160,8521.6
852260,8522.6
852364,8523.64
852456,8524.56
852541,8525.41
852625,8526.25
852708,8527.08
852790,8527.9
852869,8528.69
852946,8529.46
853022,8530.22
853097,8530.97
853170,8531.7
853241,8532.41
853310,8533.1
853379,8533.79
853446,8534.46
853511,8535.11
853577,8535.77
853642,8536.42
853710,8537.1
853781,8537.81
853857,8538.57
853953,8539.53
854051,8540.51
854153,8541.53
854271,8542.71
854382,8543.82
854499,8544.99
854626,8546.26
854744,8547.44
854879,8548.79
855007,8550.07
855121,8551.21
855253,8552.53
855376,8553.76
855471,8554.71
855566,8555.66
855695,8556.95
855812,8558.12
855942,8559.42
856063,8560.63
856184,8561.84
856311,8563.11
856426,8564.26
856547,8565.47
856669,8566.69
856777,8567.77
856892,8568.92
856985,8569.85
857074,8570.74
857169,8571.69
857256,8572.56
857345,8573.45
857434,8574.34
857518,8575.18
857600,8576.0
857684,8576.84
857778,8577.78
857868,8578.68
857976,8579.76
858091,8580.91
858201,8582.01
858318,8583.18
858433,8584.33
858554,8585.54
858671,8586.71
858786,8587.86
858909,8589.09
859023,8590.23
859140,8591.4
859262,8592.62
859378,8593.78
859493,8594.93
859618,8596.18
859735,8597.35
859845,8598.45
859972,8599.72
860093,8600.93
860208,8602.08
860338,8603.38
860455,8604.55
860564,8605.64
860686,8606.86
860809,8608.09
860918,8609.18
861040,8610.4
861150,8611.5
861261,8612.61
861372,8613.72
861462,8614.62
861553,8615.53
861660,8616.6
861767,8617.67
861858,8618.58
861948,8619.48
862034,8620.34
862123,8621.23
862230,8622.3
862327,8623.27
862454,8624.54
862574,8625.74
862695,8626.95
862813,8628.13
862920,8629.2
863026,8630.26
863137,8631.37
863244,8632.44
863360,8633.6
863475,8634.75
863583,8635.83
863702,8637.02
863820,8638.2
863934,8639.34
864058,8640.58
864172,8641.72
864281,8642.81
864406,8644.06
864520,8645.2
864640,8646.4
864763,8647.63
864880,8648.8
865012,8650.12
865139,8651.39
865258,8652.58
865394,8653.94
865515,8655.15
865616,8656.16
865706,8657.06
865789,8657.89
865872,8658.72
865950,8659.5
866027,8660.27
866105,8661.05
866185,8661.85
866262,8662.62
866337,8663.37
866414,8664.14
866504,8665.04
866602,8666.02
866686,8666.86
866777,8667.77
866890,8668.9
866991,8669.91
867095,8670.95
867215,8672.15
867328,8673.28
867443,8674.43
867568,8675.68
867685,8676.85
867805,8678.05
867922,8679.22
868039,8680.39
868164,8681.64
868280,8682.8
868393,8683.93
868513,8685.13
868628,8686.28
868738,8687.38
868852,8688.52
868966,8689.66
869076,8690.76
869191,8691.91
869298,8692.98
869409,8694.09
869526,8695.26
869637,8696.37
869759,8697.59
869877,8698.77
869992,8699.92
870115,8701.15
870231,8702.31
870344,8703.44
870466,8704.66
870577,8705.77
870693,8706.93
870810,8708.1
870919,8709.19
871029,8710.29
871147,8711.47
871256,8712.56
871359,8713.59
871447,8714.47
871528,8715.28
871613,8716.13
871708,8717.08
871804,8718.04
871888,8718.88
871968,8719.68
872046,8720.46
872125,8721.25
872207,8722.07
872286,8722.86
872370,8723.7
872460,8724.6
872551,8725.51
872674,8726.74
872790,8727.9
872898,8728.98
873012,8730.12
873123,8731.23
873232,8732.32
873354,8733.54
873469,8734.69
873571,8735.71
873677,8736.77
873790,8737.9
873898,8738.98
874004,8740.04
874125,8741.25
874244,8742.44
874349,8743.49
874466,8744.66
874583,8745.83
874692,8746.92
874798,8747.98
874904,8749.04
875004,8750.04
875115,8751.15
875233,8752.33
875344,8753.44
875468,8754.68
875585,8755.85
875706,8757.06
875819,8758.19
875929,8759.29
876051,8760.51
876160,8761.6
876261,8762.61
876376,8763.76
876487,8764.87
876598,8765.98
876712,8767.12
876816,8768.16
876926,8769.26
877022,8770.22
877105,8771.05
877187,8771.87
877265,8772.65
877342,8773.42
877420,8774.2
877495,8774.95
877568,8775.68
877643,8776.43
877718,8777.18
877792,8777.92
877868,8778.68
877945,8779.45
878023,8780.23
878107,8781.07
878195,8781.95
878281,8782.81
878380,8783.8
878493,8784.93
878600,8786.0
878709,8787.09
878829,8788.29
878943,8789.43
879057,8790.57
879173,8791.73
879280,8792.8
879391,8793.91
879496,8794.96
879600,8796.0
879710,8797.1
879817,8798.17
879933,8799.33
880047,8800.47
880154,8801.54
880269,8802.69
880377,8803.77
880481,8804.81
880603,8806.03
880717,8807.17
880824,8808.24
880947,8809.47
881070,8810.7
881178,8811.78
881301,8813.01
881425,8814.25
881532,8815.32
881651,8816.51
881777,8817.77
881884,8818.84
881995,8819.95
882087,8820.87
882175,8821.75
882283,8822.83
882379,8823.79
882477,8824.77
882577,8825.77
882664,8826.64
882748,8827.48
882830,8828.3
882912,8829.12
882998,8829.98
883114,8831.14
883224,8832.24
883351,8833.51
883472,8834.72
883600,8836.0
883728,8837.28
883840,8838.4
883954,8839.54
884071,8840.71
884187,8841.87
884308,8843.08
884422,8844.22
884531,8845.31
884640,8846.4
884743,8847.43
884859,8848.59
884971,8849.71
885084,8850.84
885203,8852.03
885312,8853.12
885427,8854.27
885539,8855.39
885653,8856.53
885779,8857.79
885896,8858.96
886012,8860.12
886131,8861.31
886249,8862.49
886384,8863.84
886506,8865.06
886628,8866.28
886747,8867.47
886842,8868.42
886932,8869.32
887022,8870.22
887105,8871.05
887194,8871.94
887281,8872.81
887367,8873.67
887450,8874.5
887530,8875.3
887614,8876.14
887702,8877.02
887789,8877.89
887887,8878.87
888004,8880.04
888116,8881.16
888238,8882.38
888352,8883.52
888460,8884.6
888575,8885.75
888688,8886.88
888807,8888.07
888924,8889.24
889032,8890.32
889143,8891.43
889248,8892.48
889360,8893.6
889474,8894.74
889579,8895.79
889693,8896.93
889807,8898.07
889913,8899.13
890017,8900.17
890136,8901.36
890248,8902.48
890361,8903.61
890476,8904.76
890587,8905.87
890711,8907.11
890829,8908.29
890940,8909.4
891065,8910.65
891187,8911.87
891306,8913.06
891433,8914.33
891549,8915.49
891672,8916.72
891795,8917.95
891898,8918.98
891997,8919.97
892084,8920.84
892167,8921.67
892254,8922.54
892357,8923.57
892446,8924.46
892544,8925.44
892633,8926.33
892721,8927.21
892807,8928.07
892894,8928.94
892987,8929.87
893088,8930.88
893188,8931.88
893307,8933.07
893419,8934.19
893532,8935.32
893649,8936.49
893761,8937.61
893876,8938.76
893990,8939.9
894101,8941.01
894218,8942.18
894328,8943.28
894441,8944.41
894563,8945.63
894676,8946.76
894793,8947.93
894911,8949.11
895018,8950.18
895127,8951.27
895243,8952.43
895353,8953.53
895463,8954.63
895582,8955.82
895690,8956.9
895800,8958.0
895920,8959.2
896030,8960.3
896153,8961.53
896267,8962.67
896369,8963.69
896477,8964.77
896582,8965.82
896691,8966.91
896807,8968.07
896908,8969.08
897013,8970.13
897118,8971.18
897209,8972.09
897307,8973.07
897403,8974.03
897490,8974.9
897578,8975.78
897667,8976.67
897752,8977.52
897838,8978.38
897926,8979.26
898011,8980.11
898101,8981.01
898199,8981.99
898296,8982.96
898413,8984.13
898525,8985.25
898635,8986.35
898760,8987.6
898875,8988.75
898996,8989.96
899110,8991.1
899223,8992.23
899340,8993.4
899452,8994.52
899559,8995.59
899668,8996.68
899776,8997.76
899882,8998.82
899999,8999.99
900112,9001.12
900218,9002.18
900337,9003.37
900457,9004.57
900564,9005.64
900688,9006.88
900815,9008.15
900930,9009.3
901059,9010.59
901178,9011.78
901293,9012.93
901417,9014.17
901531,9015.31
901645,9016.45
901750,9017.5
901838,9018.38
901924,9019.24
902015,9020.15
902098,9020.98
902184,9021.84
902265,9022.65
902346,9023.46
902425,9024.25
902509,9025.09
902596,9025.96
902703,9027.03
902802,9028.02
902906,9029.06
903028,9030.28
903142,9031.42
903261,9032.61
903384,9033.84
903497,9034.97
903618,9036.18
903732,9037.32
903851,9038.51
903970,9039.7
904083,9040.83
904208,9042.08
904326,9043.26
904434,9044.34
904551,9045.51
904668,9046.68
904777,9047.77
904901,9049.01
905020,9050.2
905127,9051.27
905240,9052.4
905355,9053.55
905458,9054.58
905567,9055.67
905687,9056.87
905795,9057.95
905915,9059.15
906031,9060.31
906129,9061.29
906224,9062.24
906311,9063.11
906400,9064.0
906501,9065.01
906600,9066.0
906693,9066.93
906782,9067.82
906869,9068.69
906959,9069.59
907052,9070.52
907144,9071.44
907245,9072.45
907351,9073.51
907452,9074.52
907543,9075.43
907635,9076.35
907757,9077.57
907882,9078.82
908001,9080.01
908117,9081.17
908239,9082.39
908353,9083.53
908469,9084.69
908592,9085.92
908709,9087.09
908823,9088.23
908944,9089.44
909057,9090.57
909169,9091.69
909284,9092.84
909389,9093.89
909504,9095.04
909622,9096.22
909734,9097.34
909852,9098.52
909966,9099.66
910068,9100.68
910189,9101.89
910309,9103.09
910423,9104.23
910551,9105.51
910672,9106.72
910777,9107.77
910886,9108.86
910980,9109.8
911067,9110.67
911155,9111.55
911240,9112.4
911324,9113.24
911413,9114.13
911500,9115.0
911584,9115.84
911669,9116.69
911761,9117.61
911851,9118.51
911956,9119.56
912062,9120.62
912166,9121.66
912282,9122.82
912392,9123.92
912513,9125.13
912626,9126.26
912739,9127.39
912857,9128.57
912965,9129.65
913071,9130.71
913181,9131.81
913281,9132.81
913385,9133.85
913496,9134.96
913604,9136.04
913707,9137.07
913822,9138.22
913936,9139.36
914038,9140.38
914152,9141.52
914267,9142.67
914380,9143.8
914500,9145.0
914613,9146.13
914728,9147.28
914850,9148.5
914962,9149.62
915085,9150.85
915210,9152.1
915330,9153.3
915452,9154.52
915543,9155.43
915629,9156.29
915737,9157.37
915828,9158.28
915924,9159.24
916038,9160.38
916129,9161.29
916219,9162.19
916312,9163.12
916404,9164.04
916524,9165.24
916629,9166.29
916734,9167.34
916861,9168.61
916973,9169.73
917083,9170.83
917194,9171.94
917300,9173.0
917414,9174.14
917523,9175.23
917627,9176.27
917742,9177.42
917856,9178.56
917958,9179.58
918069,9180.69
918186,9181.86
918293,9182.93
918406,9184.06
918523,9185.23
918628,9186.28
918739,9187.39
918861,9188.61
918971,9189.71
919094,9190.94
919216,9192.16
919326,9193.26
919448,9194.48
919567,9195.67
919675,9196.75
919791,9197.91
919890,9198.9
919981,9199.81
920085,9200.85
920181,9201.81
920268,9202.68
920354,9203.54
920441,9204.41
920522,9205.22
920599,9205.99
920676,9206.76
920754,9207.54
920831,9208.31
920917,9209.17
921015,9210.15
921113,9211.13
921228,9212.28
921342,9213.42
921454,9214.54
921563,9215.63
921652,9216.52
921745,9217.45
921859,9218.59
921967,9219.67
922082,9220.82
922196,9221.96
922304,9223.04
922419,9224.19
922533,9225.33
922637,9226.37
922751,9227.51
922862,9228.62
922966,9229.66
