sample,time_sec
60,0.6
151,1.51
244,2.44
337,3.37
432,4.32
528,5.28
626,6.26
724,7.24
823,8.23
920,9.2
1018,10.18
1116,11.16
1214,12.14
1312,13.12
1409,14.09
1507,15.07
1604,16.04
1701,17.01
1803,18.03
1905,19.05
2004,20.04
2102,21.02
2200,22.0
2298,22.98
2397,23.97
2496,24.96
2595,25.95
2696,26.96
2797,27.97
2898,28.98
2998,29.98
3098,30.98
3196,31.96
3294,32.94
3391,33.91
3485,34.85
3579,35.79
3673,36.73
3766,37.66
3860,38.6
3957,39.57
4055,40.55
4155,41.55
4257,42.57
4357,43.57
4459,44.59
4560,45.6
4658,46.58
4753,47.53
4848,48.48
4942,49.42
5036,50.36
5131,51.31
5226,52.26
5323,53.23
5420,54.2
5516,55.16
5613,56.13
5709,57.09
5805,58.05
5900,59.0
5994,59.94
6089,60.89
6187,61.87
6284,62.84
6382,63.82
6479,64.79
6578,65.78
6679,66.79
6781,67.81
6882,68.82
6983,69.83
7083,70.83
7181,71.81
7279,72.79
7375,73.75
7471,74.71
7566,75.66
7661,76.61
7756,77.56
7851,78.51
7947,79.47
8044,80.44
8142,81.42
8240,82.4
8338,83.38
8436,84.36
8531,85.31
8625,86.25
8716,87.16
8804,88.04
8892,88.92
8977,89.77
9062,90.62
9144,91.44
9226,92.26
9309,93.09
9391,93.91
9475,94.75
9558,95.58
9642,96.42
9729,97.29
9817,98.17
9907,99.07
9999,99.99
10092,100.92
10184,101.84
10278,102.78
10373,103.73
10467,104.67
10561,105.61
10656,106.56
10754,107.54
10851,108.51
10947,109.47
11042,110.42
11139,111.39
11234,112.34
11328,113.28
11422,114.22
11517,115.17
11612,116.12
11708,117.08
11801,118.01
11893,118.93
11980,119.8
12067,120.67
12156,121.56
12246,122.46
12337,123.37
12429,124.29
12524,125.24
12621,126.21
12720,127.2
12820,128.2
12918,129.18
13019,130.19
13120,131.2
13218,132.18
13315,133.15
13414,134.14
13515,135.15
13617,136.17
13715,137.15
13814,138.14
13916,139.16
14020,140.2
14126,141.26
14230,142.3
14334,143.34
14441,144.41
14548,145.48
14652,146.52
14754,147.54
14855,148.55
14957,149.57
15060,150.6
15163,151.63
15265,152.65
15365,153.65
15463,154.63
15563,155.63
15663,156.63
15762,157.62
15858,158.58
15954,159.54
16050,160.5
16146,161.46
16241,162.41
16334,163.34
16428,164.28
16524,165.24
16623,166.23
16721,167.21
16818,168.18
16918,169.18
17019,170.19
17121,171.21
17223,172.23
17325,173.25
17426,174.26
17527,175.27
17627,176.27
17726,177.26
17827,178.27
17931,179.31
18034,180.34
18139,181.39
18241,182.41
18343,183.43
18448,184.48
18554,185.54
18660,186.6
18765,187.65
18874,188.74
18984,189.84
19095,190.95
19206,192.06
19308,193.08
19412,194.12
19514,195.14
19617,196.17
19716,197.16
19809,198.09
19904,199.04
20000,200.0
20097,200.97
20192,201.92
20288,202.88
20384,203.84
20478,204.78
20570,205.7
20660,206.6
20746,207.46
20833,208.33
20921,209.21
21010,210.1
21097,210.97
21186,211.86
21278,212.78
21371,213.71
21464,214.64
21558,215.58
21653,216.53
21749,217.49
21844,218.44
21940,219.4
22036,220.36
22132,221.32
22229,222.29
22327,223.27
22426,224.26
22526,225.26
22627,226.27
22728,227.28
22829,228.29
22932,229.32
23035,230.35
23138,231.38
23240,232.4
23341,233.41
23444,234.44
23549,235.49
23653,236.53
23757,237.57
23862,238.62
23968,239.68
24074,240.74
24178,241.78
24280,242.8
24381,243.81
24482,244.82
24582,245.82
24679,246.79
24777,247.77
24875,248.75
24969,249.69
25059,250.59
25147,251.47
25237,252.37
25328,253.28
25420,254.2
25514,255.14
25609,256.09
25704,257.04
25799,257.99
25895,258.95
25995,259.95
26097,260.97
26198,261.98
26302,263.02
26406,264.06
26506,265.06
26607,266.07
26708,267.08
26810,268.1
26910,269.1
27007,270.07
27103,271.03
27201,272.01
27300,273.0
27395,273.95
27485,274.85
27576,275.76
27668,276.68
27762,277.62
27858,278.58
27957,279.57
28055,280.55
28154,281.54
28251,282.51
28347,283.47
28441,284.41
28534,285.34
28627,286.27
28717,287.17
28806,288.06
28894,288.94
28976,289.76
29059,290.59
29149,291.49
29240,292.4
29328,293.28
29419,294.19
29512,295.12
29606,296.06
29703,297.03
29806,298.06
29908,299.08
30013,300.13
30120,301.2
30220,302.2
30319,303.19
30419,304.19
30519,305.19
30615,306.15
30713,307.13
30816,308.16
30920,309.2
31022,310.22
31125,311.25
31231,312.31
31335,313.35
31440,314.4
31544,315.44
31646,316.46
31750,317.5
31854,318.54
31944,319.44
32040,320.4
32131,321.31
32188,321.88
32245,322.45
32303,323.03
32390,323.9
32483,324.83
32573,325.73
32668,326.68
32763,327.63
32858,328.58
32953,329.53
33046,330.46
33137,331.37
33228,332.28
33323,333.23
33421,334.21
33524,335.24
33630,336.3
33739,337.39
33849,338.49
33959,339.59
34069,340.69
34178,341.78
34283,342.83
34385,343.85
34486,344.86
34582,345.82
34679,346.79
34773,347.73
34864,348.64
34955,349.55
35047,350.47
35140,351.4
35235,352.35
35332,353.32
35430,354.3
35532,355.32
35632,356.32
35732,357.32
35830,358.3
35929,359.29
36029,360.29
36128,361.28
36221,362.21
36310,363.1
36398,363.98
36487,364.87
36579,365.79
36672,366.72
36767,367.67
36863,368.63
36956,369.56
37050,370.5
37145,371.45
37237,372.37
37329,373.29
37421,374.21
37513,375.13
37606,376.06
37697,376.97
37785,377.85
37872,378.72
37958,379.58
38046,380.46
38138,381.38
38232,382.32
38330,383.3
38425,384.25
38524,385.24
38625,386.25
38725,387.25
38827,388.27
38927,389.27
39029,390.29
39132,391.32
39236,392.36
39340,393.4
39444,394.44
39548,395.48
39654,396.54
39759,397.59
39861,398.61
39960,399.6
40061,400.61
40162,401.62
40259,402.59
40354,403.54
40449,404.49
40546,405.46
40643,406.43
40740,407.4
40841,408.41
40942,409.42
41042,410.42
41142,411.42
41245,412.45
41345,413.45
41446,414.46
41548,415.48
41649,416.49
41748,417.48
41848,418.48
41949,419.49
42044,420.44
42141,421.41
42236,422.36
42332,423.32
42429,424.29
42525,425.25
42623,426.23
42722,427.22
42819,428.19
42917,429.17
43017,430.17
43113,431.13
43209,432.09
43305,433.05
43402,434.02
43499,434.99
43594,435.94
43690,436.9
43786,437.86
43881,438.81
43978,439.78
44076,440.76
44172,441.72
44270,442.7
44368,443.68
44463,444.63
44558,445.58
44653,446.53
44750,447.5
44846,448.46
44941,449.41
45036,450.36
45127,451.27
45218,452.18
45309,453.09
45400,454.0
45491,454.91
45580,455.8
45670,456.7
45761,457.61
45851,458.51
45943,459.43
46038,460.38
46135,461.35
46231,462.31
46328,463.28
46427,464.27
46525,465.25
46621,466.21
46718,467.18
46818,468.18
46918,469.18
47016,470.16
47115,471.15
47216,472.16
47318,473.18
47418,474.18
47520,475.2
47623,476.23
47725,477.25
47827,478.27
47932,479.32
48039,480.39
48146,481.46
48251,482.51
48356,483.56
48462,484.62
48566,485.66
48666,486.66
48762,487.62
48859,488.59
48958,489.58
49055,490.55
49149,491.49
49245,492.45
49342,493.42
49438,494.38
49533,495.33
49631,496.31
49730,497.3
49830,498.3
49928,499.28
50027,500.27
50124,501.24
50220,502.2
50318,503.18
50416,504.16
50515,505.15
50612,506.12
50711,507.11
50811,508.11
50911,509.11
51010,510.1
51111,511.11
51213,512.13
51315,513.15
51410,514.1
51504,515.04
51596,515.96
51688,516.88
51779,517.79
51873,518.73
51970,519.7
52073,520.73
52175,521.75
52279,522.79
52384,523.84
52489,524.89
52595,525.95
52699,526.99
52803,528.03
52905,529.05
53005,530.05
53106,531.06
53208,532.08
53308,533.08
53409,534.09
53511,535.11
53613,536.13
53714,537.14
53813,538.13
53914,539.14
54012,540.12
54108,541.08
54202,542.02
54296,542.96
54389,543.89
54483,544.83
54579,545.79
54681,546.81
54783,547.83
54884,548.84
54989,549.89
55094,550.94
55196,551.96
55299,552.99
55398,553.98
55496,554.96
55592,555.92
55687,556.87
55782,557.82
55877,558.77
55971,559.71
56064,560.64
56159,561.59
56252,562.52
56347,563.47
56443,564.43
56544,565.44
56645,566.45
56741,567.41
56837,568.37
56932,569.32
57026,570.26
57119,571.19
57214,572.14
57311,573.11
57406,574.06
57502,575.02
57598,575.98
57692,576.92
57785,577.85
57880,578.8
57973,579.73
58062,580.62
58152,581.52
58242,582.42
58333,583.33
58424,584.24
58517,585.17
58611,586.11
58709,587.09
58805,588.05
58902,589.02
59000,590.0
59098,590.98
59194,591.94
59290,592.9
59387,593.87
59484,594.84
59580,595.8
59678,596.78
59775,597.75
59870,598.7
59966,599.66
60063,600.63
60158,601.58
60251,602.51
60343,603.43
60436,604.36
60528,605.28
60620,606.2
60713,607.13
60809,608.09
60907,609.07
61003,610.03
61103,611.03
61205,612.05
61305,613.05
61405,614.05
61503,615.03
61600,616.0
61695,616.95
61790,617.9
61884,618.84
61976,619.76
62068,620.68
62160,621.6
62251,622.51
62342,623.42
62429,624.29
62516,625.16
62602,626.02
62689,626.89
62776,627.76
62864,628.64
62954,629.54
63046,630.46
63140,631.4
63233,632.33
63327,633.27
63423,634.23
63519,635.19
63615,636.15
63712,637.12
63812,638.12
63913,639.13
64010,640.1
64108,641.08
64206,642.06
64306,643.06
64404,644.04
64505,645.05
64608,646.08
64713,647.13
64817,648.17
64919,649.19
65020,650.2
65121,651.21
65216,652.16
65308,653.08
65401,654.01
65496,654.96
65591,655.91
65688,656.88
65780,657.8
65872,658.72
65966,659.66
66058,660.58
66149,661.49
66241,662.41
66337,663.37
66433,664.33
66532,665.32
66636,666.36
66742,667.42
66845,668.45
66946,669.46
67046,670.46
67146,671.46
67243,672.43
67339,673.39
67436,674.36
67533,675.33
67633,676.33
67730,677.3
67826,678.26
67921,679.21
68021,680.21
68121,681.21
68221,682.21
68320,683.2
68416,684.16
68515,685.15
68614,686.14
68711,687.11
68806,688.06
68904,689.04
69005,690.05
69104,691.04
69201,692.01
69300,693.0
69399,693.99
69494,694.94
69591,695.91
69689,696.89
69785,697.85
69880,698.8
69977,699.77
70075,700.75
70172,701.72
70270,702.7
70372,703.72
70477,704.77
70579,705.79
70681,706.81
70783,707.83
70885,708.85
70984,709.84
71082,710.82
71180,711.8
71280,712.8
71378,713.78
71474,714.74
71569,715.69
71666,716.66
71768,717.68
71876,718.76
71982,719.82
72088,720.88
72199,721.99
72311,723.11
72418,724.18
72520,725.2
72621,726.21
72724,727.24
72824,728.24
72922,729.22
73023,730.23
73128,731.28
73231,732.31
73334,733.34
73438,734.38
73545,735.45
73648,736.48
73747,737.47
73846,738.46
73947,739.47
74047,740.47
74143,741.43
74239,742.39
74335,743.35
74429,744.29
74522,745.22
74617,746.17
74715,747.15
74813,748.13
74910,749.1
75009,750.09
75110,751.1
75209,752.09
75305,753.05
75402,754.02
75501,755.01
75600,756.0
75700,757.0
75805,758.05
75912,759.12
76018,760.18
76119,761.19
76218,762.18
76318,763.18
76419,764.19
76518,765.18
76616,766.16
76716,767.16
76819,768.19
76921,769.21
77022,770.22
77125,771.25
77232,772.32
77340,773.4
77444,774.44
77543,775.43
77642,776.42
77743,777.43
77839,778.39
77932,779.32
78025,780.25
78121,781.21
78214,782.14
78307,783.07
78404,784.04
78503,785.03
78602,786.02
78698,786.98
78792,787.92
78889,788.89
78987,789.87
79081,790.81
79173,791.73
79266,792.66
79360,793.6
79454,794.54
79548,795.48
79641,796.41
79734,797.34
79829,798.29
79924,799.24
80018,800.18
80112,801.12
80205,802.05
80305,803.05
80406,804.06
80505,805.05
80603,806.03
80705,807.05
80812,808.12
80914,809.14
81011,810.11
81108,811.08
81207,812.07
81301,813.01
81394,813.94
81489,814.89
81587,815.87
81689,816.89
81789,817.89
81888,818.88
81991,819.91
82093,820.93
82197,821.97
82300,823.0
82399,823.99
82494,824.94
82591,825.91
82688,826.88
82786,827.86
82883,828.83
82977,829.77
83072,830.72
83171,831.71
83271,832.71
83372,833.72
83466,834.66
83559,835.59
83655,836.55
83751,837.51
83844,838.44
83939,839.39
84036,840.36
84129,841.29
84223,842.23
84318,843.18
84413,844.13
84508,845.08
84601,846.01
84699,846.99
84801,848.01
84905,849.05
85007,850.07
85111,851.11
85217,852.17
85323,853.23
85425,854.25
85523,855.23
85621,856.21
85717,857.17
85813,858.13
85908,859.08
86004,860.04
86102,861.02
86199,861.99
86294,862.94
86391,863.91
86495,864.95
86600,866.0
86703,867.03
86803,868.03
86907,869.07
87014,870.14
87118,871.18
87219,872.19
87317,873.17
87412,874.12
87520,875.2
87628,876.28
87718,877.18
87805,878.05
87891,878.91
87976,879.76
88057,880.57
88143,881.43
88231,882.31
88316,883.16
88401,884.01
88486,884.86
88569,885.69
88653,886.53
88736,887.36
88818,888.18
88900,889.0
88981,889.81
89062,890.62
89141,891.41
89219,892.19
89297,892.97
89375,893.75
89451,894.51
89526,895.26
89602,896.02
89678,896.78
89753,897.53
89829,898.29
89903,899.03
89980,899.8
90056,900.56
90133,901.33
90210,902.1
90289,902.89
90368,903.68
90448,904.48
90529,905.29
90612,906.12
90696,906.96
90781,907.81
90867,908.67
90955,909.55
91042,910.42
91129,911.29
91216,912.16
91303,913.03
91390,913.9
91476,914.76
91562,915.62
91649,916.49
91736,917.36
91824,918.24
91913,919.13
92001,920.01
92089,920.89
92177,921.77
92267,922.67
92357,923.57
92446,924.46
92535,925.35
92624,926.24
92713,927.13
92804,928.04
92895,928.95
92987,929.87
93080,930.8
93175,931.75
93270,932.7
93366,933.66
93465,934.65
93566,935.66
93667,936.67
93766,937.66
93864,938.64
93963,939.63
94064,940.64
94167,941.67
94269,942.69
94370,943.7
94472,944.72
94576,945.76
94679,946.79
94782,947.82
94884,948.84
94987,949.87
95091,950.91
95192,951.92
95290,952.9
95388,953.88
95488,954.88
95588,955.88
95689,956.89
95789,957.89
95890,958.9
95992,959.92
96091,960.91
96189,961.89
96288,962.88
96390,963.9
96492,964.92
96593,965.93
96695,966.95
96798,967.98
96901,969.01
97003,970.03
97104,971.04
97207,972.07
97312,973.12
97418,974.18
97525,975.25
97628,976.28
97730,977.3
97829,978.29
97930,979.3
98030,980.3
98129,981.29
98233,982.33
98343,983.43
98459,984.59
98576,985.76
98682,986.82
98787,987.87
98889,988.89
98993,989.93
99093,990.93
99194,991.94
99291,992.91
99383,993.83
99476,994.76
99568,995.68
99657,996.57
99747,997.47
99837,998.37
99928,999.28
100019,1000.19
100110,1001.1
100204,1002.04
100300,1003.0
100399,1003.99
100498,1004.98
100598,1005.98
100699,1006.99
100803,1008.03
100910,1009.1
101018,1010.18
101124,1011.24
101231,1012.31
101340,1013.4
101452,1014.52
101563,1015.63
101670,1016.7
101775,1017.75
101873,1018.73
101971,1019.71
102073,1020.73
102185,1021.85
102301,1023.01
102417,1024.17
102524,1025.24
102630,1026.3
102737,1027.37
102840,1028.4
102942,1029.42
103048,1030.48
103156,1031.56
103268,1032.68
103376,1033.76
103481,1034.81
103587,1035.87
103694,1036.94
103800,1038.0
103904,1039.04
104005,1040.05
104105,1041.05
104208,1042.08
104315,1043.15
104422,1044.22
104526,1045.26
104633,1046.33
104741,1047.41
104847,1048.47
104950,1049.5
105053,1050.53
105157,1051.57
105261,1052.61
105362,1053.62
105459,1054.59
105561,1055.61
105666,1056.66
105771,1057.71
105873,1058.73
105975,1059.75
106079,1060.79
106186,1061.86
106292,1062.92
106395,1063.95
106499,1064.99
106603,1066.03
106707,1067.07
106808,1068.08
106909,1069.09
107010,1070.1
107112,1071.12
107214,1072.14
107314,1073.14
107411,1074.11
107508,1075.08
107608,1076.08
107710,1077.1
107810,1078.1
107909,1079.09
108008,1080.08
108109,1081.09
108212,1082.12
108312,1083.12
108411,1084.11
108511,1085.11
108612,1086.12
108717,1087.17
108819,1088.19
108918,1089.18
109018,1090.18
109121,1091.21
109221,1092.21
109318,1093.18
109416,1094.16
109518,1095.18
109624,1096.24
109727,1097.27
109828,1098.28
109931,1099.31
110036,1100.36
110141,1101.41
110243,1102.43
110345,1103.45
110448,1104.48
110553,1105.53
110659,1106.59
110762,1107.62
110863,1108.63
110965,1109.65
111069,1110.69
111177,1111.77
111280,1112.8
111382,1113.82
111482,1114.82
111585,1115.85
111694,1116.94
111801,1118.01
111905,1119.05
112011,1120.11
112123,1121.23
112233,1122.33
112338,1123.38
112439,1124.39
112540,1125.4
112641,1126.41
112742,1127.42
112843,1128.43
112942,1129.42
113042,1130.42
113143,1131.43
113244,1132.44
113341,1133.41
113439,1134.39
113540,1135.4
113641,1136.41
113740,1137.4
113837,1138.37
113938,1139.38
114041,1140.41
114146,1141.46
114248,1142.48
114349,1143.49
114451,1144.51
114555,1145.55
114658,1146.58
114759,1147.59
114858,1148.58
114957,1149.57
115057,1150.57
115157,1151.57
115256,1152.56
115355,1153.55
115455,1154.55
115558,1155.58
115665,1156.65
115773,1157.73
115880,1158.8
115989,1159.89
116098,1160.98
116207,1162.07
116313,1163.13
116416,1164.16
116523,1165.23
116632,1166.32
116740,1167.4
116847,1168.47
116949,1169.49
117053,1170.53
117163,1171.63
117272,1172.72
117376,1173.76
117476,1174.76
117579,1175.79
117684,1176.84
117787,1177.87
117887,1178.87
117989,1179.89
118096,1180.96
118205,1182.05
118311,1183.11
118416,1184.16
118523,1185.23
118631,1186.31
118736,1187.36
118838,1188.38
118943,1189.43
119051,1190.51
119160,1191.6
119265,1192.65
119368,1193.68
119473,1194.73
119579,1195.79
119685,1196.85
119788,1197.88
119888,1198.88
119993,1199.93
120105,1201.05
120217,1202.17
120324,1203.24
120430,1204.3
120540,1205.4
120653,1206.53
120761,1207.61
120863,1208.63
120965,1209.65
121066,1210.66
121169,1211.69
121269,1212.69
121365,1213.65
121463,1214.63
121562,1215.62
121660,1216.6
121757,1217.57
121854,1218.54
121951,1219.51
122051,1220.51
122150,1221.5
122248,1222.48
122349,1223.49
122452,1224.52
122557,1225.57
122661,1226.61
122764,1227.64
122867,1228.67
122971,1229.71
123072,1230.72
123174,1231.74
123276,1232.76
123376,1233.76
123474,1234.74
123568,1235.68
123659,1236.59
123751,1237.51
123843,1238.43
123934,1239.34
124026,1240.26
124121,1241.21
124220,1242.2
124320,1243.2
124417,1244.17
124518,1245.18
124621,1246.21
124725,1247.25
124827,1248.27
124928,1249.28
125031,1250.31
125135,1251.35
125237,1252.37
125337,1253.37
125434,1254.34
125532,1255.32
125631,1256.31
125729,1257.29
125827,1258.27
125925,1259.25
126026,1260.26
126129,1261.29
126231,1262.31
126333,1263.33
126439,1264.39
126548,1265.48
126653,1266.53
126757,1267.57
126863,1268.63
126972,1269.72
127081,1270.81
127185,1271.85
127288,1272.88
127391,1273.91
127494,1274.94
127594,1275.94
127696,1276.96
127802,1278.02
127912,1279.12
128023,1280.23
128130,1281.3
128243,1282.43
128360,1283.6
128472,1284.72
128578,1285.78
128684,1286.84
128789,1287.89
128892,1288.92
128991,1289.91
129089,1290.89
129187,1291.87
129287,1292.87
129383,1293.83
129476,1294.76
129569,1295.69
129663,1296.63
129755,1297.55
129846,1298.46
129938,1299.38
130031,1300.31
130122,1301.22
130212,1302.12
130303,1303.03
130394,1303.94
130488,1304.88
130584,1305.84
130685,1306.85
130785,1307.85
130888,1308.88
130987,1309.87
131087,1310.87
131183,1311.83
131275,1312.75
131366,1313.66
131455,1314.55
131543,1315.43
131630,1316.3
131717,1317.17
131805,1318.05
131893,1318.93
131982,1319.82
132072,1320.72
132162,1321.62
132252,1322.52
132342,1323.42
132431,1324.31
132520,1325.2
132610,1326.1
132699,1326.99
132789,1327.89
132878,1328.78
132966,1329.66
133054,1330.54
133141,1331.41
133228,1332.28
133313,1333.13
133399,1333.99
133485,1334.85
133572,1335.72
133661,1336.61
133751,1337.51
133842,1338.42
133935,1339.35
134032,1340.32
134134,1341.34
134238,1342.38
134346,1343.46
134458,1344.58
134571,1345.71
134685,1346.85
134793,1347.93
134898,1348.98
135003,1350.03
135109,1351.09
135217,1352.17
135320,1353.2
135424,1354.24
135528,1355.28
135637,1356.37
135741,1357.41
135842,1358.42
135950,1359.5
136067,1360.67
136185,1361.85
136287,1362.87
136388,1363.88
136489,1364.89
136588,1365.88
136681,1366.81
136775,1367.75
136873,1368.73
136977,1369.77
137083,1370.83
137184,1371.84
137286,1372.86
137391,1373.91
137495,1374.95
137600,1376.0
137701,1377.01
137802,1378.02
137905,1379.05
138008,1380.08
138111,1381.11
138213,1382.13
138314,1383.14
138416,1384.16
138520,1385.2
138623,1386.23
138722,1387.22
138819,1388.19
138917,1389.17
139017,1390.17
139117,1391.17
139214,1392.14
139310,1393.1
139408,1394.08
139510,1395.1
139616,1396.16
139719,1397.19
139821,1398.21
139928,1399.28
140033,1400.33
140136,1401.36
140236,1402.36
140337,1403.37
140443,1404.43
140549,1405.49
140650,1406.5
140749,1407.49
140849,1408.49
140950,1409.5
141049,1410.49
141147,1411.47
141247,1412.47
141351,1413.51
141454,1414.54
141554,1415.54
141654,1416.54
141756,1417.56
141859,1418.59
141957,1419.57
142056,1420.56
142158,1421.58
142265,1422.65
142370,1423.7
142467,1424.67
142567,1425.67
142668,1426.68
142770,1427.7
142869,1428.69
142966,1429.66
143068,1430.68
143172,1431.72
143275,1432.75
143375,1433.75
143476,1434.76
143580,1435.8
143687,1436.87
143793,1437.93
143891,1438.91
143992,1439.92
144092,1440.92
144191,1441.91
144289,1442.89
144391,1443.91
144497,1444.97
144599,1445.99
144699,1446.99
144800,1448.0
144902,1449.02
145005,1450.05
145102,1451.02
145197,1451.97
145295,1452.95
145396,1453.96
145497,1454.97
145594,1455.94
145691,1456.91
145790,1457.9
145890,1458.9
145989,1459.89
146087,1460.87
146186,1461.86
146287,1462.87
146387,1463.87
146484,1464.84
146581,1465.81
146680,1466.8
146777,1467.77
146868,1468.68
146959,1469.59
147053,1470.53
147151,1471.51
147244,1472.44
147337,1473.37
147434,1474.34
147535,1475.35
147635,1476.35
147730,1477.3
147826,1478.26
147927,1479.27
148028,1480.28
148130,1481.3
148228,1482.28
148326,1483.26
148429,1484.29
148532,1485.32
148633,1486.33
148727,1487.27
148821,1488.21
148917,1489.17
149015,1490.15
149109,1491.09
149200,1492.0
149295,1492.95
149394,1493.94
149495,1494.95
149597,1495.97
149694,1496.94
149788,1497.88
149886,1498.86
149985,1499.85
150086,1500.86
150181,1501.81
150276,1502.76
150375,1503.75
150481,1504.81
150587,1505.87
150687,1506.87
150785,1507.85
150885,1508.85
150984,1509.84
151082,1510.82
151178,1511.78
151276,1512.76
151377,1513.77
151478,1514.78
151576,1515.76
151674,1516.74
151777,1517.77
151883,1518.83
151982,1519.82
152080,1520.8
152183,1521.83
152284,1522.84
152383,1523.83
152477,1524.77
152574,1525.74
152670,1526.7
152767,1527.67
152860,1528.6
152954,1529.54
153050,1530.5
153151,1531.51
153249,1532.49
153345,1533.45
153446,1534.46
153548,1535.48
153653,1536.53
153751,1537.51
153846,1538.46
153946,1539.46
154047,1540.47
154150,1541.5
154249,1542.49
154345,1543.45
154446,1544.46
154549,1545.49
154654,1546.54
154753,1547.53
154849,1548.49
154949,1549.49
155050,1550.5
155155,1551.55
155254,1552.54
155350,1553.5
155450,1554.5
155550,1555.5
155645,1556.45
155739,1557.39
155839,1558.39
155941,1559.41
156046,1560.46
156144,1561.44
156243,1562.43
156346,1563.46
156449,1564.49
156548,1565.48
156643,1566.43
156744,1567.44
156844,1568.44
156939,1569.39
157032,1570.32
157123,1571.23
157216,1572.16
157313,1573.13
157413,1574.13
157511,1575.11
157610,1576.1
157713,1577.13
157817,1578.17
157914,1579.14
158009,1580.09
158108,1581.08
158208,1582.08
158309,1583.09
158405,1584.05
158503,1585.03
158606,1586.06
158714,1587.14
158815,1588.15
158914,1589.14
159018,1590.18
159126,1591.26
159234,1592.34
159339,1593.39
159443,1594.43
159550,1595.5
159658,1596.58
159763,1597.63
159863,1598.63
159965,1599.65
160068,1600.68
160176,1601.76
160279,1602.79
160377,1603.77
160479,1604.79
160584,1605.84
160690,1606.9
160791,1607.91
160889,1608.89
160991,1609.91
161095,1610.95
161195,1611.95
161293,1612.93
161392,1613.92
161496,1614.96
161601,1616.01
161700,1617.0
161796,1617.96
161893,1618.93
161992,1619.92
162093,1620.93
162189,1621.89
162284,1622.84
162387,1623.87
162489,1624.89
162586,1625.86
162682,1626.82
162785,1627.85
162891,1628.91
162996,1629.96
163094,1630.94
163191,1631.91
163291,1632.91
163391,1633.91
163484,1634.84
163577,1635.77
163674,1636.74
163767,1637.67
163858,1638.58
163945,1639.45
164033,1640.33
164121,1641.21
164210,1642.1
164299,1642.99
164388,1643.88
164480,1644.8
164577,1645.77
164672,1646.72
164767,1647.67
164868,1648.68
164972,1649.72
165079,1650.79
165180,1651.8
165275,1652.75
165372,1653.72
165470,1654.7
165571,1655.71
165667,1656.67
165760,1657.6
165855,1658.55
165951,1659.51
166051,1660.51
166146,1661.46
166241,1662.41
166340,1663.4
166444,1664.44
166548,1665.48
166647,1666.47
166743,1667.43
166844,1668.44
166944,1669.44
167039,1670.39
167132,1671.32
167230,1672.3
167331,1673.31
167434,1674.34
167531,1675.31
167626,1676.26
167727,1677.27
167829,1678.29
167926,1679.26
168020,1680.2
168110,1681.1
168207,1682.07
168292,1682.92
168378,1683.78
168465,1684.65
168550,1685.5
168632,1686.32
168720,1687.2
168810,1688.1
168900,1689.0
168991,1689.91
169086,1690.86
169185,1691.85
169285,1692.85
169380,1693.8
169479,1694.79
169585,1695.85
169691,1696.91
169800,1698.0
169902,1699.02
170001,1700.01
170103,1701.03
170209,1702.09
170314,1703.14
170414,1704.14
170510,1705.1
170610,1706.1
170713,1707.13
170817,1708.17
170912,1709.12
171003,1710.03
171100,1711.0
171200,1712.0
171301,1713.01
171396,1713.96
171492,1714.92
171591,1715.91
171689,1716.89
171782,1717.82
171878,1718.78
171972,1719.72
172066,1720.66
172150,1721.5
172238,1722.38
172327,1723.27
172416,1724.16
172505,1725.05
172590,1725.9
172678,1726.78
172767,1727.67
172852,1728.52
172940,1729.4
173026,1730.26
173113,1731.13
173204,1732.04
173293,1732.93
173386,1733.86
173485,1734.85
173588,1735.88
173692,1736.92
173790,1737.9
173884,1738.84
173982,1739.82
174081,1740.81
174180,1741.8
174277,1742.77
174371,1743.71
174468,1744.68
174567,1745.67
174667,1746.67
174766,1747.66
174863,1748.63
174963,1749.63
175066,1750.66
175173,1751.73
175276,1752.76
175375,1753.75
175474,1754.74
175576,1755.76
175682,1756.82
175784,1757.84
175883,1758.83
175985,1759.85
176089,1760.89
176194,1761.94
176294,1762.94
176392,1763.92
176500,1765.0
176609,1766.09
176709,1767.09
176807,1768.07
176910,1769.1
177012,1770.12
177110,1771.1
177205,1772.05
177304,1773.04
177397,1773.97
177481,1774.81
177567,1775.67
177651,1776.51
177733,1777.33
177815,1778.15
177900,1779.0
177987,1779.87
178075,1780.75
178166,1781.66
178258,1782.58
178350,1783.5
178445,1784.45
178542,1785.42
178652,1786.52
178764,1787.64
178878,1788.78
178987,1789.87
179095,1790.95
179205,1792.05
179315,1793.15
179419,1794.19
179518,1795.18
179622,1796.22
179726,1797.26
179829,1798.29
179924,1799.24
180017,1800.17
180107,1801.07
180196,1801.96
180282,1802.82
180369,1803.69
180458,1804.58
180552,1805.52
180648,1806.48
180749,1807.49
180859,1808.59
180973,1809.73
181086,1810.86
181190,1811.9
181294,1812.94
181400,1814.0
181506,1815.06
181610,1816.1
181710,1817.1
181816,1818.16
181924,1819.24
182031,1820.31
182132,1821.32
182236,1822.36
182344,1823.44
182449,1824.49
182548,1825.48
182645,1826.45
182749,1827.49
182857,1828.57
182963,1829.63
183065,1830.65
183165,1831.65
183271,1832.71
183377,1833.77
183475,1834.75
183571,1835.71
183663,1836.63
183752,1837.52
183836,1838.36
183917,1839.17
183995,1839.95
184078,1840.78
184161,1841.61
184249,1842.49
184341,1843.41
184429,1844.29
184519,1845.19
184610,1846.1
184707,1847.07
184806,1848.06
184903,1849.03
185003,1850.03
185105,1851.05
185210,1852.1
185315,1853.15
185417,1854.17
185522,1855.22
185629,1856.29
185738,1857.38
185847,1858.47
185956,1859.56
186063,1860.63
186164,1861.64
186263,1862.63
186364,1863.64
186465,1864.65
186567,1865.67
186665,1866.65
186760,1867.6
186859,1868.59
186958,1869.58
187059,1870.59
187153,1871.53
187247,1872.47
187347,1873.47
187448,1874.48
187544,1875.44
187640,1876.4
187737,1877.37
187836,1878.36
187934,1879.34
188030,1880.3
188126,1881.26
188220,1882.2
188307,1883.07
188392,1883.92
188477,1884.77
188561,1885.61
188642,1886.42
188726,1887.26
188812,1888.12
188901,1889.01
188992,1889.92
189084,1890.84
189182,1891.82
189284,1892.84
189384,1893.84
189488,1894.88
189596,1895.96
189707,1897.07
189812,1898.12
189916,1899.16
190021,1900.21
190126,1901.26
190231,1902.31
190332,1903.32
190433,1904.33
190536,1905.36
190641,1906.41
190744,1907.44
190842,1908.42
190941,1909.41
191046,1910.46
191151,1911.51
191254,1912.54
191355,1913.55
191458,1914.58
191565,1915.65
191667,1916.67
191767,1917.67
191865,1918.65
191969,1919.69
192072,1920.72
192170,1921.7
192266,1922.66
192365,1923.65
192469,1924.69
192573,1925.73
192674,1926.74
192772,1927.72
192872,1928.72
192970,1929.7
193065,1930.65
193157,1931.57
193246,1932.46
193330,1933.3
193415,1934.15
193502,1935.02
193587,1935.87
193670,1936.7
193756,1937.56
193843,1938.43
193933,1939.33
194022,1940.22
194110,1941.1
194200,1942.0
194291,1942.91
194387,1943.87
194491,1944.91
194601,1946.01
194713,1947.13
194820,1948.2
194931,1949.31
195046,1950.46
195159,1951.59
195265,1952.65
195371,1953.71
195480,1954.8
195588,1955.88
195695,1956.95
195800,1958.0
195898,1958.98
196000,1960.0
196106,1961.06
196213,1962.13
196315,1963.15
196415,1964.15
196514,1965.14
196619,1966.19
196726,1967.26
196830,1968.3
196934,1969.34
197044,1970.44
197154,1971.54
197257,1972.57
197358,1973.58
197466,1974.66
197575,1975.75
197678,1976.78
197777,1977.77
197879,1978.79
197978,1979.78
198073,1980.73
198161,1981.61
198252,1982.52
198341,1983.41
198425,1984.25
198512,1985.12
198597,1985.97
198680,1986.8
198764,1987.64
198849,1988.49
198936,1989.36
199025,1990.25
199116,1991.16
199216,1992.16
199318,1993.18
199425,1994.25
199529,1995.29
199639,1996.39
199751,1997.51
199866,1998.66
199974,1999.74
200081,2000.81
200188,2001.88
200297,2002.97
200403,2004.03
200503,2005.03
200607,2006.07
200713,2007.13
200820,2008.2
200923,2009.23
201021,2010.21
201119,2011.19
201222,2012.22
201327,2013.27
201426,2014.26
201524,2015.24
201625,2016.25
201727,2017.27
201828,2018.28
201929,2019.29
202032,2020.32
202139,2021.39
202243,2022.43
202344,2023.44
202446,2024.46
202545,2025.45
202642,2026.42
202737,2027.37
202826,2028.26
202915,2029.15
202999,2029.99
203082,2030.82
203168,2031.68
203252,2032.52
203333,2033.33
203417,2034.17
203500,2035.0
203583,2035.83
203667,2036.67
203755,2037.55
203848,2038.48
203947,2039.47
204045,2040.45
204147,2041.47
204258,2042.58
204374,2043.74
204492,2044.92
204605,2046.05
204714,2047.14
204826,2048.26
204938,2049.38
205051,2050.51
205161,2051.61
205268,2052.68
205369,2053.69
205471,2054.71
205571,2055.71
205673,2056.73
205777,2057.77
205878,2058.78
205978,2059.78
206081,2060.81
206189,2061.89
206295,2062.95
206395,2063.95
206493,2064.93
206592,2065.92
206692,2066.92
206794,2067.94
206891,2068.91
206988,2069.88
207089,2070.89
207192,2071.92
207293,2072.93
207393,2073.93
207495,2074.95
207598,2075.98
207698,2076.98
207797,2077.97
207901,2079.01
208007,2080.07
208104,2081.04
208200,2082.0
208295,2082.95
208386,2083.86
208472,2084.72
208557,2085.57
208643,2086.43
208728,2087.28
208811,2088.11
208896,2088.96
208981,2089.81
209066,2090.66
209156,2091.56
209248,2092.48
209345,2093.45
209446,2094.46
209548,2095.48
209650,2096.5
209762,2097.62
209875,2098.75
209987,2099.87
210091,2100.91
210197,2101.97
210305,2103.05
210413,2104.13
210518,2105.18
210619,2106.19
210716,2107.16
210815,2108.15
210915,2109.15
211018,2110.18
211117,2111.17
211216,2112.16
211321,2113.21
211433,2114.33
211543,2115.43
211647,2116.47
211749,2117.49
211853,2118.53
211955,2119.55
212052,2120.52
212148,2121.48
212247,2122.47
212349,2123.49
212449,2124.49
212547,2125.47
212647,2126.47
212743,2127.43
212837,2128.37
212927,2129.27
213016,2130.16
213102,2131.02
213185,2131.85
213271,2132.71
213355,2133.55
213436,2134.36
213519,2135.19
213602,2136.02
213684,2136.84
213769,2137.69
213855,2138.55
213944,2139.44
214040,2140.4
214136,2141.36
214235,2142.35
214344,2143.44
214457,2144.57
214571,2145.71
214681,2146.81
214788,2147.88
214897,2148.97
215006,2150.06
215114,2151.14
215222,2152.22
215324,2153.24
215426,2154.26
215530,2155.3
215638,2156.38
215745,2157.45
215849,2158.49
215949,2159.49
216053,2160.53
216161,2161.61
216271,2162.71
216373,2163.73
216471,2164.71
216572,2165.72
216678,2166.78
216783,2167.83
216885,2168.85
216988,2169.88
217095,2170.95
217203,2172.03
217303,2173.03
217402,2174.02
217503,2175.03
217604,2176.04
217701,2177.01
217790,2177.9
217879,2178.79
217967,2179.67
218051,2180.51
218137,2181.37
218224,2182.24
218314,2183.14
218403,2184.03
218490,2184.9
218580,2185.8
218673,2186.73
218764,2187.64
218858,2188.58
218959,2189.59
219062,2190.62
219166,2191.66
219264,2192.64
219367,2193.67
219474,2194.74
219584,2195.84
219693,2196.93
219798,2197.98
219908,2199.08
220014,2200.14
220119,2201.19
220218,2202.18
220314,2203.14
220410,2204.1
220501,2205.01
220591,2205.91
220677,2206.77
220767,2207.67
220855,2208.55
220946,2209.46
221038,2210.38
221128,2211.28
221227,2212.27
221317,2213.17
221401,2214.01
221483,2214.83
221570,2215.7
221653,2216.53
221738,2217.38
221827,2218.27
221925,2219.25
222031,2220.31
222149,2221.49
222265,2222.65
222381,2223.81
222498,2224.98
222615,2226.15
222727,2227.27
222837,2228.37
222951,2229.51
223065,2230.65
223179,2231.79
223284,2232.84
223385,2233.85
223491,2234.91
223598,2235.98
223701,2237.01
223802,2238.02
223908,2239.08
224018,2240.18
224129,2241.29
224234,2242.34
224339,2243.39
224442,2244.42
224541,2245.41
224633,2246.33
224720,2247.2
224810,2248.1
224897,2248.97
224981,2249.81
225071,2250.71
225162,2251.62
225249,2252.49
225343,2253.43
225439,2254.39
225539,2255.39
225640,2256.4
225746,2257.46
225857,2258.57
225970,2259.7
226080,2260.8
226192,2261.92
226306,2263.06
226421,2264.21
226538,2265.38
226646,2266.46
226756,2267.56
226870,2268.7
226984,2269.84
227099,2270.99
227208,2272.08
227311,2273.11
227415,2274.15
227521,2275.21
227628,2276.28
227734,2277.34
227836,2278.36
227938,2279.38
228045,2280.45
228157,2281.57
228261,2282.61
228364,2283.64
228471,2284.71
228582,2285.82
228692,2286.92
228794,2287.94
228897,2288.97
229006,2290.06
229114,2291.14
229216,2292.16
229315,2293.15
229418,2294.18
229521,2295.21
229620,2296.2
229715,2297.15
229808,2298.08
229897,2298.97
229982,2299.82
230068,2300.68
230155,2301.55
230243,2302.43
230325,2303.25
230408,2304.08
230497,2304.97
230586,2305.86
230680,2306.8
230779,2307.79
230881,2308.81
230983,2309.83
231089,2310.89
231201,2312.01
231316,2313.16
231430,2314.3
231543,2315.43
231654,2316.54
231761,2317.61
231866,2318.66
231974,2319.74
232085,2320.85
232196,2321.96
232305,2323.05
232411,2324.11
232514,2325.14
232618,2326.18
232722,2327.22
232823,2328.23
232923,2329.23
233027,2330.27
233133,2331.33
233236,2332.36
233336,2333.36
233440,2334.4
233550,2335.5
233658,2336.58
233763,2337.63
233870,2338.7
233977,2339.77
234078,2340.78
234180,2341.8
234279,2342.79
234379,2343.79
234473,2344.73
234565,2345.65
234654,2346.54
234742,2347.42
234831,2348.31
234917,2349.17
235006,2350.06
235097,2350.97
235189,2351.89
235289,2352.89
235393,2353.93
235494,2354.94
235596,2355.96
235707,2357.07
235819,2358.19
235926,2359.26
236031,2360.31
236141,2361.41
236253,2362.53
236367,2363.67
236473,2364.73
236575,2365.75
236681,2366.81
236790,2367.9
236897,2368.97
236996,2369.96
237095,2370.95
237197,2371.97
237305,2373.05
237403,2374.03
237503,2375.03
237604,2376.04
237705,2377.05
237803,2378.03
237902,2379.02
237996,2379.96
238085,2380.85
238170,2381.7
238260,2382.6
238347,2383.47
238429,2384.29
238517,2385.17
238606,2386.06
238696,2386.96
238783,2387.83
238873,2388.73
238965,2389.65
239058,2390.58
239155,2391.55
239255,2392.55
239362,2393.62
239472,2394.72
239576,2395.76
239683,2396.83
239792,2397.92
239901,2399.01
240008,2400.08
240110,2401.1
240212,2402.12
240316,2403.16
240419,2404.19
240518,2405.18
240608,2406.08
240697,2406.97
240786,2407.86
240875,2408.75
240964,2409.64
241052,2410.52
241143,2411.43
241238,2412.38
241341,2413.41
241440,2414.4
241546,2415.46
241658,2416.58
241769,2417.69
241874,2418.74
241979,2419.79
242088,2420.88
242196,2421.96
242297,2422.97
242397,2423.97
242499,2424.99
242604,2426.04
242707,2427.07
242799,2427.99
242886,2428.86
242976,2429.76
243065,2430.65
243156,2431.56
243246,2432.46
243335,2433.35
243427,2434.27
243516,2435.16
243605,2436.05
243699,2436.99
243797,2437.97
243904,2439.04
244008,2440.08
244114,2441.14
244226,2442.26
244341,2443.41
244457,2444.57
244566,2445.66
244677,2446.77
244789,2447.89
244902,2449.02
245007,2450.07
245107,2451.07
245209,2452.09
245312,2453.12
245414,2454.14
245517,2455.17
245621,2456.21
245728,2457.28
245838,2458.38
245947,2459.47
246051,2460.51
246156,2461.56
246263,2462.63
246373,2463.73
246479,2464.79
246581,2465.81
246686,2466.86
246793,2467.93
246900,2469.0
247004,2470.04
247111,2471.11
247220,2472.2
247330,2473.3
247437,2474.37
247539,2475.39
247640,2476.4
247739,2477.39
247833,2478.33
247921,2479.21
248013,2480.13
248105,2481.05
248194,2481.94
248281,2482.81
248371,2483.71
248462,2484.62
248550,2485.5
248637,2486.37
248725,2487.25
248813,2488.13
248898,2488.98
248984,2489.84
249071,2490.71
249160,2491.6
249250,2492.5
249343,2493.43
249444,2494.44
249550,2495.5
249661,2496.61
249769,2497.69
249875,2498.75
249981,2499.81
250090,2500.9
250198,2501.98
250303,2503.03
250406,2504.06
250508,2505.08
250611,2506.11
250715,2507.15
250819,2508.19
250922,2509.22
251025,2510.25
251128,2511.28
251233,2512.33
251339,2513.39
251443,2514.43
251544,2515.44
251646,2516.46
251751,2517.51
251857,2518.57
251962,2519.62
252065,2520.65
252173,2521.73
252286,2522.86
252397,2523.97
252505,2525.05
252608,2526.08
252708,2527.08
252804,2528.04
252896,2528.96
252984,2529.84
253075,2530.75
253165,2531.65
253254,2532.54
253345,2533.45
253441,2534.41
253541,2535.41
253640,2536.4
253735,2537.35
253831,2538.31
253946,2539.46
254061,2540.61
254171,2541.71
254285,2542.85
254400,2544.0
254512,2545.12
254626,2546.26
254743,2547.43
254860,2548.6
254974,2549.74
255085,2550.85
255198,2551.98
255312,2553.12
255422,2554.22
255532,2555.32
255642,2556.42
255750,2557.5
255856,2558.56
255960,2559.6
256062,2560.62
256162,2561.62
256259,2562.59
256354,2563.54
256445,2564.45
256537,2565.37
256628,2566.28
256721,2567.21
256821,2568.21
256933,2569.33
257055,2570.55
257175,2571.75
257290,2572.9
257407,2574.07
257524,2575.24
257636,2576.36
257748,2577.48
257862,2578.62
257973,2579.73
258083,2580.83
258190,2581.9
258297,2582.97
258408,2584.08
258516,2585.16
258621,2586.21
258727,2587.27
258837,2588.37
258950,2589.5
259063,2590.63
259172,2591.72
259287,2592.87
259407,2594.07
259526,2595.26
259641,2596.41
259756,2597.56
259874,2598.74
259992,2599.92
260102,2601.02
260210,2602.1
260313,2603.13
260412,2604.12
260512,2605.12
260613,2606.13
260712,2607.12
260807,2608.07
260903,2609.03
260999,2609.99
261096,2610.96
261189,2611.89
261284,2612.84
261379,2613.79
261476,2614.76
261574,2615.74
261673,2616.73
261775,2617.75
261881,2618.81
261990,2619.9
262097,2620.97
262208,2622.08
262323,2623.23
262437,2624.37
262549,2625.49
262655,2626.55
262759,2627.59
262863,2628.63
262968,2629.68
263071,2630.71
263171,2631.71
263270,2632.7
263368,2633.68
263467,2634.67
263564,2635.64
263662,2636.62
263761,2637.61
263864,2638.64
263968,2639.68
264072,2640.72
264173,2641.73
264278,2642.78
264386,2643.86
264492,2644.92
264596,2645.96
264701,2647.01
264813,2648.13
264924,2649.24
265030,2650.3
265135,2651.35
265243,2652.43
265350,2653.5
265452,2654.52
265553,2655.53
265652,2656.52
265749,2657.49
265840,2658.4
265933,2659.33
266026,2660.26
266120,2661.2
266213,2662.13
266305,2663.05
266398,2663.98
266494,2664.94
266592,2665.92
266691,2666.91
266795,2667.95
266901,2669.01
267005,2670.05
267109,2671.09
267216,2672.16
267326,2673.26
267437,2674.37
267544,2675.44
267650,2676.5
267758,2677.58
267867,2678.67
267973,2679.73
268075,2680.75
268177,2681.77
268279,2682.79
268381,2683.81
268480,2684.8
268577,2685.77
268676,2686.76
268780,2687.8
268887,2688.87
268995,2689.95
269104,2691.04
269222,2692.22
269341,2693.41
269452,2694.52
269557,2695.57
269660,2696.6
269762,2697.62
269862,2698.62
269965,2699.65
270073,2700.73
270185,2701.85
270295,2702.95
270399,2703.99
270501,2705.01
270595,2705.95
270685,2706.85
270774,2707.74
270862,2708.62
270949,2709.49
271035,2710.35
271123,2711.23
271214,2712.14
271308,2713.08
271402,2714.02
271496,2714.96
271591,2715.91
271690,2716.9
271794,2717.94
271901,2719.01
272014,2720.14
272128,2721.28
272240,2722.4
272348,2723.48
272458,2724.58
272569,2725.69
272682,2726.82
272789,2727.89
272893,2728.93
273001,2730.01
273112,2731.12
273223,2732.23
273329,2733.29
273433,2734.33
273538,2735.38
273646,2736.46
273755,2737.55
273860,2738.6
273965,2739.65
274074,2740.74
274187,2741.87
274297,2742.97
274403,2744.03
274507,2745.07
274612,2746.12
274715,2747.15
274817,2748.17
274918,2749.18
275017,2750.17
275112,2751.12
275207,2752.07
275299,2752.99
275388,2753.88
275477,2754.77
275565,2755.65
275652,2756.52
275737,2757.37
275824,2758.24
275913,2759.13
276006,2760.06
276102,2761.02
276200,2762.0
276300,2763.0
276404,2764.04
276511,2765.11
276619,2766.19
276730,2767.3
276842,2768.42
276957,2769.57
277065,2770.65
277173,2771.73
277282,2772.82
277391,2773.91
277497,2774.97
277598,2775.98
277699,2776.99
277801,2778.01
277904,2779.04
278007,2780.07
278108,2781.08
278211,2782.11
278321,2783.21
278433,2784.33
278542,2785.42
278648,2786.48
278758,2787.58
278872,2788.72
278982,2789.82
279089,2790.89
279195,2791.95
279305,2793.05
279418,2794.18
279528,2795.28
279633,2796.33
279736,2797.36
279837,2798.37
279935,2799.35
280028,2800.28
280121,2801.21
280214,2802.14
280303,2803.03
280394,2803.94
280486,2804.86
280579,2805.79
280675,2806.75
280771,2807.71
280867,2808.67
280964,2809.64
281064,2810.64
281164,2811.64
281267,2812.67
281371,2813.71
281479,2814.79
281594,2815.94
281716,2817.16
281839,2818.39
281950,2819.5
282063,2820.63
282176,2821.76
282289,2822.89
282399,2823.99
282506,2825.06
282617,2826.17
282728,2827.28
282838,2828.38
282945,2829.45
283051,2830.51
283159,2831.59
283265,2832.65
283369,2833.69
283473,2834.73
283578,2835.78
283687,2836.87
283798,2837.98
283905,2839.05
284014,2840.14
284125,2841.25
284237,2842.37
284344,2843.44
284452,2844.52
284559,2845.59
284665,2846.65
284767,2847.67
284868,2848.68
284969,2849.69
285066,2850.66
285160,2851.6
285254,2852.54
285344,2853.44
285431,2854.31
285516,2855.16
285603,2856.03
285694,2856.94
285787,2857.87
285886,2858.86
285994,2859.94
286108,2861.08
286221,2862.21
286335,2863.35
286452,2864.52
286569,2865.69
286686,2866.86
286795,2867.95
286904,2869.04
287016,2870.16
287129,2871.29
287237,2872.37
287343,2873.43
287448,2874.48
287557,2875.57
287667,2876.67
287769,2877.69
287871,2878.71
287972,2879.72
288070,2880.7
288166,2881.66
288263,2882.63
288363,2883.63
288447,2884.47
288532,2885.32
288641,2886.41
288750,2887.5
288856,2888.56
288960,2889.6
289063,2890.63
289171,2891.71
289280,2892.8
289387,2893.87
289491,2894.91
289592,2895.92
289696,2896.96
289798,2897.98
289893,2898.93
289982,2899.82
290068,2900.68
290152,2901.52
290236,2902.36
290319,2903.19
290398,2903.98
290478,2904.78
290560,2905.6
290645,2906.45
290727,2907.27
290810,2908.1
290894,2908.94
290979,2909.79
291063,2910.63
291147,2911.47
291234,2912.34
291325,2913.25
291419,2914.19
291515,2915.15
291618,2916.18
291729,2917.29
291848,2918.48
291969,2919.69
292085,2920.85
292199,2921.99
292313,2923.13
292425,2924.25
292535,2925.35
292643,2926.43
292748,2927.48
292852,2928.52
292956,2929.56
293058,2930.58
293158,2931.58
293261,2932.61
293364,2933.64
293467,2934.67
293570,2935.7
293672,2936.72
293777,2937.77
293885,2938.85
293993,2939.93
294099,2940.99
294204,2942.04
294313,2943.13
294421,2944.21
294527,2945.27
294631,2946.31
294739,2947.39
294846,2948.46
294950,2949.5
295054,2950.54
295161,2951.61
295266,2952.66
295370,2953.7
295472,2954.72
295578,2955.78
295681,2956.81
295783,2957.83
295883,2958.83
295986,2959.86
296088,2960.88
296186,2961.86
296283,2962.83
296384,2963.84
296484,2964.84
296580,2965.8
296675,2966.75
296774,2967.74
296870,2968.7
296963,2969.63
297057,2970.57
297152,2971.52
297247,2972.47
297340,2973.4
297430,2974.3
297521,2975.21
297614,2976.14
297703,2977.03
297791,2977.91
297878,2978.78
297965,2979.65
298049,2980.49
298129,2981.29
298209,2982.09
298291,2982.91
298371,2983.71
298440,2984.4
298510,2985.1
298589,2985.89
298669,2986.69
298739,2987.39
298809,2988.09
298878,2988.78
298945,2989.45
299015,2990.15
299082,2990.82
299149,2991.49
299217,2992.17
299284,2992.84
299352,2993.52
299419,2994.19
299487,2994.87
299556,2995.56
299625,2996.25
299697,2996.97
299771,2997.71
299846,2998.46
299925,2999.25
300006,3000.06
300091,3000.91
300184,3001.84
300284,3002.84
300387,3003.87
300491,3004.91
300592,3005.92
300694,3006.94
300796,3007.96
300898,3008.98
300999,3009.99
301099,3010.99
301200,3012.0
301298,3012.98
301393,3013.93
301489,3014.89
301585,3015.85
301682,3016.82
301780,3017.8
301876,3018.76
301974,3019.74
302075,3020.75
302177,3021.77
302277,3022.77
302378,3023.78
302479,3024.79
302583,3025.83
302690,3026.9
302794,3027.94
302898,3028.98
303006,3030.06
303116,3031.16
303222,3032.22
303326,3033.26
303434,3034.34
303541,3035.41
303644,3036.44
303746,3037.46
303849,3038.49
303951,3039.51
304049,3040.49
304148,3041.48
304251,3042.51
304355,3043.55
304453,3044.53
304552,3045.52
304649,3046.49
304741,3047.41
304830,3048.3
304917,3049.17
304999,3049.99
305076,3050.76
305155,3051.55
305235,3052.35
305311,3053.11
305391,3053.91
305470,3054.7
305550,3055.5
305629,3056.29
305711,3057.11
305797,3057.97
305888,3058.88
305984,3059.84
306080,3060.8
306184,3061.84
306304,3063.04
306425,3064.25
306536,3065.36
306647,3066.47
306760,3067.6
306874,3068.74
306987,3069.87
307099,3070.99
307210,3072.1
307320,3073.2
307430,3074.3
307539,3075.39
307648,3076.48
307755,3077.55
307859,3078.59
307961,3079.61
308064,3080.64
308167,3081.67
308270,3082.7
308371,3083.71
308471,3084.71
308573,3085.73
308677,3086.77
308780,3087.8
308883,3088.83
308987,3089.87
309090,3090.9
309194,3091.94
309298,3092.98
309399,3093.99
309502,3095.02
309604,3096.04
309703,3097.03
309805,3098.05
309907,3099.07
310007,3100.07
310106,3101.06
310209,3102.09
310310,3103.1
310410,3104.1
310508,3105.08
310607,3106.07
310703,3107.03
310799,3107.99
310897,3108.97
310992,3109.92
311087,3110.87
311185,3111.85
311281,3112.81
311375,3113.75
311471,3114.71
311567,3115.67
311661,3116.61
311754,3117.54
311849,3118.49
311943,3119.43
312035,3120.35
312126,3121.26
312217,3122.17
312311,3123.11
312404,3124.04
312492,3124.92
312581,3125.81
312669,3126.69
312754,3127.54
312832,3128.32
312896,3128.96
312961,3129.61
313026,3130.26
313096,3130.96
313167,3131.67
313229,3132.29
313297,3132.97
313358,3133.58
313419,3134.19
313489,3134.89
313553,3135.53
313617,3136.17
313682,3136.82
313748,3137.48
313815,3138.15
313884,3138.84
313954,3139.54
314017,3140.17
314088,3140.88
314162,3141.62
314240,3142.4
314318,3143.18
314393,3143.93
314468,3144.68
314556,3145.56
314665,3146.65
314777,3147.77
314883,3148.83
314992,3149.92
315087,3150.87
315182,3151.82
315281,3152.81
315380,3153.8
315472,3154.72
315564,3155.64
315654,3156.54
315742,3157.42
315830,3158.3
315920,3159.2
316012,3160.12
316103,3161.03
316193,3161.93
316283,3162.83
316376,3163.76
316473,3164.73
316574,3165.74
316674,3166.74
316772,3167.72
316871,3168.71
316968,3169.68
317061,3170.61
317149,3171.49
317239,3172.39
317324,3173.24
317414,3174.14
317502,3175.02
317591,3175.91
317677,3176.77
317763,3177.63
317848,3178.48
317935,3179.35
318022,3180.22
318106,3181.06
318189,3181.89
318271,3182.71
318355,3183.55
318438,3184.38
318520,3185.2
318602,3186.02
318684,3186.84
318769,3187.69
318854,3188.54
318939,3189.39
319024,3190.24
319109,3191.09
319193,3191.93
319278,3192.78
319362,3193.62
319445,3194.45
319528,3195.28
319610,3196.1
319692,3196.92
319767,3197.67
319842,3198.42
319925,3199.25
320008,3200.08
320085,3200.85
320161,3201.61
320237,3202.37
320312,3203.12
320387,3203.87
320463,3204.63
320539,3205.39
320615,3206.15
320694,3206.94
320775,3207.75
320864,3208.64
320959,3209.59
321057,3210.57
321156,3211.56
321253,3212.53
321345,3213.45
321431,3214.31
321515,3215.15
321597,3215.97
321679,3216.79
321760,3217.6
321841,3218.41
321923,3219.23
322007,3220.07
322092,3220.92
322179,3221.79
322265,3222.65
322352,3223.52
322439,3224.39
322526,3225.26
322615,3226.15
322706,3227.06
322798,3227.98
322892,3228.92
322988,3229.88
323085,3230.85
323180,3231.8
323274,3232.74
323366,3233.66
323458,3234.58
323549,3235.49
323641,3236.41
323729,3237.29
323816,3238.16
323904,3239.04
323994,3239.94
324087,3240.87
324185,3241.85
324282,3242.82
324380,3243.8
324483,3244.83
324592,3245.92
324704,3247.04
324816,3248.16
324921,3249.21
325025,3250.25
325130,3251.3
325234,3252.34
325338,3253.38
325441,3254.41
325544,3255.44
325647,3256.47
325751,3257.51
325855,3258.55
325960,3259.6
326063,3260.63
326164,3261.64
326264,3262.64
326367,3263.67
326469,3264.69
326571,3265.71
326668,3266.68
326766,3267.66
326877,3268.77
326983,3269.83
327094,3270.94
327193,3271.93
327294,3272.94
327396,3273.96
327496,3274.96
327596,3275.96
327702,3277.02
327819,3278.19
327937,3279.37
328050,3280.5
328160,3281.6
328271,3282.71
328380,3283.8
328489,3284.89
328597,3285.97
328702,3287.02
328809,3288.09
328916,3289.16
329023,3290.23
329127,3291.27
329233,3292.33
329338,3293.38
329445,3294.45
329551,3295.51
329653,3296.53
329753,3297.53
329855,3298.55
329958,3299.58
330059,3300.59
330158,3301.58
330261,3302.61
330366,3303.66
330473,3304.73
330578,3305.78
330687,3306.87
330799,3307.99
330911,3309.11
331021,3310.21
331128,3311.28
331239,3312.39
331350,3313.5
331458,3314.58
331566,3315.66
331677,3316.77
331789,3317.89
331902,3319.02
332013,3320.13
332121,3321.21
332229,3322.29
332337,3323.37
332445,3324.45
332553,3325.53
332658,3326.58
332769,3327.69
332881,3328.81
332991,3329.91
333103,3331.03
333215,3332.15
333326,3333.26
333437,3334.37
333550,3335.5
333662,3336.62
333772,3337.72
333885,3338.85
333997,3339.97
334105,3341.05
334215,3342.15
334324,3343.24
334431,3344.31
334540,3345.4
334648,3346.48
334754,3347.54
334862,3348.62
334968,3349.68
335072,3350.72
335178,3351.78
335285,3352.85
335389,3353.89
335493,3354.93
335598,3355.98
335701,3357.01
335806,3358.06
335910,3359.1
336010,3360.1
336111,3361.11
336210,3362.1
336309,3363.09
336408,3364.08
336507,3365.07
336603,3366.03
336696,3366.96
336791,3367.91
336885,3368.85
336977,3369.77
337067,3370.67
337157,3371.57
337248,3372.48
337336,3373.36
337425,3374.25
337511,3375.11
337597,3375.97
337681,3376.81
337766,3377.66
337849,3378.49
337934,3379.34
338018,3380.18
338098,3380.98
338180,3381.8
338264,3382.64
338346,3383.46
338426,3384.26
338505,3385.05
338583,3385.83
338661,3386.61
338738,3387.38
338814,3388.14
338887,3388.87
338960,3389.6
339031,3390.31
339100,3391.0
339168,3391.68
339234,3392.34
339302,3393.02
339370,3393.7
339436,3394.36
339502,3395.02
339568,3395.68
339635,3396.35
339702,3397.02
339769,3397.69
339837,3398.37
339906,3399.06
339975,3399.75
340045,3400.45
340116,3401.16
340187,3401.87
340260,3402.6
340335,3403.35
340411,3404.11
340489,3404.89
340568,3405.68
340649,3406.49
340730,3407.3
340812,3408.12
340895,3408.95
340977,3409.77
341059,3410.59
341140,3411.4
341220,3412.2
341300,3413.0
341381,3413.81
341461,3414.61
341541,3415.41
341621,3416.21
341701,3417.01
341781,3417.81
341862,3418.62
341942,3419.42
342023,3420.23
342104,3421.04
342187,3421.87
342271,3422.71
342356,3423.56
342442,3424.42
342529,3425.29
342617,3426.17
342707,3427.07
342797,3427.97
342890,3428.9
342984,3429.84
343077,3430.77
343171,3431.71
343266,3432.66
343361,3433.61
343455,3434.55
343550,3435.5
343646,3436.46
343740,3437.4
343834,3438.34
343927,3439.27
344019,3440.19
344112,3441.12
344206,3442.06
344299,3442.99
344392,3443.92
344486,3444.86
344580,3445.8
344671,3446.71
344761,3447.61
344849,3448.49
344938,3449.38
345026,3450.26
345114,3451.14
345201,3452.01
345289,3452.89
345375,3453.75
345461,3454.61
345548,3455.48
345638,3456.38
345729,3457.29
345818,3458.18
345908,3459.08
345999,3459.99
346091,3460.91
346183,3461.83
346273,3462.73
346365,3463.65
346461,3464.61
346557,3465.57
346655,3466.55
346750,3467.5
346847,3468.47
346945,3469.45
347043,3470.43
347141,3471.41
347239,3472.39
347337,3473.37
347436,3474.36
347532,3475.32
347627,3476.27
347721,3477.21
347816,3478.16
347911,3479.11
348009,3480.09
348107,3481.07
348205,3482.05
348303,3483.03
348400,3484.0
348497,3484.97
348594,3485.94
348691,3486.91
348788,3487.88
348885,3488.85
348983,3489.83
349080,3490.8
349178,3491.78
349277,3492.77
349376,3493.76
349474,3494.74
349570,3495.7
349668,3496.68
349765,3497.65
349863,3498.63
349960,3499.6
350056,3500.56
350154,3501.54
350256,3502.56
350358,3503.58
350458,3504.58
350560,3505.6
350662,3506.62
350763,3507.63
350863,3508.63
350963,3509.63
351060,3510.6
351154,3511.54
351249,3512.49
351345,3513.45
351442,3514.42
351535,3515.35
351628,3516.28
351723,3517.23
351821,3518.21
351920,3519.2
352017,3520.17
352120,3521.2
352223,3522.23
352323,3523.23
352422,3524.22
352521,3525.21
352620,3526.2
352717,3527.17
352814,3528.14
352913,3529.13
353011,3530.11
353108,3531.08
353207,3532.07
353307,3533.07
353405,3534.05
353502,3535.02
353597,3535.97
353689,3536.89
353781,3537.81
353872,3538.72
353962,3539.62
354051,3540.51
354142,3541.42
354231,3542.31
354319,3543.19
354406,3544.06
354494,3544.94
354582,3545.82
354668,3546.68
354750,3547.5
354833,3548.33
354909,3549.09
354984,3549.84
355057,3550.57
355129,3551.29
355200,3552.0
355270,3552.7
355340,3553.4
355412,3554.12
355484,3554.84
355554,3555.54
355626,3556.26
355700,3557.0
355774,3557.74
355850,3558.5
355926,3559.26
356004,3560.04
356083,3560.83
356166,3561.66
356253,3562.53
356343,3563.43
356432,3564.32
356521,3565.21
356612,3566.12
356703,3567.03
356797,3567.97
356890,3568.9
356984,3569.84
357077,3570.77
357169,3571.69
357259,3572.59
357348,3573.48
357437,3574.37
357526,3575.26
357614,3576.14
357702,3577.02
357787,3577.87
357872,3578.72
357959,3579.59
358046,3580.46
358134,3581.34
358222,3582.22
358310,3583.1
358400,3584.0
358492,3584.92
358585,3585.85
358679,3586.79
358774,3587.74
358869,3588.69
358966,3589.66
359061,3590.61
359158,3591.58
359256,3592.56
359351,3593.51
359446,3594.46
359541,3595.41
359637,3596.37
359735,3597.35
359832,3598.32
359928,3599.28
360027,3600.27
360127,3601.27
360227,3602.27
360327,3603.27
360427,3604.27
360526,3605.26
360623,3606.23
360721,3607.21
360819,3608.19
360914,3609.14
361008,3610.08
361098,3610.98
361187,3611.87
361276,3612.76
361363,3613.63
361447,3614.47
361529,3615.29
361609,3616.09
361688,3616.88
361768,3617.68
361849,3618.49
361932,3619.32
362014,3620.14
362096,3620.96
362181,3621.81
362269,3622.69
362358,3623.58
362445,3624.45
362534,3625.34
362629,3626.29
362728,3627.28
362826,3628.26
362926,3629.26
363028,3630.28
363134,3631.34
363240,3632.4
363342,3633.42
363445,3634.45
363549,3635.49
363652,3636.52
363754,3637.54
363853,3638.53
363953,3639.53
364053,3640.53
364151,3641.51
364248,3642.48
364343,3643.43
364436,3644.36
364528,3645.28
364618,3646.18
364709,3647.09
364800,3648.0
364891,3648.91
364979,3649.79
365069,3650.69
365160,3651.6
365255,3652.55
365349,3653.49
365446,3654.46
365544,3655.44
365644,3656.44
365743,3657.43
365841,3658.41
365938,3659.38
366034,3660.34
366129,3661.29
366224,3662.24
366321,3663.21
366414,3664.14
366505,3665.05
366595,3665.95
366687,3666.87
366780,3667.8
366874,3668.74
366970,3669.7
367066,3670.66
367161,3671.61
367258,3672.58
367355,3673.55
367451,3674.51
367546,3675.46
367643,3676.43
367740,3677.4
367836,3678.36
367933,3679.33
368031,3680.31
368126,3681.26
368221,3682.21
368315,3683.15
368409,3684.09
368502,3685.02
368594,3685.94
368687,3686.87
368780,3687.8
368874,3688.74
368967,3689.67
369059,3690.59
369151,3691.51
369241,3692.41
369333,3693.33
369425,3694.25
369515,3695.15
369606,3696.06
369698,3696.98
369789,3697.89
369879,3698.79
369969,3699.69
370061,3700.61
370153,3701.53
370243,3702.43
370331,3703.31
370420,3704.2
370509,3705.09
370595,3705.95
370682,3706.82
370769,3707.69
370858,3708.58
370947,3709.47
371034,3710.34
371121,3711.21
371209,3712.09
371299,3712.99
371389,3713.89
371476,3714.76
371562,3715.62
371649,3716.49
371736,3717.36
371821,3718.21
371906,3719.06
371993,3719.93
372080,3720.8
372165,3721.65
372251,3722.51
372337,3723.37
372424,3724.24
372510,3725.1
372593,3725.93
372676,3726.76
372757,3727.57
372840,3728.4
372923,3729.23
373003,3730.03
373085,3730.85
373167,3731.67
373249,3732.49
373330,3733.3
373409,3734.09
373488,3734.88
373567,3735.67
373646,3736.46
373721,3737.21
373797,3737.97
373871,3738.71
373943,3739.43
374014,3740.14
374083,3740.83
374150,3741.5
374217,3742.17
374285,3742.85
374350,3743.5
374415,3744.15
374479,3744.79
374544,3745.44
374608,3746.08
374672,3746.72
374736,3747.36
374799,3747.99
374864,3748.64
374929,3749.29
374994,3749.94
375061,3750.61
375130,3751.3
375200,3752.0
375272,3752.72
375345,3753.45
375420,3754.2
375498,3754.98
375578,3755.78
375660,3756.6
375743,3757.43
375825,3758.25
375907,3759.07
375989,3759.89
376069,3760.69
376151,3761.51
376232,3762.32
376314,3763.14
376395,3763.95
376476,3764.76
376556,3765.56
376638,3766.38
376720,3767.2
376802,3768.02
376884,3768.84
376968,3769.68
377052,3770.52
377137,3771.37
377223,3772.23
377311,3773.11
377402,3774.02
377496,3774.96
377589,3775.89
377682,3776.82
377774,3777.74
377864,3778.64
377952,3779.52
378040,3780.4
378128,3781.28
378216,3782.16
378301,3783.01
378384,3783.84
378465,3784.65
378544,3785.44
378622,3786.22
378703,3787.03
378786,3787.86
378876,3788.76
378964,3789.64
379052,3790.52
379141,3791.41
379225,3792.25
379308,3793.08
379389,3793.89
379471,3794.71
379555,3795.55
379642,3796.42
379733,3797.33
379825,3798.25
379917,3799.17
380012,3800.12
380107,3801.07
380202,3802.02
380298,3802.98
380393,3803.93
380487,3804.87
380581,3805.81
380672,3806.72
380762,3807.62
380852,3808.52
380943,3809.43
381036,3810.36
381131,3811.31
381230,3812.3
381335,3813.35
381442,3814.42
381548,3815.48
381651,3816.51
381753,3817.53
381852,3818.52
381949,3819.49
382045,3820.45
382142,3821.42
382238,3822.38
382333,3823.33
382431,3824.31
382529,3825.29
382626,3826.26
382721,3827.21
382818,3828.18
382917,3829.17
383015,3830.15
383116,3831.16
383218,3832.18
383323,3833.23
383427,3834.27
383530,3835.3
383635,3836.35
383735,3837.35
383834,3838.34
383931,3839.31
384027,3840.27
384123,3841.23
384220,3842.2
384318,3843.18
384414,3844.14
384512,3845.12
384614,3846.14
384718,3847.18
384820,3848.2
384921,3849.21
385022,3850.22
385125,3851.25
385225,3852.25
385327,3853.27
385428,3854.28
385525,3855.25
385620,3856.2
385715,3857.15
385810,3858.1
385905,3859.05
386001,3860.01
386099,3860.99
386194,3861.94
386286,3862.86
386378,3863.78
386471,3864.71
386563,3865.63
386654,3866.54
386746,3867.46
386840,3868.4
386932,3869.32
387023,3870.23
387114,3871.14
387204,3872.04
387293,3872.93
387379,3873.79
387462,3874.62
387541,3875.41
387616,3876.16
387687,3876.87
387756,3877.56
387822,3878.22
387887,3878.87
387954,3879.54
388020,3880.2
388085,3880.85
388150,3881.5
388216,3882.16
388282,3882.82
388350,3883.5
388417,3884.17
388485,3884.85
388556,3885.56
388628,3886.28
388710,3887.1
388787,3887.87
388883,3888.83
388979,3889.79
389072,3890.72
389164,3891.64
389257,3892.57
389356,3893.56
389450,3894.5
389555,3895.55
389662,3896.62
389764,3897.64
389861,3898.61
389958,3899.58
390055,3900.55
390152,3901.52
390250,3902.5
390346,3903.46
390444,3904.44
390543,3905.43
390641,3906.41
390740,3907.4
390840,3908.4
390939,3909.39
391038,3910.38
391140,3911.4
391243,3912.43
391344,3913.44
391445,3914.45
391548,3915.48
391649,3916.49
391750,3917.5
391853,3918.53
391957,3919.57
392060,3920.6
392161,3921.61
392263,3922.63
392365,3923.65
392464,3924.64
392562,3925.62
392660,3926.6
392755,3927.55
392846,3928.46
392927,3929.27
393011,3930.11
393098,3930.98
393194,3931.94
393285,3932.85
393374,3933.74
393465,3934.65
393557,3935.57
393650,3936.5
393741,3937.41
393839,3938.39
393942,3939.42
394049,3940.49
394156,3941.56
394260,3942.6
394365,3943.65
394470,3944.7
394574,3945.74
394678,3946.78
394785,3947.85
394892,3948.92
394997,3949.97
395099,3950.99
395201,3952.01
395303,3953.03
395405,3954.05
395510,3955.1
395614,3956.14
395716,3957.16
395814,3958.14
395910,3959.1
396005,3960.05
396099,3960.99
396192,3961.92
396283,3962.83
396376,3963.76
396471,3964.71
396568,3965.68
396668,3966.68
396770,3967.7
396870,3968.7
396972,3969.72
397073,3970.73
397170,3971.7
397268,3972.68
397368,3973.68
397465,3974.65
397566,3975.66
397667,3976.67
397768,3977.68
397866,3978.66
397967,3979.67
398071,3980.71
398177,3981.77
398282,3982.82
398390,3983.9
398499,3984.99
398606,3986.06
398709,3987.09
398811,3988.11
398912,3989.12
399009,3990.09
399108,3991.08
399208,3992.08
399306,3993.06
399403,3994.03
399500,3995.0
399595,3995.95
399687,3996.87
399783,3997.83
399879,3998.79
399972,3999.72
400063,4000.63
400154,4001.54
400244,4002.44
400329,4003.29
400414,4004.14
400493,4004.93
400569,4005.69
400643,4006.43
400717,4007.17
400788,4007.88
400859,4008.59
400932,4009.32
401006,4010.06
401079,4010.79
401152,4011.52
401227,4012.27
401303,4013.03
401382,4013.82
401461,4014.61
401542,4015.42
401622,4016.22
401705,4017.05
401794,4017.94
401887,4018.87
401985,4019.85
402086,4020.86
402191,4021.91
402294,4022.94
402395,4023.95
402493,4024.93
402591,4025.91
402687,4026.87
402781,4027.81
402874,4028.74
402967,4029.67
403056,4030.56
403145,4031.45
403233,4032.33
403322,4033.22
403411,4034.11
403500,4035.0
403591,4035.91
403682,4036.82
403774,4037.74
403870,4038.7
403968,4039.68
404067,4040.67
404167,4041.67
404270,4042.7
404372,4043.72
404475,4044.75
404574,4045.74
404669,4046.69
404765,4047.65
404859,4048.59
404956,4049.56
405047,4050.47
405135,4051.35
405221,4052.21
405305,4053.05
405391,4053.91
405481,4054.81
405580,4055.8
405675,4056.75
405774,4057.74
405869,4058.69
405962,4059.62
406056,4060.56
406152,4061.52
406247,4062.47
406344,4063.44
406441,4064.41
406541,4065.41
406640,4066.4
406737,4067.37
406838,4068.38
406939,4069.39
407040,4070.4
407140,4071.4
407244,4072.44
407349,4073.49
407452,4074.52
407553,4075.53
407652,4076.52
407752,4077.52
407852,4078.52
407951,4079.51
408048,4080.48
408149,4081.49
408253,4082.53
408356,4083.56
408462,4084.62
408573,4085.73
408680,4086.8
408786,4087.86
408893,4088.93
409000,4090.0
409104,4091.04
409207,4092.07
409310,4093.1
409412,4094.12
409512,4095.12
409613,4096.13
409716,4097.16
409819,4098.19
409919,4099.19
410013,4100.13
410100,4101.0
410181,4101.81
410257,4102.57
410333,4103.33
410411,4104.11
410489,4104.89
410570,4105.7
410650,4106.5
410731,4107.31
410815,4108.15
410901,4109.01
410988,4109.88
411075,4110.75
411166,4111.66
411262,4112.62
411364,4113.64
411470,4114.7
411579,4115.79
411692,4116.92
411804,4118.04
411919,4119.19
412034,4120.34
412148,4121.48
412261,4122.61
412368,4123.68
412472,4124.72
412577,4125.77
412680,4126.8
412784,4127.84
412884,4128.84
412984,4129.84
413085,4130.85
413186,4131.86
413287,4132.87
413386,4133.86
413485,4134.85
413587,4135.87
413685,4136.85
413785,4137.85
413885,4138.85
413986,4139.86
414086,4140.86
414187,4141.87
414290,4142.9
414394,4143.94
414495,4144.95
414599,4145.99
414708,4147.08
414815,4148.15
414925,4149.25
415032,4150.32
415136,4151.36
415238,4152.38
415338,4153.38
415435,4154.35
415532,4155.32
415629,4156.29
415725,4157.25
415821,4158.21
415913,4159.13
416000,4160.0
416083,4160.83
416162,4161.62
416240,4162.4
416319,4163.19
416394,4163.94
416474,4164.74
416553,4165.53
416634,4166.34
416715,4167.15
416799,4167.99
416885,4168.85
416974,4169.74
417063,4170.63
417161,4171.61
417267,4172.67
417379,4173.79
417488,4174.88
417593,4175.93
417700,4177.0
417806,4178.06
417912,4179.12
418017,4180.17
418116,4181.16
418214,4182.14
418311,4183.11
418406,4184.06
418502,4185.02
418596,4185.96
418689,4186.89
418781,4187.81
418871,4188.71
418962,4189.62
419053,4190.53
419146,4191.46
419239,4192.39
419332,4193.32
419422,4194.22
419513,4195.13
419603,4196.03
419698,4196.98
419792,4197.92
419887,4198.87
419983,4199.83
420081,4200.81
420182,4201.82
420286,4202.86
420389,4203.89
420493,4204.93
420600,4206.0
420705,4207.05
420806,4208.06
420910,4209.1
421013,4210.13
421114,4211.14
421214,4212.14
421318,4213.18
421418,4214.18
421517,4215.17
421618,4216.18
421721,4217.21
421823,4218.23
421924,4219.24
422027,4220.27
422126,4221.26
422225,4222.25
422323,4223.23
422427,4224.27
422527,4225.27
422626,4226.26
422741,4227.41
422856,4228.56
422957,4229.57
423059,4230.59
423159,4231.59
423256,4232.56
423355,4233.55
423455,4234.55
423554,4235.54
423650,4236.5
423745,4237.45
423839,4238.39
423925,4239.25
424002,4240.02
424076,4240.76
424146,4241.46
424214,4242.14
424284,4242.84
424353,4243.53
424419,4244.19
424486,4244.86
424555,4245.55
424624,4246.24
424694,4246.94
424763,4247.63
424835,4248.35
424908,4249.08
424982,4249.82
425058,4250.58
425135,4251.35
425214,4252.14
425295,4252.95
425376,4253.76
425459,4254.59
425543,4255.43
425626,4256.26
425709,4257.09
425792,4257.92
425877,4258.77
425963,4259.63
426055,4260.55
426149,4261.49
426248,4262.48
426351,4263.51
426455,4264.55
426558,4265.58
426654,4266.54
426748,4267.48
426843,4268.43
426939,4269.39
427039,4270.39
427143,4271.43
427244,4272.44
427344,4273.44
427444,4274.44
427549,4275.49
427658,4276.58
427769,4277.69
427875,4278.75
427981,4279.81
428087,4280.87
428197,4281.97
428304,4283.04
428404,4284.04
428510,4285.1
428615,4286.15
428723,4287.23
428827,4288.27
428925,4289.25
429022,4290.22
429118,4291.18
429216,4292.16
429312,4293.12
429409,4294.09
429511,4295.11
429615,4296.15
429717,4297.17
429812,4298.12
429903,4299.03
429991,4299.91
430077,4300.77
430160,4301.6
430245,4302.45
430332,4303.32
430425,4304.25
430518,4305.18
430608,4306.08
430701,4307.01
430795,4307.95
430891,4308.91
430989,4309.89
431092,4310.92
431196,4311.96
431296,4312.96
431393,4313.93
431485,4314.85
431574,4315.74
431661,4316.61
431748,4317.48
431836,4318.36
431921,4319.21
432007,4320.07
432092,4320.92
432178,4321.78
432264,4322.64
432354,4323.54
432447,4324.47
432545,4325.45
432646,4326.46
432749,4327.49
432853,4328.53
432953,4329.53
433051,4330.51
433150,4331.5
433249,4332.49
433348,4333.48
433452,4334.52
433553,4335.53
433652,4336.52
433750,4337.5
433850,4338.5
433952,4339.52
434059,4340.59
434167,4341.67
434268,4342.68
434371,4343.71
434474,4344.74
434580,4345.8
434684,4346.84
434791,4347.91
434898,4348.98
435003,4350.03
435102,4351.02
435198,4351.98
435294,4352.94
435390,4353.9
435487,4354.87
435586,4355.86
435681,4356.81
435777,4357.77
435876,4358.76
435974,4359.74
436072,4360.72
436170,4361.7
436270,4362.7
436369,4363.69
436470,4364.7
436575,4365.75
436683,4366.83
436791,4367.91
436894,4368.94
436997,4369.97
437105,4371.05
437211,4372.11
437315,4373.15
437415,4374.15
437517,4375.17
437620,4376.2
437725,4377.25
437829,4378.29
437927,4379.27
438028,4380.28
438130,4381.3
438233,4382.33
438333,4383.33
438439,4384.39
438546,4385.46
438650,4386.5
438749,4387.49
438852,4388.52
438957,4389.57
439060,4390.6
439165,4391.65
439272,4392.72
439379,4393.79
439483,4394.83
439587,4395.87
439691,4396.91
439790,4397.9
439885,4398.85
439981,4399.81
440081,4400.81
440188,4401.88
440294,4402.94
440398,4403.98
440506,4405.06
440623,4406.23
440740,4407.4
440846,4408.46
440949,4409.49
441053,4410.53
441155,4411.55
441251,4412.51
441343,4413.43
441431,4414.31
441519,4415.19
441603,4416.03
441689,4416.89
441779,4417.79
441871,4418.71
441959,4419.59
442052,4420.52
442144,4421.44
442233,4422.33
442324,4423.24
442416,4424.16
442514,4425.14
442610,4426.1
442702,4427.02
442799,4427.99
442898,4428.98
443001,4430.01
443103,4431.03
443206,4432.06
443310,4433.1
443418,4434.18
443525,4435.25
443631,4436.31
443733,4437.33
443831,4438.31
443928,4439.28
444024,4440.24
444120,4441.2
444216,4442.16
444312,4443.12
444407,4444.07
444499,4444.99
444592,4445.92
444684,4446.84
444779,4447.79
444874,4448.74
444967,4449.67
445061,4450.61
445158,4451.58
445259,4452.59
445368,4453.68
445478,4454.78
445583,4455.83
445687,4456.87
445791,4457.91
445895,4458.95
445997,4459.97
446097,4460.97
446199,4461.99
446300,4463.0
446399,4463.99
446500,4465.0
446602,4466.02
446704,4467.04
446803,4468.03
446905,4469.05
447009,4470.09
447114,4471.14
447216,4472.16
447321,4473.21
447427,4474.27
447532,4475.32
447636,4476.36
447741,4477.41
447844,4478.44
447943,4479.43
448043,4480.43
448145,4481.45
448247,4482.47
448347,4483.47
448445,4484.45
448545,4485.45
448646,4486.46
448749,4487.49
448855,4488.55
448959,4489.59
449061,4490.61
449164,4491.64
449267,4492.67
449368,4493.68
449468,4494.68
449568,4495.68
449665,4496.65
449761,4497.61
449857,4498.57
449956,4499.56
450055,4500.55
450148,4501.48
450240,4502.4
450330,4503.3
450421,4504.21
450513,4505.13
450599,4505.99
450686,4506.86
450772,4507.72
450856,4508.56
450942,4509.42
451031,4510.31
451124,4511.24
451221,4512.21
451314,4513.14
451405,4514.05
451497,4514.97
451591,4515.91
451687,4516.87
451778,4517.78
451870,4518.7
451963,4519.63
452056,4520.56
452152,4521.52
452252,4522.52
452356,4523.56
452464,4524.64
452570,4525.7
452676,4526.76
452784,4527.84
452889,4528.89
452993,4529.93
453093,4530.93
453194,4531.94
453296,4532.96
453397,4533.97
453500,4535.0
453598,4535.98
453695,4536.95
453792,4537.92
453889,4538.89
453990,4539.9
454091,4540.91
454191,4541.91
454292,4542.92
454394,4543.94
454496,4544.96
454599,4545.99
454702,4547.02
454806,4548.06
454909,4549.09
455009,4550.09
455110,4551.1
455210,4552.1
455308,4553.08
455404,4554.04
455503,4555.03
455602,4556.02
455699,4556.99
455796,4557.96
455896,4558.96
455997,4559.97
456098,4560.98
456198,4561.98
456298,4562.98
456398,4563.98
456493,4564.93
456585,4565.85
456676,4566.76
456767,4567.67
456865,4568.65
456965,4569.65
457070,4570.7
457170,4571.7
457275,4572.75
457374,4573.74
457473,4574.73
457568,4575.68
457660,4576.6
457748,4577.48
457832,4578.32
457915,4579.15
457999,4579.99
458083,4580.83
458168,4581.68
458257,4582.57
458349,4583.49
458442,4584.42
458537,4585.37
458633,4586.33
458728,4587.28
458824,4588.24
458919,4589.19
459014,4590.14
459111,4591.11
459209,4592.09
459309,4593.09
459407,4594.07
459504,4595.04
459606,4596.06
459709,4597.09
459814,4598.14
459918,4599.18
460017,4600.17
460116,4601.16
460216,4602.16
460316,4603.16
460414,4604.14
460509,4605.09
460604,4606.04
460700,4607.0
460801,4608.01
460907,4609.07
461009,4610.09
461112,4611.12
461214,4612.14
461313,4613.13
461409,4614.09
461507,4615.07
461606,4616.06
461709,4617.09
461811,4618.11
461910,4619.1
462012,4620.12
462116,4621.16
462217,4622.17
462317,4623.17
462420,4624.2
462522,4625.22
462620,4626.2
462719,4627.19
462819,4628.19
462917,4629.17
463015,4630.15
463114,4631.14
463215,4632.15
463319,4633.19
463421,4634.21
463522,4635.22
463624,4636.24
463727,4637.27
463825,4638.25
463917,4639.17
464004,4640.04
464087,4640.87
464167,4641.67
464246,4642.46
464325,4643.25
464404,4644.04
464482,4644.82
464563,4645.63
464644,4646.44
464722,4647.22
464802,4648.02
464881,4648.81
464962,4649.62
465041,4650.41
465121,4651.21
465200,4652.0
465278,4652.78
465355,4653.55
465432,4654.32
465509,4655.09
465583,4655.83
465660,4656.6
465736,4657.36
465811,4658.11
465886,4658.86
465958,4659.58
466027,4660.27
466097,4660.97
466172,4661.72
466247,4662.47
466318,4663.18
466389,4663.89
466460,4664.6
466530,4665.3
466601,4666.01
466671,4666.71
466742,4667.42
466813,4668.13
466886,4668.86
466960,4669.6
467033,4670.33
467107,4671.07
467181,4671.81
467255,4672.55
467332,4673.32
467408,4674.08
467483,4674.83
467556,4675.56
467630,4676.3
467706,4677.06
467782,4677.82
467858,4678.58
467935,4679.35
468013,4680.13
468094,4680.94
468177,4681.77
468260,4682.6
468345,4683.45
468430,4684.3
468514,4685.14
468595,4685.95
468677,4686.77
468761,4687.61
468844,4688.44
468925,4689.25
469004,4690.04
469087,4690.87
469168,4691.68
469252,4692.52
469335,4693.35
469417,4694.17
469501,4695.01
469586,4695.86
469673,4696.73
469763,4697.63
469850,4698.5
469939,4699.39
470031,4700.31
470124,4701.24
470216,4702.16
470306,4703.06
470395,4703.95
470482,4704.82
470562,4705.62
470646,4706.46
470729,4707.29
470813,4708.13
470899,4708.99
470984,4709.84
471070,4710.7
471160,4711.6
471254,4712.54
471349,4713.49
471440,4714.4
471531,4715.31
471626,4716.26
471725,4717.25
471829,4718.29
471930,4719.3
472031,4720.31
472126,4721.26
472221,4722.21
472317,4723.17
472413,4724.13
472512,4725.12
472611,4726.11
472707,4727.07
472799,4727.99
472897,4728.97
472996,4729.96
473098,4730.98
473196,4731.96
473288,4732.88
473383,4733.83
473478,4734.78
473578,4735.78
473672,4736.72
473763,4737.63
473858,4738.58
473953,4739.53
474051,4740.51
474145,4741.45
474238,4742.38
474336,4743.36
474437,4744.37
474540,4745.4
474643,4746.43
474746,4747.46
474846,4748.46
474944,4749.44
475045,4750.45
475146,4751.46
475247,4752.47
475348,4753.48
475446,4754.46
475540,4755.4
475637,4756.37
475734,4757.34
475831,4758.31
475921,4759.21
476009,4760.09
476099,4760.99
476193,4761.93
476285,4762.85
476374,4763.74
476463,4764.63
476553,4765.53
476642,4766.42
476726,4767.26
476814,4768.14
476902,4769.02
476995,4769.95
477088,4770.88
477178,4771.78
477269,4772.69
477361,4773.61
477453,4774.53
477547,4775.47
477635,4776.35
477724,4777.24
477815,4778.15
477907,4779.07
478000,4780.0
478093,4780.93
478185,4781.85
478276,4782.76
478363,4783.63
478454,4784.54
478546,4785.46
478638,4786.38
478727,4787.27
478814,4788.14
478900,4789.0
478992,4789.92
479084,4790.84
479173,4791.73
479261,4792.61
479350,4793.5
479444,4794.44
479535,4795.35
479622,4796.22
479709,4797.09
479794,4797.94
479879,4798.79
479960,4799.6
480043,4800.43
480128,4801.28
480215,4802.15
480300,4803.0
480385,4803.85
480473,4804.73
480560,4805.6
480646,4806.46
480731,4807.31
480815,4808.15
480897,4808.97
480980,4809.8
481060,4810.6
481139,4811.39
481220,4812.2
481302,4813.02
481384,4813.84
481466,4814.66
481549,4815.49
481632,4816.32
481712,4817.12
481793,4817.93
481875,4818.75
481958,4819.58
482042,4820.42
482127,4821.27
482212,4822.12
482297,4822.97
482384,4823.84
482471,4824.71
482562,4825.62
482655,4826.55
482748,4827.48
482840,4828.4
482935,4829.35
483033,4830.33
483133,4831.33
483234,4832.34
483333,4833.33
483428,4834.28
483520,4835.2
483612,4836.12
483704,4837.04
483797,4837.97
483886,4838.86
483972,4839.72
484058,4840.58
484147,4841.47
484240,4842.4
484331,4843.31
484418,4844.18
484505,4845.05
484591,4845.91
484680,4846.8
484765,4847.65
484849,4848.49
484938,4849.38
485030,4850.3
485127,4851.27
485226,4852.26
485324,4853.24
485419,4854.19
485516,4855.16
485614,4856.14
485712,4857.12
485809,4858.09
485905,4859.05
485998,4859.98
486092,4860.92
486185,4861.85
486278,4862.78
486368,4863.68
486455,4864.55
486545,4865.45
486634,4866.34
486727,4867.27
486815,4868.15
486903,4869.03
486989,4869.89
487081,4870.81
487174,4871.74
487262,4872.62
487347,4873.47
487433,4874.33
487519,4875.19
487605,4876.05
487687,4876.87
487771,4877.71
487855,4878.55
487938,4879.38
488018,4880.18
488102,4881.02
488185,4881.85
488269,4882.69
488349,4883.49
488431,4884.31
488514,4885.14
488599,4885.99
488685,4886.85
488771,4887.71
488858,4888.58
488949,4889.49
489042,4890.42
489137,4891.37
489235,4892.35
489334,4893.34
489432,4894.32
489529,4895.29
489624,4896.24
489719,4897.19
489811,4898.11
489903,4899.03
489994,4899.94
490086,4900.86
490177,4901.77
490268,4902.68
490359,4903.59
490450,4904.5
490541,4905.41
490630,4906.3
490719,4907.19
490812,4908.12
490906,4909.06
491002,4910.02
491095,4910.95
491186,4911.86
491278,4912.78
491372,4913.72
491465,4914.65
491552,4915.52
491637,4916.37
491723,4917.23
491809,4918.09
491893,4918.93
491975,4919.75
492056,4920.56
492140,4921.4
492225,4922.25
492310,4923.1
492395,4923.95
492480,4924.8
492565,4925.65
492651,4926.51
492740,4927.4
492829,4928.29
492920,4929.2
493010,4930.1
493101,4931.01
493193,4931.93
493288,4932.88
493386,4933.86
493485,4934.85
493585,4935.85
493683,4936.83
493782,4937.82
493880,4938.8
493976,4939.76
494071,4940.71
494166,4941.66
494260,4942.6
494352,4943.52
494443,4944.43
494531,4945.31
494617,4946.17
494704,4947.04
494793,4947.93
494886,4948.86
494979,4949.79
495072,4950.72
495162,4951.62
495254,4952.54
495347,4953.47
495437,4954.37
495525,4955.25
495615,4956.15
495705,4957.05
495793,4957.93
495880,4958.8
495967,4959.67
496055,4960.55
496143,4961.43
496230,4962.3
496317,4963.17
496406,4964.06
496499,4964.99
496594,4965.94
496688,4966.88
496781,4967.81
496876,4968.76
496972,4969.72
497066,4970.66
497160,4971.6
497252,4972.52
497344,4973.44
497436,4974.36
497526,4975.26
497614,4976.14
497703,4977.03
497793,4977.93
497885,4978.85
497977,4979.77
498067,4980.67
498153,4981.53
498241,4982.41
498330,4983.3
498421,4984.21
498510,4985.1
498597,4985.97
498686,4986.86
498776,4987.76
498864,4988.64
498950,4989.5
499037,4990.37
499125,4991.25
499210,4992.1
499295,4992.95
499380,4993.8
499465,4994.65
499551,4995.51
499637,4996.37
499724,4997.24
499814,4998.14
499909,4999.09
500010,5000.1
500111,5001.11
500209,5002.09
500305,5003.05
500401,5004.01
500496,5004.96
500590,5005.9
500684,5006.84
500777,5007.77
500869,5008.69
500961,5009.61
501052,5010.52
501142,5011.42
501231,5012.31
501320,5013.2
501410,5014.1
501500,5015.0
501590,5015.9
501681,5016.81
501770,5017.7
501859,5018.59
501951,5019.51
502044,5020.44
502136,5021.36
502227,5022.27
502325,5023.25
502423,5024.23
502517,5025.17
502609,5026.09
502703,5027.03
502795,5027.95
502883,5028.83
502968,5029.68
503052,5030.52
503135,5031.35
503216,5032.16
503298,5032.98
503379,5033.79
503459,5034.59
503539,5035.39
503620,5036.2
503701,5037.01
503782,5037.82
503864,5038.64
503949,5039.49
504037,5040.37
504131,5041.31
504231,5042.31
504332,5043.32
504431,5044.31
504533,5045.33
504637,5046.37
504741,5047.41
504845,5048.45
504948,5049.48
505051,5050.51
505152,5051.52
505250,5052.5
505346,5053.46
505442,5054.42
505538,5055.38
505634,5056.34
505730,5057.3
505826,5058.26
505920,5059.2
506012,5060.12
506105,5061.05
506201,5062.01
506297,5062.97
506391,5063.91
506482,5064.82
506572,5065.72
506665,5066.65
506760,5067.6
506855,5068.55
506948,5069.48
507041,5070.41
507140,5071.4
507240,5072.4
507335,5073.35
507431,5074.31
507533,5075.33
507627,5076.27
507714,5077.14
507802,5078.02
507887,5078.87
507970,5079.7
508053,5080.53
508135,5081.35
508218,5082.18
508300,5083.0
508382,5083.82
508464,5084.64
508547,5085.47
508630,5086.3
508714,5087.14
508797,5087.97
508883,5088.83
508968,5089.68
509066,5090.66
509159,5091.59
509257,5092.57
509360,5093.6
509465,5094.65
509570,5095.7
509672,5096.72
509773,5097.73
509871,5098.71
509968,5099.68
510064,5100.64
510159,5101.59
510256,5102.56
510352,5103.52
510447,5104.47
510542,5105.42
510637,5106.37
510731,5107.31
510826,5108.26
510919,5109.19
511016,5110.16
511117,5111.17
511223,5112.23
511324,5113.24
511420,5114.2
511520,5115.2
511621,5116.21
511724,5117.24
511819,5118.19
511912,5119.12
512007,5120.07
512102,5121.02
512195,5121.95
512286,5122.86
512376,5123.76
512468,5124.68
512556,5125.56
512639,5126.39
512723,5127.23
512805,5128.05
512884,5128.84
512964,5129.64
513043,5130.43
513123,5131.23
513203,5132.03
513282,5132.82
513362,5133.62
513443,5134.43
513524,5135.24
513606,5136.06
513689,5136.89
513773,5137.73
513861,5138.61
513952,5139.52
514043,5140.43
514141,5141.41
514244,5142.44
514350,5143.5
514455,5144.55
514557,5145.57
514656,5146.56
514754,5147.54
514851,5148.51
514946,5149.46
515041,5150.41
515135,5151.35
515228,5152.28
515319,5153.19
515410,5154.1
515501,5155.01
515596,5155.96
515691,5156.91
515785,5157.85
515877,5158.77
515969,5159.69
516062,5160.62
516158,5161.58
516252,5162.52
516346,5163.46
516439,5164.39
516537,5165.37
516640,5166.4
516739,5167.39
516835,5168.35
516934,5169.34
517031,5170.31
517124,5171.24
517216,5172.16
517309,5173.09
517403,5174.03
517492,5174.92
517581,5175.81
517670,5176.7
517757,5177.57
517840,5178.4
517922,5179.22
518003,5180.03
518083,5180.83
518163,5181.63
518242,5182.42
518322,5183.22
518400,5184.0
518478,5184.78
518556,5185.56
518634,5186.34
518711,5187.11
518789,5187.89
518867,5188.67
518946,5189.46
519027,5190.27
519113,5191.13
519202,5192.02
519292,5192.92
519387,5193.87
519487,5194.87
519591,5195.91
519698,5196.98
519804,5198.04
519909,5199.09
520011,5200.11
520112,5201.12
520210,5202.1
520306,5203.06
520400,5204.0
520493,5204.93
520586,5205.86
520679,5206.79
520771,5207.71
520864,5208.64
520955,5209.55
521044,5210.44
521134,5211.34
521224,5212.24
521317,5213.17
521413,5214.13
521508,5215.08
521601,5216.01
521696,5216.96
521796,5217.96
521893,5218.93
521986,5219.86
522081,5220.81
522177,5221.77
522272,5222.72
522362,5223.62
522450,5224.5
522541,5225.41
522630,5226.3
522716,5227.16
522800,5228.0
522882,5228.82
522964,5229.64
523045,5230.45
523126,5231.26
523207,5232.07
523286,5232.86
523366,5233.66
523445,5234.45
523523,5235.23
523600,5236.0
523678,5236.78
523756,5237.56
523837,5238.37
523921,5239.21
524005,5240.05
524095,5240.95
524191,5241.91
524300,5243.0
524410,5244.1
524519,5245.19
524625,5246.25
524728,5247.28
524829,5248.29
524928,5249.28
525026,5250.26
525123,5251.23
525219,5252.19
525314,5253.14
525408,5254.08
525502,5255.02
525595,5255.95
525688,5256.88
525780,5257.8
525870,5258.7
525958,5259.58
526048,5260.48
526141,5261.41
526233,5262.33
526323,5263.23
526410,5264.1
526499,5264.99
526591,5265.91
526686,5266.86
526778,5267.78
526869,5268.69
526962,5269.62
527060,5270.6
527156,5271.56
527247,5272.47
527339,5273.39
527431,5274.31
527526,5275.26
527612,5276.12
527696,5276.96
527779,5277.79
527861,5278.61
527940,5279.4
528019,5280.19
528099,5280.99
528179,5281.79
528255,5282.55
528333,5283.33
528412,5284.12
528491,5284.91
528566,5285.66
528645,5286.45
528724,5287.24
528803,5288.03
528885,5288.85
528972,5289.72
529059,5290.59
529150,5291.5
529248,5292.48
529355,5293.55
529466,5294.66
529576,5295.76
529685,5296.85
529793,5297.93
529900,5299.0
530006,5300.06
530110,5301.1
530213,5302.13
530314,5303.14
530414,5304.14
530512,5305.12
530610,5306.1
530704,5307.04
530798,5307.98
530889,5308.89
530978,5309.78
531069,5310.69
531163,5311.63
531259,5312.59
531355,5313.55
531448,5314.48
531541,5315.41
531639,5316.39
531740,5317.4
531834,5318.34
531927,5319.27
532021,5320.21
532118,5321.18
532217,5322.17
532308,5323.08
532398,5323.98
532488,5324.88
532581,5325.81
532672,5326.72
532761,5327.61
532845,5328.45
532934,5329.34
533013,5330.13
533093,5330.93
533171,5331.71
533249,5332.49
533325,5333.25
533401,5334.01
533479,5334.79
533558,5335.58
533635,5336.35
533710,5337.1
533786,5337.86
533864,5338.64
533941,5339.41
534021,5340.21
534099,5340.99
534185,5341.85
534272,5342.72
534366,5343.66
534464,5344.64
534567,5345.67
534674,5346.74
534781,5347.81
534888,5348.88
534992,5349.92
535093,5350.93
535193,5351.93
535291,5352.91
535388,5353.88
535484,5354.84
535581,5355.81
535677,5356.77
535774,5357.74
535871,5358.71
535968,5359.68
536066,5360.66
536164,5361.64
536258,5362.58
536352,5363.52
536446,5364.46
536540,5365.4
536632,5366.32
536724,5367.24
536815,5368.15
536909,5369.09
537006,5370.06
537101,5371.01
537192,5371.92
537286,5372.86
537381,5373.81
537475,5374.75
537566,5375.66
537659,5376.59
537753,5377.53
537845,5378.45
537934,5379.34
538020,5380.2
538105,5381.05
538188,5381.88
538269,5382.69
538350,5383.5
538430,5384.3
538509,5385.09
538587,5385.87
538665,5386.65
538741,5387.41
538817,5388.17
538894,5388.94
538971,5389.71
539050,5390.5
539129,5391.29
539211,5392.11
539295,5392.95
539384,5393.84
539480,5394.8
539583,5395.83
539684,5396.84
539790,5397.9
539899,5398.99
540008,5400.08
540117,5401.17
540221,5402.21
540324,5403.24
540423,5404.23
540520,5405.2
540614,5406.14
540706,5407.06
540797,5407.97
540887,5408.87
540974,5409.74
541060,5410.6
541146,5411.46
541233,5412.33
541322,5413.22
541411,5414.11
541500,5415.0
541590,5415.9
541686,5416.86
541788,5417.88
541888,5418.88
541983,5419.83
542082,5420.82
542182,5421.82
542279,5422.79
542372,5423.72
542467,5424.67
542566,5425.66
542665,5426.65
542758,5427.58
542850,5428.5
542944,5429.44
543038,5430.38
543128,5431.28
543216,5432.16
543302,5433.02
543390,5433.9
543474,5434.74
543555,5435.55
543629,5436.29
543704,5437.04
543790,5437.9
543867,5438.67
543941,5439.41
544014,5440.14
544087,5440.87
544162,5441.62
544235,5442.35
544307,5443.07
544381,5443.81
544456,5444.56
544529,5445.29
544604,5446.04
544680,5446.8
544759,5447.59
544841,5448.41
544928,5449.28
545016,5450.16
545110,5451.1
545207,5452.07
545309,5453.09
545414,5454.14
545519,5455.19
545622,5456.22
545721,5457.21
545818,5458.18
545912,5459.12
546004,5460.04
546095,5460.95
546186,5461.86
546277,5462.77
546368,5463.68
546460,5464.6
546551,5465.51
546644,5466.44
546737,5467.37
546830,5468.3
546923,5469.23
547015,5470.15
547107,5471.07
547196,5471.96
547289,5472.89
547381,5473.81
547474,5474.74
547564,5475.64
547651,5476.51
547740,5477.4
547832,5478.32
547931,5479.31
548029,5480.29
548125,5481.25
548221,5482.21
548322,5483.22
548423,5484.23
548515,5485.15
548606,5486.06
548697,5486.97
548784,5487.84
548868,5488.68
548950,5489.5
549031,5490.31
549109,5491.09
549186,5491.86
549264,5492.64
549340,5493.4
549415,5494.15
549491,5494.91
549567,5495.67
549643,5496.43
549719,5497.19
549796,5497.96
549874,5498.74
549956,5499.56
550041,5500.41
550129,5501.29
550223,5502.23
550325,5503.25
550442,5504.42
550559,5505.59
550669,5506.69
550776,5507.76
550882,5508.82
550989,5509.89
551094,5510.94
551199,5511.99
551304,5513.04
551409,5514.09
551513,5515.13
551617,5516.17
551719,5517.19
551819,5518.19
551920,5519.2
552019,5520.19
552116,5521.16
552207,5522.07
552295,5522.95
552386,5523.86
552479,5524.79
552575,5525.75
552670,5526.7
552764,5527.64
552857,5528.57
552957,5529.57
553058,5530.58
553155,5531.55
553249,5532.49
553340,5533.4
553436,5534.36
553531,5535.31
553621,5536.21
553710,5537.1
553797,5537.97
553887,5538.87
553966,5539.66
554047,5540.47
554128,5541.28
554206,5542.06
554283,5542.83
554363,5543.63
554442,5544.42
554520,5545.2
554598,5545.98
554677,5546.77
554757,5547.57
554833,5548.33
554912,5549.12
554993,5549.93
555076,5550.76
555163,5551.63
555249,5552.49
555341,5553.41
555438,5554.38
555539,5555.39
555646,5556.46
555754,5557.54
555861,5558.61
555967,5559.67
556070,5560.7
556171,5561.71
556269,5562.69
556367,5563.67
556464,5564.64
556560,5565.6
556655,5566.55
556750,5567.5
556844,5568.44
556940,5569.4
557035,5570.35
557131,5571.31
557225,5572.25
557317,5573.17
557412,5574.12
557510,5575.1
557607,5576.07
557702,5577.02
557802,5578.02
557905,5579.05
558008,5580.08
558107,5581.07
558201,5582.01
558295,5582.95
558393,5583.93
558493,5584.93
558588,5585.88
558683,5586.83
558781,5587.81
558881,5588.81
558975,5589.75
559067,5590.67
559157,5591.57
559252,5592.52
559336,5593.36
559419,5594.19
559500,5595.0
559581,5595.81
559658,5596.58
559737,5597.37
559815,5598.15
559890,5598.9
559966,5599.66
560044,5600.44
560121,5601.21
560195,5601.95
560273,5602.73
560351,5603.51
560433,5604.33
560517,5605.17
560600,5606.0
560689,5606.89
560783,5607.83
560885,5608.85
560994,5609.94
561103,5611.03
561210,5612.1
561315,5613.15
561417,5614.17
561520,5615.2
561622,5616.22
561724,5617.24
561827,5618.27
561928,5619.28
562028,5620.28
562126,5621.26
562223,5622.23
562318,5623.18
562412,5624.12
562505,5625.05
562598,5625.98
562690,5626.9
562780,5627.8
562865,5628.65
562952,5629.52
563040,5630.4
563132,5631.32
563226,5632.26
563317,5633.17
563407,5634.07
563502,5635.02
563599,5635.99
563696,5636.96
563788,5637.88
563879,5638.79
563974,5639.74
564069,5640.69
564159,5641.59
564250,5642.5
564343,5643.43
564438,5644.38
564524,5645.24
564610,5646.1
564692,5646.92
564774,5647.74
564851,5648.51
564931,5649.31
565009,5650.09
565084,5650.84
565160,5651.6
565238,5652.38
565315,5653.15
565390,5653.9
565466,5654.66
565544,5655.44
565622,5656.22
565703,5657.03
565784,5657.84
565869,5658.69
565956,5659.56
566048,5660.48
566148,5661.48
566253,5662.53
566357,5663.57
566464,5664.64
566574,5665.74
566682,5666.82
566789,5667.89
566894,5668.94
566997,5669.97
567098,5670.98
567199,5671.99
567300,5673.0
567401,5674.01
567500,5675.0
567599,5675.99
567696,5676.96
567793,5677.93
567888,5678.88
567982,5679.82
568073,5680.73
568167,5681.67
568264,5682.64
568363,5683.63
568461,5684.61
568555,5685.55
568647,5686.47
568744,5687.44
568842,5688.42
568938,5689.38
569029,5690.29
569120,5691.2
569217,5692.17
569314,5693.14
569405,5694.05
569495,5694.95
569585,5695.85
569679,5696.79
569769,5697.69
569858,5698.58
569946,5699.46
570035,5700.35
570114,5701.14
570194,5701.94
570273,5702.73
570349,5703.49
570425,5704.25
570502,5705.02
570578,5705.78
570653,5706.53
570729,5707.29
570805,5708.05
570882,5708.82
570956,5709.56
571033,5710.33
571110,5711.1
571190,5711.9
571271,5712.71
571353,5713.53
571439,5714.39
571531,5715.31
571632,5716.32
571739,5717.39
571846,5718.46
571954,5719.54
572061,5720.61
572165,5721.65
572268,5722.68
572368,5723.68
572466,5724.66
572564,5725.64
572661,5726.61
572757,5727.57
572854,5728.54
572952,5729.52
573051,5730.51
573147,5731.47
573243,5732.43
573337,5733.37
573431,5734.31
573523,5735.23
573613,5736.13
573700,5737.0
573788,5737.88
573877,5738.77
573971,5739.71
574068,5740.68
574161,5741.61
574254,5742.54
574348,5743.48
574444,5744.44
574539,5745.39
574628,5746.28
574716,5747.16
574807,5748.07
574898,5748.98
574989,5749.89
575079,5750.79
575171,5751.71
575270,5752.7
575369,5753.69
575460,5754.6
575551,5755.51
575641,5756.41
575720,5757.2
575800,5758.0
575877,5758.77
575955,5759.55
576029,5760.29
576104,5761.04
576180,5761.8
576254,5762.54
576329,5763.29
576405,5764.05
576481,5764.81
576555,5765.55
576631,5766.31
576708,5767.08
576786,5767.86
576866,5768.66
576950,5769.5
577035,5770.35
577124,5771.24
577217,5772.17
577316,5773.16
577423,5774.23
577538,5775.38
577653,5776.53
577764,5777.64
577871,5778.71
577974,5779.74
578074,5780.74
578173,5781.73
578270,5782.7
578366,5783.66
578461,5784.61
578555,5785.55
578650,5786.5
578744,5787.44
578837,5788.37
578930,5789.3
579021,5790.21
579112,5791.12
579200,5792.0
579289,5792.89
579383,5793.83
579481,5794.81
579582,5795.82
579678,5796.78
579772,5797.72
579866,5798.66
579962,5799.62
580063,5800.63
580160,5801.6
580254,5802.54
580351,5803.51
580448,5804.48
580543,5805.43
580635,5806.35
580727,5807.27
580822,5808.22
580913,5809.13
581001,5810.01
581088,5810.88
581171,5811.71
581253,5812.53
581332,5813.32
581411,5814.11
581491,5814.91
581568,5815.68
581645,5816.45
581720,5817.2
581795,5817.95
581869,5818.69
581944,5819.44
582018,5820.18
582094,5820.94
582169,5821.69
582247,5822.47
582329,5823.29
582420,5824.2
582536,5825.36
582653,5826.53
582763,5827.63
582874,5828.74
582984,5829.84
583092,5830.92
583198,5831.98
583303,5833.03
583408,5834.08
583511,5835.11
583614,5836.14
583717,5837.17
583820,5838.2
583923,5839.23
584025,5840.25
584126,5841.26
584227,5842.27
584324,5843.24
584419,5844.19
584511,5845.11
584606,5846.06
584700,5847.0
584789,5847.89
584876,5848.76
584964,5849.64
585057,5850.57
585155,5851.55
585252,5852.52
585344,5853.44
585437,5854.37
585536,5855.36
585636,5856.36
585727,5857.27
585818,5858.18
585908,5859.08
586002,5860.02
586089,5860.89
586175,5861.75
586257,5862.57
586340,5863.4
586417,5864.17
586494,5864.94
586571,5865.71
586645,5866.45
586720,5867.2
586796,5867.96
586868,5868.68
586943,5869.43
587018,5870.18
587093,5870.93
587166,5871.66
587241,5872.41
587317,5873.17
587396,5873.96
587478,5874.78
587563,5875.63
587651,5876.51
587743,5877.43
587844,5878.44
587950,5879.5
588057,5880.57
588162,5881.62
588267,5882.67
588372,5883.72
588474,5884.74
588575,5885.75
588675,5886.75
588773,5887.73
588870,5888.7
588965,5889.65
589060,5890.6
589155,5891.55
589250,5892.5
589345,5893.45
589441,5894.41
589536,5895.36
589629,5896.29
589720,5897.2
589808,5898.08
589898,5898.98
589990,5899.9
590087,5900.87
590184,5901.84
590276,5902.76
590365,5903.65
590459,5904.59
590552,5905.52
590645,5906.45
590734,5907.34
590823,5908.23
590916,5909.16
591008,5910.08
591098,5910.98
591190,5911.9
591279,5912.79
591369,5913.69
591449,5914.49
591528,5915.28
591606,5916.06
591683,5916.83
591759,5917.59
591834,5918.34
591911,5919.11
591985,5919.85
592060,5920.6
592135,5921.35
592211,5922.11
592284,5922.84
592358,5923.58
592435,5924.35
592513,5925.13
592594,5925.94
592678,5926.78
592764,5927.64
592852,5928.52
592942,5929.42
593035,5930.35
593133,5931.33
593235,5932.35
593341,5933.41
593449,5934.49
593555,5935.55
593663,5936.63
593768,5937.68
593872,5938.72
593976,5939.76
594079,5940.79
594182,5941.82
594283,5942.83
594383,5943.83
594482,5944.82
594581,5945.81
594679,5946.79
594776,5947.76
594871,5948.71
594964,5949.64
595054,5950.54
595145,5951.45
595238,5952.38
595334,5953.34
595430,5954.3
595524,5955.24
595615,5956.15
595710,5957.1
595809,5958.09
595912,5959.12
596007,5960.07
596103,5961.03
596201,5962.01
596297,5962.97
596387,5963.87
596477,5964.77
596564,5965.64
596643,5966.43
596722,5967.22
596800,5968.0
596880,5968.8
596956,5969.56
597034,5970.34
597112,5971.12
597191,5971.91
597267,5972.67
597344,5973.44
597423,5974.23
597498,5974.98
597574,5975.74
597652,5976.52
597732,5977.32
597815,5978.15
597905,5979.05
597999,5979.99
598100,5981.0
598211,5982.11
598326,5983.26
598439,5984.39
598548,5985.48
598652,5986.52
598753,5987.53
598851,5988.51
598949,5989.49
599044,5990.44
599138,5991.38
599232,5992.32
599325,5993.25
599418,5994.18
599512,5995.12
599607,5996.07
599704,5997.04
599800,5998.0
599897,5998.97
599990,5999.9
600085,6000.85
600180,6001.8
600275,6002.75
600368,6003.68
600459,6004.59
600549,6005.49
600641,6006.41
600737,6007.37
600833,6008.33
600928,6009.28
601018,6010.18
601111,6011.11
601206,6012.06
601302,6013.02
601395,6013.95
601487,6014.87
601584,6015.84
601681,6016.81
601771,6017.71
601858,6018.58
601941,6019.41
602023,6020.23
602101,6021.01
602179,6021.79
602258,6022.58
602336,6023.36
602411,6024.11
602488,6024.88
602565,6025.65
602641,6026.41
602717,6027.17
602794,6027.94
602871,6028.71
602951,6029.51
603034,6030.34
603119,6031.19
603211,6032.11
603316,6033.16
603433,6034.33
603552,6035.52
603666,6036.66
603777,6037.77
603888,6038.88
603998,6039.98
604107,6041.07
604215,6042.15
604322,6043.22
604428,6044.28
604533,6045.33
604637,6046.37
604740,6047.4
604842,6048.42
604942,6049.42
605039,6050.39
605136,6051.36
605231,6052.31
605325,6053.25
605417,6054.17
605508,6055.08
605598,6055.98
605692,6056.92
605788,6057.88
605883,6058.83
605974,6059.74
606064,6060.64
606159,6061.59
606258,6062.58
606359,6063.59
606454,6064.54
606550,6065.5
606648,6066.48
606748,6067.48
606842,6068.42
606932,6069.32
607023,6070.23
607117,6071.17
607203,6072.03
607285,6072.85
607365,6073.65
607444,6074.44
607520,6075.2
607597,6075.97
607674,6076.74
607752,6077.52
607827,6078.27
607903,6079.03
607980,6079.8
608054,6080.54
608129,6081.29
608206,6082.06
608282,6082.82
608360,6083.6
608438,6084.38
608520,6085.2
608603,6086.03
608689,6086.89
608778,6087.78
608872,6088.72
608965,6089.65
609060,6090.6
609159,6091.59
609259,6092.59
609358,6093.58
609460,6094.6
609560,6095.6
609659,6096.59
609757,6097.57
609855,6098.55
609951,6099.51
610047,6100.47
610142,6101.42
610236,6102.36
610331,6103.31
610426,6104.26
610519,6105.19
610611,6106.11
610702,6107.02
610790,6107.9
610877,6108.77
610966,6109.66
611058,6110.58
611151,6111.51
611243,6112.43
611334,6113.34
611426,6114.26
611524,6115.24
611620,6116.2
611718,6117.18
611811,6118.11
611902,6119.02
611994,6119.94
612084,6120.84
612171,6121.71
612254,6122.54
612335,6123.35
612414,6124.14
612493,6124.93
612571,6125.71
612648,6126.48
612724,6127.24
612800,6128.0
612875,6128.75
612951,6129.51
613027,6130.27
613103,6131.03
613177,6131.77
613252,6132.52
613329,6133.29
613405,6134.05
613482,6134.82
613558,6135.58
613635,6136.35
613710,6137.1
613785,6137.85
613860,6138.6
613935,6139.35
614010,6140.1
614084,6140.84
614158,6141.58
614232,6142.32
614305,6143.05
614379,6143.79
614451,6144.51
614524,6145.24
614597,6145.97
614671,6146.71
614746,6147.46
614822,6148.22
614902,6149.02
614986,6149.86
615076,6150.76
615172,6151.72
615273,6152.73
615378,6153.78
615485,6154.85
615589,6155.89
615687,6156.87
615779,6157.79
615871,6158.71
615961,6159.61
616052,6160.52
616140,6161.4
616225,6162.25
616309,6163.09
616393,6163.93
616478,6164.78
616561,6165.61
616643,6166.43
616727,6167.27
616812,6168.12
616901,6169.01
616990,6169.9
617079,6170.79
617174,6171.74
617273,6172.73
617376,6173.76
617478,6174.78
617574,6175.74
617672,6176.72
617771,6177.71
617870,6178.7
617968,6179.68
618065,6180.65
618161,6181.61
618256,6182.56
618355,6183.55
618459,6184.59
618562,6185.62
618663,6186.63
618760,6187.6
618858,6188.58
618957,6189.57
619058,6190.58
619156,6191.56
619250,6192.5
619345,6193.45
619437,6194.37
619523,6195.23
619607,6196.07
619690,6196.9
619774,6197.74
619857,6198.57
619938,6199.38
620021,6200.21
620107,6201.07
620194,6201.94
620280,6202.8
620368,6203.68
620457,6204.57
620549,6205.49
620644,6206.44
620736,6207.36
620832,6208.32
620932,6209.32
621035,6210.35
621139,6211.39
621240,6212.4
621341,6213.41
621442,6214.42
621540,6215.4
621637,6216.37
621733,6217.33
621830,6218.3
621927,6219.27
622025,6220.25
622121,6221.21
622217,6222.17
622310,6223.1
622402,6224.02
622497,6224.97
622592,6225.92
622685,6226.85
622778,6227.78
622875,6228.75
622973,6229.73
623072,6230.72
623166,6231.66
623255,6232.55
623349,6233.49
623442,6234.42
623533,6235.33
623621,6236.21
623713,6237.13
623812,6238.12
623911,6239.11
624006,6240.06
624101,6241.01
624210,6242.1
624319,6243.19
624417,6244.17
624513,6245.13
624615,6246.15
624719,6247.19
624820,6248.2
624918,6249.18
625024,6250.24
625131,6251.31
625232,6252.32
625326,6253.26
625423,6254.23
625526,6255.26
625628,6256.28
625714,6257.14
625800,6258.0
625891,6258.91
625982,6259.82
626069,6260.69
626151,6261.51
626229,6262.29
626307,6263.07
626384,6263.84
626459,6264.59
626535,6265.35
626612,6266.12
626689,6266.89
626764,6267.64
626840,6268.4
626918,6269.18
626996,6269.96
627075,6270.75
627151,6271.51
627233,6272.33
627316,6273.16
627406,6274.06
627501,6275.01
627600,6276.0
627703,6277.03
627807,6278.07
627910,6279.1
628011,6280.11
628112,6281.12
628212,6282.12
628309,6283.09
628407,6284.07
628502,6285.02
628596,6285.96
628689,6286.89
628782,6287.82
628874,6288.74
628968,6289.68
629064,6290.64
629160,6291.6
629255,6292.55
629346,6293.46
629437,6294.37
629528,6295.28
629624,6296.24
629719,6297.19
629811,6298.11
629900,6299.0
629995,6299.95
630090,6300.9
630190,6301.9
630285,6302.85
630377,6303.77
630475,6304.75
630572,6305.72
630666,6306.66
630757,6307.57
630852,6308.52
630945,6309.45
631037,6310.37
631124,6311.24
631219,6312.19
631312,6313.12
631409,6314.09
631499,6314.99
631592,6315.92
631690,6316.9
631787,6317.87
631878,6318.78
631964,6319.64
632060,6320.6
632154,6321.54
632246,6322.46
632337,6323.37
632427,6324.27
632523,6325.23
632620,6326.2
632711,6327.11
632802,6328.02
632903,6329.03
633004,6330.04
633101,6331.01
633193,6331.93
633285,6332.85
633383,6333.83
633480,6334.8
633566,6335.66
633651,6336.51
633739,6337.39
633827,6338.27
633913,6339.13
633997,6339.97
634081,6340.81
634171,6341.71
634259,6342.59
634341,6343.41
634427,6344.27
634517,6345.17
634596,6345.96
634676,6346.76
634753,6347.53
634829,6348.29
634905,6349.05
634979,6349.79
635054,6350.54
635127,6351.27
635202,6352.02
635276,6352.76
635349,6353.49
635422,6354.22
635498,6354.98
635573,6355.73
635651,6356.51
635730,6357.3
635813,6358.13
635900,6359.0
635993,6359.93
636091,6360.91
636193,6361.93
636294,6362.94
636396,6363.96
636500,6365.0
636602,6366.02
636702,6367.02
636801,6368.01
636899,6368.99
636995,6369.95
637091,6370.91
637185,6371.85
637279,6372.79
637373,6373.73
637465,6374.65
637556,6375.56
637648,6376.48
637741,6377.41
637832,6378.32
637919,6379.19
638008,6380.08
638100,6381.0
638196,6381.96
638295,6382.95
638389,6383.89
638481,6384.81
638580,6385.8
638677,6386.77
638770,6387.7
638862,6388.62
638958,6389.58
639056,6390.56
639156,6391.56
639249,6392.49
639342,6393.42
639444,6394.44
639547,6395.47
639644,6396.44
639737,6397.37
639830,6398.3
639934,6399.34
640038,6400.38
640130,6401.3
640222,6402.22
640317,6403.17
640411,6404.11
640499,6404.99
640582,6405.82
640668,6406.68
640763,6407.63
640858,6408.58
640943,6409.43
641030,6410.3
641120,6411.2
641211,6412.11
641292,6412.92
641375,6413.75
641454,6414.54
641530,6415.3
641604,6416.04
641676,6416.76
641749,6417.49
641820,6418.2
641892,6418.92
641963,6419.63
642035,6420.35
642107,6421.07
642176,6421.76
642247,6422.47
642318,6423.18
642389,6423.89
642458,6424.58
642529,6425.29
642599,6425.99
642670,6426.7
642741,6427.41
642811,6428.11
642882,6428.82
642953,6429.53
643024,6430.24
643095,6430.95
643166,6431.66
643238,6432.38
643310,6433.1
643382,6433.82
643454,6434.54
643526,6435.26
643597,6435.97
643669,6436.69
643742,6437.42
643815,6438.15
643889,6438.89
643965,6439.65
644042,6440.42
644122,6441.22
644205,6442.05
644290,6442.9
644376,6443.76
644465,6444.65
644555,6445.55
644645,6446.45
644736,6447.36
644826,6448.26
644916,6449.16
645005,6450.05
645092,6450.92
645177,6451.77
645265,6452.65
645355,6453.55
645447,6454.47
645537,6455.37
645626,6456.26
645719,6457.19
645812,6458.12
645901,6459.01
645988,6459.88
646070,6460.7
646151,6461.51
646229,6462.29
646307,6463.07
646385,6463.85
646464,6464.64
646541,6465.41
646618,6466.18
646694,6466.94
646771,6467.71
646846,6468.46
646921,6469.21
646997,6469.97
647076,6470.76
647156,6471.56
647236,6472.36
647318,6473.18
647404,6474.04
647496,6474.96
647595,6475.95
647698,6476.98
647802,6478.02
647907,6479.07
648012,6480.12
648115,6481.15
648219,6482.19
648321,6483.21
648423,6484.23
648523,6485.23
648623,6486.23
648723,6487.23
648819,6488.19
648912,6489.12
649003,6490.03
649093,6490.93
649185,6491.85
649279,6492.79
649375,6493.75
649470,6494.7
649562,6495.62
649654,6496.54
649746,6497.46
649839,6498.39
649935,6499.35
650025,6500.25
650116,6501.16
650200,6502.0
650289,6502.89
650374,6503.74
650455,6504.55
650536,6505.36
650615,6506.15
650696,6506.96
650774,6507.74
650853,6508.53
650934,6509.34
651011,6510.11
651089,6510.89
651166,6511.66
651243,6512.43
651322,6513.22
651402,6514.02
651479,6514.79
651560,6515.6
651640,6516.4
651723,6517.23
651806,6518.06
651888,6518.88
651975,6519.75
652063,6520.63
652156,6521.56
652255,6522.55
652359,6523.59
652459,6524.59
652558,6525.58
652656,6526.56
652752,6527.52
652846,6528.46
652940,6529.4
653033,6530.33
653126,6531.26
653220,6532.2
653316,6533.16
653410,6534.1
653504,6535.04
653598,6535.98
653693,6536.93
653786,6537.86
653881,6538.81
653975,6539.75
654068,6540.68
654159,6541.59
654251,6542.51
654344,6543.44
654439,6544.39
654531,6545.31
654626,6546.26
654717,6547.17
654809,6548.09
654903,6549.03
654991,6549.91
655079,6550.79
655167,6551.67
655252,6552.52
655331,6553.31
655411,6554.11
655492,6554.92
655573,6555.73
655652,6556.52
655732,6557.32
655814,6558.14
655897,6558.97
655982,6559.82
656067,6560.67
656154,6561.54
656243,6562.43
656337,6563.37
656430,6564.3
656525,6565.25
656635,6566.35
656747,6567.47
656859,6568.59
656966,6569.66
657074,6570.74
657180,6571.8
657285,6572.85
657389,6573.89
657489,6574.89
657585,6575.85
657684,6576.84
657783,6577.83
657881,6578.81
657975,6579.75
658067,6580.67
658162,6581.62
658258,6582.58
658355,6583.55
658448,6584.48
658538,6585.38
658634,6586.34
658733,6587.33
658827,6588.27
658920,6589.2
659012,6590.12
659113,6591.13
659212,6592.12
659304,6593.04
659395,6593.95
659488,6594.88
659586,6595.86
659680,6596.8
659767,6597.67
659858,6598.58
659953,6599.53
660039,6600.39
660121,6601.21
660201,6602.01
660278,6602.78
660355,6603.55
660430,6604.3
660505,6605.05
660581,6605.81
660654,6606.54
660728,6607.28
660803,6608.03
660876,6608.76
660950,6609.5
661025,6610.25
661100,6611.0
661177,6611.77
661251,6612.51
661328,6613.28
661408,6614.08
661491,6614.91
661581,6615.81
661676,6616.76
661773,6617.73
661874,6618.74
661979,6619.79
662085,6620.85
662187,6621.87
662287,6622.87
662387,6623.87
662484,6624.84
662579,6625.79
662674,6626.74
662768,6627.68
662860,6628.6
662950,6629.5
663039,6630.39
663126,6631.26
663214,6632.14
663300,6633.0
663387,6633.87
663473,6634.73
663560,6635.6
663647,6636.47
663739,6637.39
663833,6638.33
663930,6639.3
664022,6640.22
664114,6641.14
664206,6642.06
664302,6643.02
664400,6644.0
664495,6644.95
664586,6645.86
664677,6646.77
664773,6647.73
664870,6648.7
664961,6649.61
665053,6650.53
665152,6651.52
665252,6652.52
665348,6653.48
665439,6654.39
665526,6655.26
665614,6656.14
665694,6656.94
665773,6657.73
665851,6658.51
665927,6659.27
666002,6660.02
666077,6660.77
666151,6661.51
666224,6662.24
666298,6662.98
666371,6663.71
666444,6664.44
666518,6665.18
666591,6665.91
666664,6666.64
666736,6667.36
666807,6668.07
666880,6668.8
666950,6669.5
667021,6670.21
667093,6670.93
667163,6671.63
667233,6672.33
667302,6673.02
667372,6673.72
667441,6674.41
667511,6675.11
667579,6675.79
667648,6676.48
667715,6677.15
667783,6677.83
667850,6678.5
667917,6679.17
667984,6679.84
668051,6680.51
668118,6681.18
668184,6681.84
668250,6682.5
668316,6683.16
668382,6683.82
668448,6684.48
668515,6685.15
668587,6685.87
668665,6686.65
668747,6687.47
668833,6688.33
668921,6689.21
669020,6690.2
669124,6691.24
669231,6692.31
669333,6693.33
669426,6694.26
669515,6695.15
669600,6696.0
669681,6696.81
669759,6697.59
669837,6698.37
669915,6699.15
669993,6699.93
670072,6700.72
670151,6701.51
670230,6702.3
670309,6703.09
670389,6703.89
670468,6704.68
670548,6705.48
670627,6706.27
670706,6707.06
670787,6707.87
670868,6708.68
670952,6709.52
671037,6710.37
671125,6711.25
671216,6712.16
671308,6713.08
671399,6713.99
671488,6714.88
671579,6715.79
671674,6716.74
671771,6717.71
671864,6718.64
671953,6719.53
672044,6720.44
672136,6721.36
672229,6722.29
672320,6723.2
672410,6724.1
672502,6725.02
672598,6725.98
672697,6726.97
672794,6727.94
672893,6728.93
672997,6729.97
673104,6731.04
673211,6732.11
673316,6733.16
673419,6734.19
673518,6735.18
673618,6736.18
673716,6737.16
673813,6738.13
673908,6739.08
674002,6740.02
674092,6740.92
674180,6741.8
674268,6742.68
674359,6743.59
674454,6744.54
674551,6745.51
674645,6746.45
674739,6747.39
674831,6748.31
674923,6749.23
675013,6750.13
675102,6751.02
675190,6751.9
675279,6752.79
675369,6753.69
675461,6754.61
675553,6755.53
675649,6756.49
675753,6757.53
675859,6758.59
675963,6759.63
676069,6760.69
676178,6761.78
676285,6762.85
676393,6763.93
676498,6764.98
676600,6766.0
676702,6767.02
676804,6768.04
676909,6769.09
677014,6770.14
677116,6771.16
677218,6772.18
677323,6773.23
677428,6774.28
677534,6775.34
677635,6776.35
677738,6777.38
677842,6778.42
677949,6779.49
678049,6780.49
678146,6781.46
678243,6782.43
678339,6783.39
678433,6784.33
678524,6785.24
678617,6786.17
678711,6787.11
678806,6788.06
678900,6789.0
678995,6789.95
679091,6790.91
679187,6791.87
679284,6792.84
679376,6793.76
679469,6794.69
679566,6795.66
679666,6796.66
679768,6797.68
679868,6798.68
679968,6799.68
680070,6800.7
680172,6801.72
680271,6802.71
680368,6803.68
680468,6804.68
680569,6805.69
680671,6806.71
680771,6807.71
680867,6808.67
680963,6809.63
681063,6810.63
681166,6811.66
681267,6812.67
681366,6813.66
681469,6814.69
681578,6815.78
681687,6816.87
681792,6817.92
681895,6818.95
682000,6820.0
682104,6821.04
682208,6822.08
682308,6823.08
682404,6824.04
682504,6825.04
682605,6826.05
682706,6827.06
682804,6828.04
682902,6829.02
683002,6830.02
683102,6831.02
683200,6832.0
683295,6832.95
683393,6833.93
683492,6834.92
683592,6835.92
683689,6836.89
683789,6837.89
683893,6838.93
683997,6839.97
684098,6840.98
684194,6841.94
684289,6842.89
684387,6843.87
684486,6844.86
684583,6845.83
684679,6846.79
684778,6847.78
684880,6848.8
684982,6849.82
685081,6850.81
685181,6851.81
685286,6852.86
685390,6853.9
685491,6854.91
685591,6855.91
685695,6856.95
685800,6858.0
685901,6859.01
686000,6860.0
686102,6861.02
686204,6862.04
686306,6863.06
686405,6864.05
686502,6865.02
686599,6865.99
686698,6866.98
686796,6867.96
686893,6868.93
686989,6869.89
687090,6870.9
687193,6871.93
687293,6872.93
687393,6873.93
687496,6874.96
687598,6875.98
687698,6876.98
687795,6877.95
687890,6878.9
687990,6879.9
688092,6880.92
688192,6881.92
688289,6882.89
688388,6883.88
688488,6884.88
688590,6885.9
688688,6886.88
688781,6887.81
688875,6888.75
688971,6889.71
689066,6890.66
689160,6891.6
689254,6892.54
689352,6893.52
689453,6894.53
689553,6895.53
689650,6896.5
689748,6897.48
689848,6898.48
689950,6899.5
690046,6900.46
690140,6901.4
690236,6902.36
690331,6903.31
690425,6904.25
690517,6905.17
690610,6906.1
690704,6907.04
690800,6908.0
690892,6908.92
690986,6909.86
691082,6910.82
691182,6911.82
691280,6912.8
691378,6913.78
691480,6914.8
691586,6915.86
691689,6916.89
691788,6917.88
691889,6918.89
691988,6919.88
692086,6920.86
692179,6921.79
692273,6922.73
692367,6923.67
692466,6924.66
692565,6925.65
692662,6926.62
692763,6927.63
692867,6928.67
692973,6929.73
693076,6930.76
693175,6931.75
693277,6932.77
693379,6933.79
693478,6934.78
693575,6935.75
693674,6936.74
693775,6937.75
693875,6938.75
693973,6939.73
694071,6940.71
694170,6941.7
694269,6942.69
694365,6943.65
694459,6944.59
694556,6945.56
694653,6946.53
694748,6947.48
694843,6948.43
694938,6949.38
695034,6950.34
695130,6951.3
695224,6952.24
695319,6953.19
695416,6954.16
695513,6955.13
695608,6956.08
695704,6957.04
695800,6958.0
695896,6958.96
695991,6959.91
696086,6960.86
696183,6961.83
696283,6962.83
696381,6963.81
696479,6964.79
696580,6965.8
696683,6966.83
696783,6967.83
696880,6968.8
696977,6969.77
697073,6970.73
697169,6971.69
697259,6972.59
697349,6973.49
697441,6974.41
697536,6975.36
697633,6976.33
697729,6977.29
697825,6978.25
697923,6979.23
698022,6980.22
698117,6981.17
698212,6982.12
698308,6983.08
698404,6984.04
698498,6984.98
698591,6985.91
698686,6986.86
698783,6987.83
698882,6988.82
698980,6989.8
699077,6990.77
699178,6991.78
699278,6992.78
699374,6993.74
699470,6994.7
699568,6995.68
699667,6996.67
699761,6997.61
699855,6998.55
699952,6999.52
700050,7000.5
700148,7001.48
700242,7002.42
700338,7003.38
700435,7004.35
700533,7005.33
700628,7006.28
700723,7007.23
700820,7008.2
700915,7009.15
701009,7010.09
701101,7011.01
701194,7011.94
701286,7012.86
701381,7013.81
701476,7014.76
701569,7015.69
701664,7016.64
701762,7017.62
701860,7018.6
701955,7019.55
702050,7020.5
702147,7021.47
702245,7022.45
702341,7023.41
702435,7024.35
702529,7025.29
702625,7026.25
702720,7027.2
702812,7028.12
702905,7029.05
703002,7030.02
703100,7031.0
703198,7031.98
703296,7032.96
703394,7033.94
703493,7034.93
703591,7035.91
703686,7036.86
703782,7037.82
703878,7038.78
703973,7039.73
704069,7040.69
704164,7041.64
704260,7042.6
704357,7043.57
704452,7044.52
704546,7045.46
704640,7046.4
704734,7047.34
704827,7048.27
704919,7049.19
705012,7050.12
705107,7051.07
705202,7052.02
705298,7052.98
705393,7053.93
705493,7054.93
705593,7055.93
705690,7056.9
705787,7057.87
705882,7058.82
705977,7059.77
706071,7060.71
706164,7061.64
706258,7062.58
706354,7063.54
706448,7064.48
706543,7065.43
706639,7066.39
706734,7067.34
706830,7068.3
706927,7069.27
707025,7070.25
707122,7071.22
707221,7072.21
707319,7073.19
707417,7074.17
707513,7075.13
707612,7076.12
707711,7077.11
707808,7078.08
707904,7079.04
708002,7080.02
708099,7080.99
708196,7081.96
708293,7082.93
708388,7083.88
708484,7084.84
708580,7085.8
708675,7086.75
708769,7087.69
708864,7088.64
708959,7089.59
709053,7090.53
709146,7091.46
709241,7092.41
709337,7093.37
709432,7094.32
709528,7095.28
709624,7096.24
709721,7097.21
709819,7098.19
709915,7099.15
710011,7100.11
710108,7101.08
710208,7102.08
710306,7103.06
710404,7104.04
710502,7105.02
710602,7106.02
710701,7107.01
710799,7107.99
710896,7108.96
710997,7109.97
711098,7110.98
711196,7111.96
711295,7112.95
711395,7113.95
711497,7114.97
711597,7115.97
711698,7116.98
711800,7118.0
711902,7119.02
712003,7120.03
712101,7121.01
712198,7121.98
712296,7122.96
712394,7123.94
712490,7124.9
712585,7125.85
712681,7126.81
712779,7127.79
712876,7128.76
712972,7129.72
713069,7130.69
713168,7131.68
713266,7132.66
713363,7133.63
713460,7134.6
713558,7135.58
713656,7136.56
713752,7137.52
713848,7138.48
713945,7139.45
714043,7140.43
714141,7141.41
714239,7142.39
714338,7143.38
714438,7144.38
714537,7145.37
714634,7146.34
714731,7147.31
714828,7148.28
714926,7149.26
715024,7150.24
715123,7151.23
715223,7152.23
715324,7153.24
715424,7154.24
715523,7155.23
715620,7156.2
715717,7157.17
715815,7158.15
715908,7159.08
716003,7160.03
716096,7160.96
716191,7161.91
716284,7162.84
716378,7163.78
716471,7164.71
716565,7165.65
716660,7166.6
716753,7167.53
716846,7168.46
716939,7169.39
717035,7170.35
717130,7171.3
717224,7172.24
717319,7173.19
717416,7174.16
717513,7175.13
717610,7176.1
717709,7177.09
717810,7178.1
717912,7179.12
718011,7180.11
718112,7181.12
718216,7182.16
718319,7183.19
718419,7184.19
718519,7185.19
718619,7186.19
718720,7187.2
718816,7188.16
718912,7189.12
719008,7190.08
719104,7191.04
719200,7192.0
719294,7192.94
719389,7193.89
719484,7194.84
719579,7195.79
719672,7196.72
719767,7197.67
719861,7198.61
719956,7199.56
720049,7200.49
720143,7201.43
720238,7202.38
720335,7203.35
720432,7204.32
720529,7205.29
720627,7206.27
720728,7207.28
720827,7208.27
720925,7209.25
721022,7210.22
721121,7211.21
721220,7212.2
721317,7213.17
721415,7214.15
721514,7215.14
721613,7216.13
721710,7217.1
721807,7218.07
721904,7219.04
722003,7220.03
722102,7221.02
722200,7222.0
722296,7222.96
722392,7223.92
722489,7224.89
722584,7225.84
722678,7226.78
722774,7227.74
722871,7228.71
722965,7229.65
723061,7230.61
723158,7231.58
723257,7232.57
723354,7233.54
723451,7234.51
723549,7235.49
723647,7236.47
723745,7237.45
723840,7238.4
723933,7239.33
724028,7240.28
724123,7241.23
724219,7242.19
724313,7243.13
724409,7244.09
724508,7245.08
724609,7246.09
724709,7247.09
724809,7248.09
724911,7249.11
725015,7250.15
725116,7251.16
725213,7252.13
725308,7253.08
725403,7254.03
725498,7254.98
725594,7255.94
725691,7256.91
725789,7257.89
725891,7258.91
725994,7259.94
726093,7260.93
726190,7261.9
726289,7262.89
726389,7263.89
726488,7264.88
726587,7265.87
726686,7266.86
726787,7267.87
726887,7268.87
726983,7269.83
727080,7270.8
727178,7271.78
727274,7272.74
727370,7273.7
727465,7274.65
727560,7275.6
727657,7276.57
727755,7277.55
727853,7278.53
727950,7279.5
728047,7280.47
728146,7281.46
728245,7282.45
728342,7283.42
728440,7284.4
728539,7285.39
728639,7286.39
728740,7287.4
728837,7288.37
728934,7289.34
729031,7290.31
729131,7291.31
729228,7292.28
729326,7293.26
729426,7294.26
729526,7295.26
729625,7296.25
729722,7297.22
729819,7298.19
729918,7299.18
730016,7300.16
730114,7301.14
730209,7302.09
730302,7303.02
730392,7303.92
730480,7304.8
730566,7305.66
730651,7306.51
730735,7307.35
730819,7308.19
730902,7309.02
730986,7309.86
731069,7310.69
731153,7311.53
731236,7312.36
731319,7313.19
731402,7314.02
731484,7314.84
731564,7315.64
731644,7316.44
731722,7317.22
731800,7318.0
731878,7318.78
731955,7319.55
732032,7320.32
732109,7321.09
732187,7321.87
732265,7322.65
732345,7323.45
732427,7324.27
732511,7325.11
732600,7326.0
732694,7326.94
732793,7327.93
732897,7328.97
733003,7330.03
733110,7331.1
733215,7332.15
733319,7333.19
733422,7334.22
733524,7335.24
733625,7336.25
733724,7337.24
733818,7338.18
733910,7339.1
734002,7340.02
734093,7340.93
734187,7341.87
734281,7342.81
734375,7343.75
734473,7344.73
734575,7345.75
734679,7346.79
734785,7347.85
734886,7348.86
734986,7349.86
735084,7350.84
735181,7351.81
735275,7352.75
735369,7353.69
735463,7354.63
735558,7355.58
735657,7356.57
735759,7357.59
735864,7358.64
735973,7359.73
736080,7360.8
736186,7361.86
736292,7362.92
736398,7363.98
736502,7365.02
736602,7366.02
736702,7367.02
736803,7368.03
736907,7369.07
737013,7370.13
737117,7371.17
737220,7372.2
737323,7373.23
737428,7374.28
737532,7375.32
737633,7376.33
737732,7377.32
737832,7378.32
737930,7379.3
738029,7380.29
738127,7381.27
738228,7382.28
738332,7383.32
738434,7384.34
738538,7385.38
738640,7386.4
738743,7387.43
738843,7388.43
738941,7389.41
739036,7390.36
739131,7391.31
739226,7392.26
739319,7393.19
739410,7394.1
739501,7395.01
739591,7395.91
739682,7396.82
739772,7397.72
739860,7398.6
739948,7399.48
740038,7400.38
740128,7401.28
740215,7402.15
740302,7403.02
740388,7403.88
740475,7404.75
740565,7405.65
740657,7406.57
740753,7407.53
740851,7408.51
740954,7409.54
741059,7410.59
741164,7411.64
741269,7412.69
741376,7413.76
741484,7414.84
741592,7415.92
741697,7416.97
741801,7418.01
741906,7419.06
742013,7420.13
742117,7421.17
742218,7422.18
742320,7423.2
742423,7424.23
742527,7425.27
742630,7426.3
742731,7427.31
742831,7428.31
742934,7429.34
743037,7430.37
743137,7431.37
743239,7432.39
743337,7433.37
743433,7434.33
743530,7435.3
743627,7436.27
743723,7437.23
743818,7438.18
743912,7439.12
744002,7440.02
744091,7440.91
744180,7441.8
744268,7442.68
744355,7443.55
744443,7444.43
744531,7445.31
744622,7446.22
744714,7447.14
744804,7448.04
744896,7448.96
744989,7449.89
745084,7450.84
745180,7451.8
745278,7452.78
745379,7453.79
745481,7454.81
745582,7455.82
745682,7456.82
745782,7457.82
745882,7458.82
745980,7459.8
746076,7460.76
746173,7461.73
746271,7462.71
746372,7463.72
746471,7464.71
746571,7465.71
746672,7466.72
746774,7467.74
746874,7468.74
746975,7469.75
747076,7470.76
747178,7471.78
747281,7472.81
747382,7473.82
747482,7474.82
747582,7475.82
747680,7476.8
747780,7477.8
747879,7478.79
747977,7479.77
748074,7480.74
748170,7481.7
748265,7482.65
748356,7483.56
748445,7484.45
748536,7485.36
748628,7486.28
748722,7487.22
748812,7488.12
748902,7489.02
748993,7489.93
749082,7490.82
749170,7491.7
749258,7492.58
749348,7493.48
749438,7494.38
749531,7495.31
749627,7496.27
749727,7497.27
749831,7498.31
749936,7499.36
750042,7500.42
750148,7501.48
750254,7502.54
750359,7503.59
750463,7504.63
750565,7505.65
750669,7506.69
750774,7507.74
750880,7508.8
750986,7509.86
751089,7510.89
751192,7511.92
751297,7512.97
751406,7514.06
751515,7515.15
751620,7516.2
751725,7517.25
751832,7518.32
751941,7519.41
752049,7520.49
752152,7521.52
752256,7522.56
752359,7523.59
752461,7524.61
752564,7525.64
752663,7526.63
752759,7527.59
752853,7528.53
752942,7529.42
753031,7530.31
753119,7531.19
753205,7532.05
753291,7532.91
753378,7533.78
753467,7534.67
753556,7535.56
753643,7536.43
753728,7537.28
753813,7538.13
753897,7538.97
753981,7539.81
754067,7540.67
754154,7541.54
754242,7542.42
754333,7543.33
754426,7544.26
754521,7545.21
754619,7546.19
754720,7547.2
754822,7548.22
754926,7549.26
755031,7550.31
755139,7551.39
755248,7552.48
755355,7553.55
755461,7554.61
755566,7555.66
755670,7556.7
755772,7557.72
755871,7558.71
755970,7559.7
756071,7560.71
756172,7561.72
756273,7562.73
756373,7563.73
756472,7564.72
756573,7565.73
756674,7566.74
756775,7567.75
756878,7568.78
756982,7569.82
757087,7570.87
757193,7571.93
757296,7572.96
757400,7574.0
757504,7575.04
757603,7576.03
757699,7576.99
757789,7577.89
757876,7578.76
757963,7579.63
758048,7580.48
758131,7581.31
758215,7582.15
758298,7582.98
758379,7583.79
758462,7584.62
758544,7585.44
758627,7586.27
758708,7587.08
758792,7587.92
758878,7588.78
758967,7589.67
759059,7590.59
759157,7591.57
759261,7592.61
759370,7593.7
759482,7594.82
759594,7595.94
759708,7597.08
759822,7598.22
759934,7599.34
760043,7600.43
760151,7601.51
760256,7602.56
760360,7603.6
760462,7604.62
760561,7605.61
760659,7606.59
760757,7607.57
760855,7608.55
760951,7609.51
761047,7610.47
761144,7611.44
761241,7612.41
761339,7613.39
761439,7614.39
761540,7615.4
761646,7616.46
761754,7617.54
761859,7618.59
761962,7619.62
762064,7620.64
762166,7621.66
762268,7622.68
762370,7623.7
762470,7624.7
762571,7625.71
762671,7626.71
762770,7627.7
762866,7628.66
762956,7629.56
763045,7630.45
763132,7631.32
763217,7632.17
763303,7633.03
763388,7633.88
763475,7634.75
763561,7635.61
763646,7636.46
763731,7637.31
763816,7638.16
763901,7639.01
763986,7639.86
764072,7640.72
764159,7641.59
764250,7642.5
764344,7643.44
764444,7644.44
764551,7645.51
764662,7646.62
764771,7647.71
764880,7648.8
764989,7649.89
765099,7650.99
765208,7652.08
765316,7653.16
765425,7654.25
765531,7655.31
765637,7656.37
765741,7657.41
765844,7658.44
765945,7659.45
766043,7660.43
766141,7661.41
766239,7662.39
766339,7663.39
766438,7664.38
766537,7665.37
766635,7666.35
766737,7667.37
766845,7668.45
766953,7669.53
767064,7670.64
767176,7671.76
767288,7672.88
767397,7673.97
767503,7675.03
767608,7676.08
767717,7677.17
767824,7678.24
767927,7679.27
768030,7680.3
768127,7681.27
768220,7682.2
768309,7683.09
768394,7683.94
768478,7684.78
768561,7685.61
768642,7686.42
768724,7687.24
768804,7688.04
768884,7688.84
768963,7689.63
769041,7690.41
769118,7691.18
769196,7691.96
769273,7692.73
769351,7693.51
769428,7694.28
769505,7695.05
769581,7695.81
769656,7696.56
769731,7697.31
769805,7698.05
769879,7698.79
769952,7699.52
770024,7700.24
770097,7700.97
770169,7701.69
770243,7702.43
770317,7703.17
770391,7703.91
770466,7704.66
770542,7705.42
770618,7706.18
770694,7706.94
770773,7707.73
770855,7708.55
770943,7709.43
771042,7710.42
771159,7711.59
771274,7712.74
771390,7713.9
771507,7715.07
771620,7716.2
771732,7717.32
771842,7718.42
771947,7719.47
772049,7720.49
772150,7721.5
772252,7722.52
772353,7723.53
772452,7724.52
772549,7725.49
772644,7726.44
772740,7727.4
772838,7728.38
772933,7729.33
773026,7730.26
773115,7731.15
773204,7732.04
773290,7732.9
773374,7733.74
773459,7734.59
773547,7735.47
773637,7736.37
773728,7737.28
773819,7738.19
773911,7739.11
774002,7740.02
774094,7740.94
774184,7741.84
774272,7742.72
774359,7743.59
774445,7744.45
774531,7745.31
774616,7746.16
774701,7747.01
774787,7747.87
774874,7748.74
774962,7749.62
775051,7750.51
775141,7751.41
775230,7752.3
775318,7753.18
775405,7754.05
775492,7754.92
775578,7755.78
775665,7756.65
775753,7757.53
775842,7758.42
775933,7759.33
776025,7760.25
776120,7761.2
776219,7762.19
776321,7763.21
776424,7764.24
776529,7765.29
776630,7766.3
776728,7767.28
776826,7768.26
776924,7769.24
777021,7770.21
777115,7771.15
777208,7772.08
777301,7773.01
777397,7773.97
777494,7774.94
777588,7775.88
777681,7776.81
777775,7777.75
777869,7778.69
777963,7779.63
778055,7780.55
778146,7781.46
778239,7782.39
778334,7783.34
778429,7784.29
778526,7785.26
778629,7786.29
778732,7787.32
778837,7788.37
778940,7789.4
779039,7790.39
779138,7791.38
779237,7792.37
779335,7793.35
779433,7794.33
779532,7795.32
