sample,time_sec
81,0.81
157,1.57
231,2.31
305,3.05
380,3.8
457,4.57
534,5.34
612,6.12
693,6.93
775,7.75
858,8.58
940,9.4
1022,10.22
1103,11.03
1179,11.79
1254,12.54
1327,13.27
1397,13.97
1467,14.67
1535,15.35
1603,16.03
1672,16.72
1742,17.42
1812,18.12
1883,18.83
1955,19.55
2028,20.28
2103,21.03
2177,21.77
2251,22.51
2323,23.23
2394,23.94
2464,24.64
2532,25.32
2599,25.99
2665,26.65
2732,27.32
2800,28.0
2868,28.68
2937,29.37
3009,30.09
3082,30.82
3156,31.56
3233,32.33
3309,33.09
3386,33.86
3463,34.63
3538,35.38
3613,36.13
3689,36.89
3764,37.64
3837,38.37
3912,39.12
3987,39.87
4060,40.6
4134,41.34
4207,42.07
4280,42.8
4352,43.52
4425,44.25
4497,44.97
4569,45.69
4641,46.41
4714,47.14
4786,47.86
4859,48.59
4931,49.31
5003,50.03
5073,50.73
5142,51.42
5212,52.12
5282,52.82
5352,53.52
5422,54.22
5492,54.92
5562,55.62
5633,56.33
5704,57.04
5775,57.75
5846,58.46
5918,59.18
5990,59.9
6061,60.61
6133,61.33
6205,62.05
6277,62.77
6349,63.49
6420,64.2
6491,64.91
6561,65.61
6630,66.3
6700,67.0
6769,67.69
6838,68.38
6907,69.07
6976,69.76
7046,70.46
7116,71.16
7186,71.86
7256,72.56
7326,73.26
7395,73.95
7465,74.65
7534,75.34
7604,76.04
7674,76.74
7745,77.45
7815,78.15
7885,78.85
7954,79.54
8024,80.24
8093,80.93
8162,81.62
8231,82.31
8302,83.02
8373,83.73
8444,84.44
8515,85.15
8587,85.87
8658,86.58
8727,87.27
8796,87.96
8864,88.64
8933,89.33
9003,90.03
9072,90.72
9143,91.43
9214,92.14
9287,92.87
9359,93.59
9431,94.31
9504,95.04
9577,95.77
9651,96.51
9725,97.25
9799,97.99
9873,98.73
9946,99.46
10020,100.2
10094,100.94
10169,101.69
10243,102.43
10317,103.17
10392,103.92
10465,104.65
10538,105.38
10611,106.11
10684,106.84
10755,107.55
10827,108.27
10898,108.98
10970,109.7
11043,110.43
11115,111.15
11186,111.86
11256,112.56
11327,113.27
11399,113.99
11471,114.71
11544,115.44
11620,116.2
11698,116.98
11780,117.8
11864,118.64
11948,119.48
12033,120.33
12120,121.2
12205,122.05
12292,122.92
12378,123.78
12462,124.62
12546,125.46
12631,126.31
12715,127.15
12797,127.97
12881,128.81
12963,129.63
13042,130.42
13123,131.23
13203,132.03
13282,132.82
13363,133.63
13445,134.45
13525,135.25
13601,136.01
13676,136.76
13751,137.51
13827,138.27
13903,139.03
13978,139.78
14053,140.53
14129,141.29
14208,142.08
14287,142.87
14368,143.68
14449,144.49
14528,145.28
14605,146.05
14682,146.82
14761,147.61
14839,148.39
14918,149.18
14996,149.96
15072,150.72
15149,151.49
15233,152.33
15320,153.2
15407,154.07
15491,154.91
15572,155.72
15650,156.5
15728,157.28
15805,158.05
15884,158.84
15962,159.62
16040,160.4
16119,161.19
16196,161.96
16274,162.74
16348,163.48
16421,164.21
16493,164.93
16567,165.67
16641,166.41
16715,167.15
16789,167.89
16866,168.66
16946,169.46
17025,170.25
17103,171.03
17184,171.84
17265,172.65
17345,173.45
17423,174.23
17503,175.03
17583,175.83
17663,176.63
17741,177.41
17816,178.16
17890,178.9
17961,179.61
18032,180.32
18106,181.06
18183,181.83
18263,182.63
18348,183.48
18433,184.33
18518,185.18
18604,186.04
18686,186.86
18766,187.66
18845,188.45
18924,189.24
19002,190.02
19078,190.78
19152,191.52
19225,192.25
19296,192.96
19368,193.68
19440,194.4
19514,195.14
19589,195.89
19664,196.64
19740,197.4
19816,198.16
19893,198.93
19971,199.71
20048,200.48
20125,201.25
20202,202.02
20278,202.78
20355,203.55
20431,204.31
20504,205.04
20576,205.76
20647,206.47
20718,207.18
20791,207.91
20866,208.66
20944,209.44
21023,210.23
21102,211.02
21181,211.81
21261,212.61
21345,213.45
21428,214.28
21510,215.1
21591,215.91
21672,216.72
21752,217.52
21833,218.33
21913,219.13
21993,219.93
22072,220.72
22153,221.53
22233,222.33
22313,223.13
22393,223.93
22474,224.74
22556,225.56
22638,226.38
22718,227.18
22799,227.99
22880,228.8
22962,229.62
23041,230.41
23119,231.19
23197,231.97
23277,232.77
23357,233.57
23436,234.36
23516,235.16
23595,235.95
23677,236.77
23759,237.59
23840,238.4
23921,239.21
24000,240.0
24081,240.81
24162,241.62
24241,242.41
24318,243.18
24395,243.95
24472,244.72
24550,245.5
24629,246.29
24707,247.07
24784,247.84
24861,248.61
24940,249.4
25019,250.19
25097,250.97
25175,251.75
25253,252.53
25332,253.32
25412,254.12
25491,254.91
25571,255.71
25651,256.51
25733,257.33
25813,258.13
25892,258.92
25971,259.71
26051,260.51
26130,261.3
26208,262.08
26286,262.86
26364,263.64
26443,264.43
26522,265.22
26601,266.01
26681,266.81
26760,267.6
26838,268.38
26917,269.17
26996,269.96
27074,270.74
27152,271.52
27233,272.33
27314,273.14
27391,273.91
27469,274.69
27548,275.48
27627,276.27
27704,277.04
27782,277.82
27860,278.6
27939,279.39
28016,280.16
28093,280.93
28171,281.71
28249,282.49
28327,283.27
28405,284.05
28482,284.82
28561,285.61
28638,286.38
28715,287.15
28793,287.93
28871,288.71
28948,289.48
29024,290.24
29102,291.02
29180,291.8
29258,292.58
29337,293.37
29415,294.15
29493,294.93
29571,295.71
29649,296.49
29726,297.26
29804,298.04
29882,298.82
29960,299.6
30037,300.37
30114,301.14
30194,301.94
30274,302.74
30353,303.53
30432,304.32
30513,305.13
30595,305.95
30676,306.76
30757,307.57
30837,308.37
30917,309.17
30999,309.99
31080,310.8
31159,311.59
31239,312.39
31317,313.17
31396,313.96
31474,314.74
31552,315.52
31629,316.29
31707,317.07
31786,317.86
31866,318.66
31945,319.45
32024,320.24
32106,321.06
32186,321.86
32264,322.64
32342,323.42
32420,324.2
32498,324.98
32579,325.79
32660,326.6
32740,327.4
32819,328.19
32900,329.0
32982,329.82
33061,330.61
33140,331.4
33219,332.19
33299,332.99
33377,333.77
33455,334.55
33533,335.33
33613,336.13
33692,336.92
33770,337.7
33847,338.47
33924,339.24
34001,340.01
34077,340.77
34152,341.52
34227,342.27
34302,343.02
34377,343.77
34453,344.53
34529,345.29
34604,346.04
34680,346.8
34755,347.55
34831,348.31
34906,349.06
34980,349.8
35054,350.54
35129,351.29
35204,352.04
35278,352.78
35351,353.51
35425,354.25
35499,354.99
35573,355.73
35647,356.47
35721,357.21
35796,357.96
35872,358.72
35946,359.46
36021,360.21
36095,360.95
36171,361.71
36246,362.46
36321,363.21
36395,363.95
36470,364.7
36545,365.45
36621,366.21
36697,366.97
36771,367.71
36846,368.46
36921,369.21
36996,369.96
37071,370.71
37145,371.45
37220,372.2
37296,372.96
37371,373.71
37446,374.46
37521,375.21
37597,375.97
37673,376.73
37748,377.48
37822,378.22
37896,378.96
37970,379.7
38045,380.45
38119,381.19
38194,381.94
38268,382.68
38344,383.44
38420,384.2
38496,384.96
38574,385.74
38652,386.52
38730,387.3
38809,388.09
38888,388.88
38968,389.68
39046,390.46
39124,391.24
39201,392.01
39278,392.78
39354,393.54
39428,394.28
39501,395.01
39574,395.74
39647,396.47
39723,397.23
39798,397.98
39875,398.75
39950,399.5
40028,400.28
40107,401.07
40187,401.87
40268,402.68
40348,403.48
40427,404.27
40506,405.06
40587,405.87
40667,406.67
40746,407.46
40824,408.24
40900,409.0
40976,409.76
41051,410.51
41126,411.26
41201,412.01
41276,412.76
41352,413.52
41427,414.27
41504,415.04
41581,415.81
41660,416.6
41736,417.36
41814,418.14
41890,418.9
41967,419.67
42043,420.43
42119,421.19
42194,421.94
42272,422.72
42349,423.49
42427,424.27
42505,425.05
42585,425.85
42667,426.67
42750,427.5
42831,428.31
42913,429.13
42994,429.94
43074,430.74
43152,431.52
43227,432.27
43300,433.0
43374,433.74
43446,434.46
43519,435.19
43594,435.94
43672,436.72
43752,437.52
43833,438.33
43914,439.14
43993,439.93
44074,440.74
44155,441.55
44235,442.35
44313,443.13
44391,443.91
44469,444.69
44547,445.47
44624,446.24
44701,447.01
44779,447.79
44858,448.58
44938,449.38
45017,450.17
45096,450.96
45175,451.75
45254,452.54
45330,453.3
45407,454.07
45484,454.84
45562,455.62
45640,456.4
45718,457.18
45796,457.96
45874,458.74
45952,459.52
46029,460.29
46106,461.06
46183,461.83
46260,462.6
46338,463.38
46415,464.15
46492,464.92
46571,465.71
46650,466.5
46728,467.28
46806,468.06
46883,468.83
46961,469.61
47039,470.39
47118,471.18
47195,471.95
47273,472.73
47351,473.51
47430,474.3
47508,475.08
47585,475.85
47662,476.62
47740,477.4
47817,478.17
47894,478.94
47970,479.7
48046,480.46
48123,481.23
48201,482.01
48278,482.78
48356,483.56
48433,484.33
48511,485.11
48590,485.9
48668,486.68
48746,487.46
48822,488.22
48900,489.0
48977,489.77
49056,490.56
49134,491.34
49212,492.12
49290,492.9
49368,493.68
49446,494.46
49525,495.25
49602,496.02
49680,496.8
49757,497.57
49834,498.34
49913,499.13
49991,499.91
50070,500.7
50148,501.48
50227,502.27
50306,503.06
50385,503.85
50465,504.65
50543,505.43
50620,506.2
50698,506.98
50776,507.76
50854,508.54
50931,509.31
51009,510.09
51088,510.88
51169,511.69
51252,512.52
51334,513.34
51414,514.14
51495,514.95
51575,515.75
51655,516.55
51733,517.33
51811,518.11
51889,518.89
51966,519.66
52044,520.44
52121,521.21
52198,521.98
52275,522.75
52352,523.52
52429,524.29
52507,525.07
52585,525.85
52662,526.62
52739,527.39
52817,528.17
52893,528.93
52970,529.7
53046,530.46
53122,531.22
53198,531.98
53273,532.73
53349,533.49
53426,534.26
53503,535.03
53583,535.83
53663,536.63
53743,537.43
53822,538.22
53900,539.0
53977,539.77
54054,540.54
54131,541.31
54209,542.09
54286,542.86
54363,543.63
54439,544.39
54516,545.16
54593,545.93
54671,546.71
54748,547.48
54825,548.25
54902,549.02
54979,549.79
55056,550.56
55132,551.32
55209,552.09
55285,552.85
55363,553.63
55442,554.42
55521,555.21
55600,556.0
55677,556.77
55753,557.53
55829,558.29
55905,559.05
55979,559.79
56050,560.5
56122,561.22
56194,561.94
56268,562.68
56343,563.43
56419,564.19
56496,564.96
56575,565.75
56654,566.54
56735,567.35
56814,568.14
56894,568.94
56971,569.71
57049,570.49
57127,571.27
57205,572.05
57282,572.82
57359,573.59
57436,574.36
57514,575.14
57592,575.92
57667,576.67
57738,577.38
57814,578.14
57885,578.85
57960,579.6
58036,580.36
58107,581.07
58178,581.78
58248,582.48
58316,583.16
58382,583.82
58447,584.47
58513,585.13
58578,585.78
58644,586.44
58711,587.11
58779,587.79
58849,588.49
58921,589.21
58995,589.95
59069,590.69
59143,591.43
59216,592.16
59289,592.89
59362,593.62
59433,594.33
59502,595.02
59572,595.72
59642,596.42
59715,597.15
59789,597.89
59865,598.65
59941,599.41
60017,600.17
60095,600.95
60172,601.72
60249,602.49
60325,603.25
60401,604.01
60477,604.77
60554,605.54
60633,606.33
60711,607.11
60786,607.86
60859,608.59
60933,609.33
61007,610.07
61081,610.81
61156,611.56
61231,612.31
61306,613.06
61382,613.82
61458,614.58
61534,615.34
61611,616.11
61688,616.88
61765,617.65
61841,618.41
61917,619.17
61993,619.93
62070,620.7
62147,621.47
62224,622.24
62300,623.0
62378,623.78
62455,624.55
62531,625.31
62608,626.08
62686,626.86
62763,627.63
62840,628.4
62916,629.16
62991,629.91
63068,630.68
63145,631.45
63222,632.22
63299,632.99
63375,633.75
63451,634.51
63528,635.28
63604,636.04
63680,636.8
63756,637.56
63834,638.34
63912,639.12
63990,639.9
64067,640.67
64143,641.43
64220,642.2
64297,642.97
64375,643.75
64452,644.52
64529,645.29
64606,646.06
64684,646.84
64762,647.62
64839,648.39
64916,649.16
64993,649.93
65070,650.7
65146,651.46
65221,652.21
65297,652.97
65374,653.74
65451,654.51
65529,655.29
65606,656.06
65685,656.85
65763,657.63
65841,658.41
65919,659.19
65995,659.95
66072,660.72
66148,661.48
66225,662.25
66301,663.01
66376,663.76
66453,664.53
66529,665.29
66604,666.04
66681,666.81
66758,667.58
66836,668.36
66913,669.13
66992,669.92
67070,670.7
67146,671.46
67224,672.24
67301,673.01
67378,673.78
67455,674.55
67530,675.3
67606,676.06
67682,676.82
67759,677.59
67836,678.36
67914,679.14
67991,679.91
68068,680.68
68144,681.44
68220,682.2
68297,682.97
68372,683.72
68446,684.46
68518,685.18
68591,685.91
68664,686.64
68740,687.4
68817,688.17
68895,688.95
68973,689.73
69051,690.51
69130,691.3
69210,692.1
69288,692.88
69365,693.65
69442,694.42
69521,695.21
69598,695.98
69675,696.75
69750,697.5
69825,698.25
69901,699.01
69977,699.77
70052,700.52
70126,701.26
70200,702.0
70272,702.72
70343,703.43
70413,704.13
70484,704.84
70556,705.56
70628,706.28
70702,707.02
70776,707.76
70851,708.51
70927,709.27
71004,710.04
71082,710.82
71160,711.6
71238,712.38
71316,713.16
71395,713.95
71475,714.75
71554,715.54
71632,716.32
71709,717.09
71787,717.87
71863,718.63
71940,719.4
72016,720.16
72092,720.92
72167,721.67
72243,722.43
72320,723.2
72396,723.96
72472,724.72
72549,725.49
72626,726.26
72702,727.02
72777,727.77
72852,728.52
72927,729.27
73002,730.02
73079,730.79
73156,731.56
73232,732.32
73308,733.08
73386,733.86
73465,734.65
73543,735.43
73622,736.22
73702,737.02
73782,737.82
73864,738.64
73946,739.46
74026,740.26
74106,741.06
74188,741.88
74268,742.68
74349,743.49
74427,744.27
74504,745.04
74583,745.83
74660,746.6
74737,747.37
74812,748.12
74889,748.89
74966,749.66
75043,750.43
75121,751.21
75198,751.98
75275,752.75
75353,753.53
75431,754.31
75511,755.11
75588,755.88
75666,756.66
75744,757.44
75822,758.22
75899,758.99
75978,759.78
76056,760.56
76134,761.34
76212,762.12
76289,762.89
76367,763.67
76446,764.46
76526,765.26
76604,766.04
76683,766.83
76763,767.63
76842,768.42
76920,769.2
76998,769.98
77076,770.76
77155,771.55
77235,772.35
77314,773.14
77392,773.92
77469,774.69
77546,775.46
77624,776.24
77702,777.02
77779,777.79
77858,778.58
77937,779.37
78015,780.15
78094,780.94
78175,781.75
78255,782.55
78334,783.34
78413,784.13
78494,784.94
78574,785.74
78652,786.52
78730,787.3
78807,788.07
78885,788.85
78963,789.63
79039,790.39
79116,791.16
79194,791.94
79272,792.72
79351,793.51
79428,794.28
79506,795.06
79585,795.85
79663,796.63
79742,797.42
79823,798.23
79902,799.02
79983,799.83
80062,800.62
80141,801.41
80221,802.21
80300,803.0
80377,803.77
80455,804.55
80533,805.33
80613,806.13
80694,806.94
80777,807.77
80861,808.61
80943,809.43
81025,810.25
81108,811.08
81191,811.91
81272,812.72
81352,813.52
81432,814.32
81514,815.14
81597,815.97
81678,816.78
81757,817.57
81837,818.37
81917,819.17
81997,819.97
82076,820.76
82155,821.55
82234,822.34
82313,823.13
82392,823.92
82471,824.71
82549,825.49
82626,826.26
82704,827.04
82782,827.82
82859,828.59
82936,829.36
83013,830.13
83090,830.9
83168,831.68
83246,832.46
83323,833.23
83401,834.01
83479,834.79
83558,835.58
83638,836.38
83717,837.17
83795,837.95
83874,838.74
83954,839.54
84033,840.33
84113,841.13
84192,841.92
84270,842.7
84349,843.49
84426,844.26
84504,845.04
84582,845.82
84661,846.61
84739,847.39
84818,848.18
84898,848.98
84977,849.77
85056,850.56
85135,851.35
85213,852.13
85292,852.92
85371,853.71
85452,854.52
85533,855.33
85616,856.16
85698,856.98
85782,857.82
85867,858.67
85949,859.49
86031,860.31
86112,861.12
86193,861.93
86273,862.73
86353,863.53
86432,864.32
86510,865.1
86589,865.89
86670,866.7
86751,867.51
86831,868.31
86912,869.12
86993,869.93
87075,870.75
87154,871.54
87233,872.33
87311,873.11
87390,873.9
87469,874.69
87546,875.46
87624,876.24
87703,877.03
87782,877.82
87862,878.62
87945,879.45
88027,880.27
88111,881.11
88193,881.93
88274,882.74
88354,883.54
88434,884.34
88514,885.14
88595,885.95
88676,886.76
88756,887.56
88837,888.37
88918,889.18
88999,889.99
89078,890.78
89157,891.57
89237,892.37
89317,893.17
89398,893.98
89478,894.78
89558,895.58
89637,896.37
89716,897.16
89796,897.96
89875,898.75
89954,899.54
90032,900.32
90110,901.1
90188,901.88
90268,902.68
90345,903.45
90423,904.23
90501,905.01
90580,905.8
90658,906.58
90737,907.37
90815,908.15
90894,908.94
90972,909.72
91052,910.52
91131,911.31
91209,912.09
91287,912.87
91364,913.64
91443,914.43
91523,915.23
91604,916.04
91685,916.85
91767,917.67
91846,918.46
91926,919.26
92005,920.05
92084,920.84
92163,921.63
92243,922.43
92321,923.21
92399,923.99
92476,924.76
92554,925.54
92631,926.31
92708,927.08
92784,927.84
92861,928.61
92937,929.37
93013,930.13
93088,930.88
93162,931.62
93236,932.36
93311,933.11
93384,933.84
93459,934.59
93533,935.33
93607,936.07
93682,936.82
93757,937.57
93833,938.33
93909,939.09
93986,939.86
94062,940.62
94139,941.39
94215,942.15
94290,942.9
94366,943.66
94442,944.42
94519,945.19
94598,945.98
94676,946.76
94754,947.54
94833,948.33
94912,949.12
94992,949.92
95072,950.72
95152,951.52
95232,952.32
95311,953.11
95389,953.89
95466,954.66
95540,955.4
95613,956.13
95685,956.85
95758,957.58
95831,958.31
95907,959.07
95985,959.85
96064,960.64
96145,961.45
96227,962.27
96306,963.06
96384,963.84
96463,964.63
96539,965.39
96616,966.16
96691,966.91
96767,967.67
96843,968.43
96919,969.19
96997,969.97
97075,970.75
97153,971.53
97233,972.33
97314,973.14
97397,973.97
97482,974.82
97563,975.63
97644,976.44
97725,977.25
97805,978.05
97885,978.85
97964,979.64
98041,980.41
98118,981.18
98196,981.96
98273,982.73
98350,983.5
98427,984.27
98507,985.07
98586,985.86
98663,986.63
98741,987.41
98820,988.2
98901,989.01
98981,989.81
99060,990.6
99140,991.4
99220,992.2
99299,992.99
99377,993.77
99454,994.54
99532,995.32
99610,996.1
99689,996.89
99768,997.68
99845,998.45
99923,999.23
100000,1000.0
100078,1000.78
100156,1001.56
100234,1002.34
100312,1003.12
100389,1003.89
100467,1004.67
100544,1005.44
100620,1006.2
100696,1006.96
100772,1007.72
100848,1008.48
100923,1009.23
100998,1009.98
101074,1010.74
101152,1011.52
101230,1012.3
101308,1013.08
101386,1013.86
101466,1014.66
101545,1015.45
101625,1016.25
101703,1017.03
101780,1017.8
101856,1018.56
101932,1019.32
102008,1020.08
102085,1020.85
102160,1021.6
102235,1022.35
102310,1023.1
102386,1023.86
102461,1024.61
102535,1025.35
102609,1026.09
102684,1026.84
102759,1027.59
102836,1028.36
102913,1029.13
102992,1029.92
103068,1030.68
103143,1031.43
103217,1032.17
103289,1032.89
103361,1033.61
103433,1034.33
103503,1035.03
103574,1035.74
103644,1036.44
103714,1037.14
103783,1037.83
103852,1038.52
103921,1039.21
103989,1039.89
104058,1040.58
104126,1041.26
104195,1041.95
104263,1042.63
104331,1043.31
104399,1043.99
104467,1044.67
104536,1045.36
104605,1046.05
104675,1046.75
104747,1047.47
104820,1048.2
104895,1048.95
104971,1049.71
105049,1050.49
105125,1051.25
105197,1051.97
105269,1052.69
105341,1053.41
105414,1054.14
105486,1054.86
105562,1055.62
105642,1056.42
105724,1057.24
105804,1058.04
105884,1058.84
105963,1059.63
106040,1060.4
106117,1061.17
106192,1061.92
106267,1062.67
106340,1063.4
106413,1064.13
106485,1064.85
106556,1065.56
106626,1066.26
106694,1066.94
106761,1067.61
106828,1068.28
106898,1068.98
106968,1069.68
107042,1070.42
107119,1071.19
107196,1071.96
107274,1072.74
107351,1073.51
107426,1074.26
107500,1075.0
107573,1075.73
107645,1076.45
107715,1077.15
107785,1077.85
107853,1078.53
107921,1079.21
107986,1079.86
108051,1080.51
108114,1081.14
108177,1081.77
108239,1082.39
108301,1083.01
108364,1083.64
108426,1084.26
108489,1084.89
108552,1085.52
108617,1086.17
108681,1086.81
108745,1087.45
108811,1088.11
108876,1088.76
108944,1089.44
109012,1090.12
109081,1090.81
109152,1091.52
109222,1092.22
109292,1092.92
109364,1093.64
109435,1094.35
109505,1095.05
109575,1095.75
109645,1096.45
109714,1097.14
109784,1097.84
109854,1098.54
109923,1099.23
109993,1099.93
110064,1100.64
110135,1101.35
110206,1102.06
110279,1102.79
110350,1103.5
110422,1104.22
110492,1104.92
110563,1105.63
110631,1106.31
110699,1106.99
110767,1107.67
110836,1108.36
110902,1109.02
110969,1109.69
111037,1110.37
111104,1111.04
111171,1111.71
111239,1112.39
111308,1113.08
111375,1113.75
111444,1114.44
111512,1115.12
111583,1115.83
111654,1116.54
111723,1117.23
111792,1117.92
111862,1118.62
111934,1119.34
112006,1120.06
112077,1120.77
112149,1121.49
112221,1122.21
112295,1122.95
112372,1123.72
112446,1124.46
112518,1125.18
112591,1125.91
112666,1126.66
112742,1127.42
112817,1128.17
112890,1128.9
112964,1129.64
113038,1130.38
113112,1131.12
113184,1131.84
113256,1132.56
113328,1133.28
113402,1134.02
113478,1134.78
113553,1135.53
113627,1136.27
113699,1136.99
113773,1137.73
113848,1138.48
113921,1139.21
113992,1139.92
114063,1140.63
114135,1141.35
114207,1142.07
114280,1142.8
114352,1143.52
114424,1144.24
114497,1144.97
114570,1145.7
114644,1146.44
114717,1147.17
114791,1147.91
114866,1148.66
114941,1149.41
115013,1150.13
115086,1150.86
115159,1151.59
115233,1152.33
115304,1153.04
115374,1153.74
115445,1154.45
115515,1155.15
115584,1155.84
115654,1156.54
115725,1157.25
115795,1157.95
115866,1158.66
115939,1159.39
116013,1160.13
116089,1160.89
116163,1161.63
116238,1162.38
116313,1163.13
116388,1163.88
116465,1164.65
116541,1165.41
116617,1166.17
116691,1166.91
116766,1167.66
116842,1168.42
116919,1169.19
116998,1169.98
117076,1170.76
117153,1171.53
117231,1172.31
117310,1173.1
117391,1173.91
117473,1174.73
117551,1175.51
117627,1176.27
117703,1177.03
117783,1177.83
117861,1178.61
117940,1179.4
118018,1180.18
118099,1180.99
118180,1181.8
118258,1182.58
118336,1183.36
118415,1184.15
118495,1184.95
118573,1185.73
118650,1186.5
118729,1187.29
118809,1188.09
118889,1188.89
118965,1189.65
119038,1190.38
119112,1191.12
119186,1191.86
119260,1192.6
119333,1193.33
119406,1194.06
119479,1194.79
119555,1195.55
119630,1196.3
119703,1197.03
119777,1197.77
119850,1198.5
119923,1199.23
119993,1199.93
120065,1200.65
120136,1201.36
120206,1202.06
120276,1202.76
120347,1203.47
120419,1204.19
120494,1204.94
120567,1205.67
120640,1206.4
120713,1207.13
120786,1207.86
120857,1208.57
120928,1209.28
121001,1210.01
121073,1210.73
121146,1211.46
121217,1212.17
121287,1212.87
121359,1213.59
121429,1214.29
121499,1214.99
121568,1215.68
121637,1216.37
121708,1217.08
121780,1217.8
121853,1218.53
121928,1219.28
122001,1220.01
122073,1220.73
122145,1221.45
122218,1222.18
122291,1222.91
122365,1223.65
122438,1224.38
122511,1225.11
122583,1225.83
122657,1226.57
122731,1227.31
122805,1228.05
122879,1228.79
122951,1229.51
123026,1230.26
123101,1231.01
123176,1231.76
123248,1232.48
123319,1233.19
123391,1233.91
123462,1234.62
123534,1235.34
123604,1236.04
123675,1236.75
123746,1237.46
123817,1238.17
123889,1238.89
123959,1239.59
124030,1240.3
124103,1241.03
124175,1241.75
124248,1242.48
124320,1243.2
124392,1243.92
124465,1244.65
124540,1245.4
124614,1246.14
124688,1246.88
124760,1247.6
124833,1248.33
124907,1249.07
124980,1249.8
125052,1250.52
125123,1251.23
125195,1251.95
125269,1252.69
125341,1253.41
125413,1254.13
125485,1254.85
125558,1255.58
125633,1256.33
125706,1257.06
125780,1257.8
125855,1258.55
125930,1259.3
126006,1260.06
126079,1260.79
126153,1261.53
126226,1262.26
126300,1263.0
126372,1263.72
126442,1264.42
126513,1265.13
126585,1265.85
126658,1266.58
126732,1267.32
126804,1268.04
126878,1268.78
126953,1269.53
127030,1270.3
127105,1271.05
127179,1271.79
127253,1272.53
127329,1273.29
127404,1274.04
127476,1274.76
127548,1275.48
127620,1276.2
127692,1276.92
127764,1277.64
127836,1278.36
127907,1279.07
127979,1279.79
128052,1280.52
128126,1281.26
128202,1282.02
128278,1282.78
128353,1283.53
128430,1284.3
128506,1285.06
128582,1285.82
128657,1286.57
128732,1287.32
128807,1288.07
128882,1288.82
128959,1289.59
129035,1290.35
129109,1291.09
129182,1291.82
129257,1292.57
129333,1293.33
129410,1294.1
129485,1294.85
129559,1295.59
129634,1296.34
129711,1297.11
129787,1297.87
129861,1298.61
129934,1299.34
130008,1300.08
130080,1300.8
130151,1301.51
130220,1302.2
130288,1302.88
130355,1303.55
130421,1304.21
130487,1304.87
130555,1305.55
130625,1306.25
130701,1307.01
130775,1307.75
130850,1308.5
130925,1309.25
131002,1310.02
131081,1310.81
131158,1311.58
131233,1312.33
131308,1313.08
131383,1313.83
131457,1314.57
131532,1315.32
131605,1316.05
131679,1316.79
131754,1317.54
131829,1318.29
131904,1319.04
131977,1319.77
132049,1320.49
132121,1321.21
132190,1321.9
132259,1322.59
132327,1323.27
132394,1323.94
132460,1324.6
132528,1325.28
132596,1325.96
132665,1326.65
132733,1327.33
132802,1328.02
132872,1328.72
132941,1329.41
133009,1330.09
133076,1330.76
133143,1331.43
133211,1332.11
133280,1332.8
133349,1333.49
133418,1334.18
133489,1334.89
133561,1335.61
133635,1336.35
133711,1337.11
133788,1337.88
133863,1338.63
133938,1339.38
134014,1340.14
134089,1340.89
134165,1341.65
134239,1342.39
134311,1343.11
134384,1343.84
134457,1344.57
134530,1345.3
134602,1346.02
134674,1346.74
134746,1347.46
134819,1348.19
134893,1348.93
134965,1349.65
135037,1350.37
135109,1351.09
135183,1351.83
135258,1352.58
135332,1353.32
135406,1354.06
135479,1354.79
135553,1355.53
135629,1356.29
135705,1357.05
135783,1357.83
135859,1358.59
135933,1359.33
136009,1360.09
136085,1360.85
136162,1361.62
136240,1362.4
136316,1363.16
136393,1363.93
136470,1364.7
136546,1365.46
136620,1366.2
136693,1366.93
136766,1367.66
136841,1368.41
136920,1369.2
136998,1369.98
137074,1370.74
137151,1371.51
137228,1372.28
137307,1373.07
137384,1373.84
137460,1374.6
137534,1375.34
137610,1376.1
137686,1376.86
137762,1377.62
137837,1378.37
137910,1379.1
137983,1379.83
138056,1380.56
138130,1381.3
138206,1382.06
138279,1382.79
138352,1383.52
138426,1384.26
138500,1385.0
138574,1385.74
138646,1386.46
138718,1387.18
138789,1387.89
138862,1388.62
138936,1389.36
139009,1390.09
139081,1390.81
139154,1391.54
139228,1392.28
139303,1393.03
139378,1393.78
139454,1394.54
139529,1395.29
139604,1396.04
139680,1396.8
139756,1397.56
139831,1398.31
139905,1399.05
139977,1399.77
140051,1400.51
140125,1401.25
140199,1401.99
140273,1402.73
140347,1403.47
140420,1404.2
140495,1404.95
140573,1405.73
140652,1406.52
140731,1407.31
140808,1408.08
140888,1408.88
140968,1409.68
141044,1410.44
141119,1411.19
141194,1411.94
141268,1412.68
141342,1413.42
141415,1414.15
141487,1414.87
141560,1415.6
141637,1416.37
141713,1417.13
141790,1417.9
141865,1418.65
141941,1419.41
142018,1420.18
142096,1420.96
142172,1421.72
142248,1422.48
142324,1423.24
142400,1424.0
142477,1424.77
142555,1425.55
142632,1426.32
142709,1427.09
142787,1427.87
142867,1428.67
142946,1429.46
143023,1430.23
143099,1430.99
143176,1431.76
143253,1432.53
143328,1433.28
143400,1434.0
143472,1434.72
143544,1435.44
143618,1436.18
143697,1436.97
143775,1437.75
143852,1438.52
143929,1439.29
144005,1440.05
144083,1440.83
144158,1441.58
144231,1442.31
144304,1443.04
144379,1443.79
144453,1444.53
144528,1445.28
144601,1446.01
144675,1446.75
144749,1447.49
144826,1448.26
144902,1449.02
144980,1449.8
145054,1450.54
145129,1451.29
145205,1452.05
145282,1452.82
145360,1453.6
145434,1454.34
145506,1455.06
145578,1455.78
145649,1456.49
145720,1457.2
145791,1457.91
145863,1458.63
145935,1459.35
146008,1460.08
146084,1460.84
146161,1461.61
146237,1462.37
146313,1463.13
146391,1463.91
146470,1464.7
146549,1465.49
146628,1466.28
146705,1467.05
146781,1467.81
146857,1468.57
146935,1469.35
147012,1470.12
147088,1470.88
147161,1471.61
147234,1472.34
147306,1473.06
147381,1473.81
147457,1474.57
147533,1475.33
147608,1476.08
147686,1476.86
147769,1477.69
147850,1478.5
147930,1479.3
148011,1480.11
148089,1480.89
148169,1481.69
148250,1482.5
148329,1483.29
148406,1484.06
148484,1484.84
148562,1485.62
148638,1486.38
148711,1487.11
148785,1487.85
148860,1488.6
148937,1489.37
149014,1490.14
149090,1490.9
149166,1491.66
149241,1492.41
149318,1493.18
149396,1493.96
149471,1494.71
149546,1495.46
149622,1496.22
149698,1496.98
149775,1497.75
149852,1498.52
149928,1499.28
150002,1500.02
150077,1500.77
150154,1501.54
150234,1502.34
150314,1503.14
150392,1503.92
150469,1504.69
150546,1505.46
150622,1506.22
150697,1506.97
150770,1507.7
150841,1508.41
150912,1509.12
150982,1509.82
151053,1510.53
151128,1511.28
151201,1512.01
151275,1512.75
151348,1513.48
151424,1514.24
151501,1515.01
151577,1515.77
151654,1516.54
151729,1517.29
151806,1518.06
151884,1518.84
151964,1519.64
152043,1520.43
152120,1521.2
152197,1521.97
152275,1522.75
152354,1523.54
152432,1524.32
152508,1525.08
152582,1525.82
152654,1526.54
152728,1527.28
152805,1528.05
152880,1528.8
152955,1529.55
153030,1530.3
153109,1531.09
153188,1531.88
153267,1532.67
153343,1533.43
153417,1534.17
153491,1534.91
153566,1535.66
153641,1536.41
153717,1537.17
153792,1537.92
153865,1538.65
153937,1539.37
154008,1540.08
154081,1540.81
154155,1541.55
154229,1542.29
154303,1543.03
154377,1543.77
154453,1544.53
154531,1545.31
154610,1546.1
154686,1546.86
154761,1547.61
154836,1548.36
154911,1549.11
154987,1549.87
155061,1550.61
155135,1551.35
155209,1552.09
155284,1552.84
155361,1553.61
155437,1554.37
155512,1555.12
155586,1555.86
155658,1556.58
155730,1557.3
155805,1558.05
155883,1558.83
155959,1559.59
156034,1560.34
156110,1561.1
156187,1561.87
156265,1562.65
156342,1563.42
156418,1564.18
156497,1564.97
156577,1565.77
156657,1566.57
156737,1567.37
156814,1568.14
156892,1568.92
156968,1569.68
157045,1570.45
157122,1571.22
157198,1571.98
157271,1572.71
157343,1573.43
157416,1574.16
157488,1574.88
157560,1575.6
157631,1576.31
157702,1577.02
157773,1577.73
157843,1578.43
157914,1579.14
157987,1579.87
158059,1580.59
158133,1581.33
158207,1582.07
158283,1582.83
158361,1583.61
158439,1584.39
158514,1585.14
158590,1585.9
158666,1586.66
158740,1587.4
158813,1588.13
158885,1588.85
158959,1589.59
159033,1590.33
159106,1591.06
159179,1591.79
159253,1592.53
159328,1593.28
159404,1594.04
159478,1594.78
159552,1595.52
159624,1596.24
159698,1596.98
159773,1597.73
159848,1598.48
159923,1599.23
159998,1599.98
160075,1600.75
160154,1601.54
160232,1602.32
160309,1603.09
160387,1603.87
160466,1604.66
160543,1605.43
160619,1606.19
160695,1606.95
160770,1607.7
160847,1608.47
160922,1609.22
160994,1609.94
161065,1610.65
161137,1611.37
161210,1612.1
161285,1612.85
161358,1613.58
161431,1614.31
161504,1615.04
161578,1615.78
161651,1616.51
161724,1617.24
161795,1617.95
161867,1618.67
161940,1619.4
162016,1620.16
162093,1620.93
162171,1621.71
162250,1622.5
162327,1623.27
162404,1624.04
162481,1624.81
162559,1625.59
162636,1626.36
162713,1627.13
162787,1627.87
162860,1628.6
162931,1629.31
163004,1630.04
163080,1630.8
163156,1631.56
163231,1632.31
163306,1633.06
163386,1633.86
163465,1634.65
163545,1635.45
163623,1636.23
163702,1637.02
163782,1637.82
163863,1638.63
163942,1639.42
164020,1640.2
164097,1640.97
164176,1641.76
164257,1642.57
164336,1643.36
164413,1644.13
164488,1644.88
164561,1645.61
164634,1646.34
164710,1647.1
164790,1647.9
164870,1648.7
164949,1649.49
165025,1650.25
165102,1651.02
165181,1651.81
165261,1652.61
165343,1653.43
165421,1654.21
165500,1655.0
165576,1655.76
165652,1656.52
165729,1657.29
165804,1658.04
165878,1658.78
165953,1659.53
166030,1660.3
166107,1661.07
166181,1661.81
166256,1662.56
166331,1663.31
166403,1664.03
166487,1664.87
166572,1665.72
166661,1666.61
166751,1667.51
166820,1668.2
166889,1668.89
166958,1669.58
167027,1670.27
167095,1670.95
167164,1671.64
167232,1672.32
167300,1673.0
167370,1673.7
167440,1674.4
167510,1675.1
167580,1675.8
167651,1676.51
167722,1677.22
167794,1677.94
167865,1678.65
167937,1679.37
168009,1680.09
168081,1680.81
168152,1681.52
168223,1682.23
168294,1682.94
168365,1683.65
168435,1684.35
168505,1685.05
168574,1685.74
168642,1686.42
168711,1687.11
168780,1687.8
168848,1688.48
168917,1689.17
168987,1689.87
169057,1690.57
169126,1691.26
169194,1691.94
169262,1692.62
169328,1693.28
169397,1693.97
169466,1694.66
169535,1695.35
169604,1696.04
169675,1696.75
169746,1697.46
169817,1698.17
169888,1698.88
169960,1699.6
170033,1700.33
170105,1701.05
170177,1701.77
170249,1702.49
170321,1703.21
170393,1703.93
170466,1704.66
170537,1705.37
170608,1706.08
170679,1706.79
170749,1707.49
170819,1708.19
170890,1708.9
170966,1709.66
171041,1710.41
171118,1711.18
171196,1711.96
171272,1712.72
171349,1713.49
171425,1714.25
171502,1715.02
171577,1715.77
171652,1716.52
171729,1717.29
171806,1718.06
171884,1718.84
171963,1719.63
172038,1720.38
172114,1721.14
172189,1721.89
172265,1722.65
172338,1723.38
172410,1724.1
172482,1724.82
172556,1725.56
172631,1726.31
172706,1727.06
172781,1727.81
172855,1728.55
172929,1729.29
173005,1730.05
173081,1730.81
173159,1731.59
173236,1732.36
173314,1733.14
173392,1733.92
173472,1734.72
173549,1735.49
173625,1736.25
173700,1737.0
173777,1737.77
173854,1738.54
173929,1739.29
174002,1740.02
174076,1740.76
174150,1741.5
174223,1742.23
174296,1742.96
174366,1743.66
174437,1744.37
174508,1745.08
174577,1745.77
174646,1746.46
174715,1747.15
174784,1747.84
174853,1748.53
174922,1749.22
174990,1749.9
175060,1750.6
175129,1751.29
175197,1751.97
175265,1752.65
175335,1753.35
175406,1754.06
175477,1754.77
175549,1755.49
175621,1756.21
175694,1756.94
175766,1757.66
175838,1758.38
175911,1759.11
175984,1759.84
176057,1760.57
176129,1761.29
176201,1762.01
176274,1762.74
176347,1763.47
176419,1764.19
176490,1764.9
176561,1765.61
176632,1766.32
176703,1767.03
176773,1767.73
176845,1768.45
176915,1769.15
176986,1769.86
177055,1770.55
177124,1771.24
177192,1771.92
177260,1772.6
177327,1773.27
177394,1773.94
177460,1774.6
177527,1775.27
177593,1775.93
177659,1776.59
177726,1777.26
177792,1777.92
177858,1778.58
177924,1779.24
177990,1779.9
178057,1780.57
178123,1781.23
178189,1781.89
178257,1782.57
178324,1783.24
178391,1783.91
178459,1784.59
178527,1785.27
178596,1785.96
178666,1786.66
178737,1787.37
178809,1788.09
178879,1788.79
178947,1789.47
179014,1790.14
179080,1790.8
179145,1791.45
179210,1792.1
179275,1792.75
179341,1793.41
179408,1794.08
179475,1794.75
179545,1795.45
179614,1796.14
179684,1796.84
179756,1797.56
179829,1798.29
179903,1799.03
179976,1799.76
180050,1800.5
180124,1801.24
180196,1801.96
180269,1802.69
180341,1803.41
180414,1804.14
180485,1804.85
180556,1805.56
180626,1806.26
180696,1806.96
180767,1807.67
180835,1808.35
180904,1809.04
180971,1809.71
181038,1810.38
181105,1811.05
181171,1811.71
181235,1812.35
181300,1813.0
181363,1813.63
181426,1814.26
181489,1814.89
181553,1815.53
181616,1816.16
181680,1816.8
181744,1817.44
181808,1818.08
181872,1818.72
181938,1819.38
182004,1820.04
182070,1820.7
182137,1821.37
182206,1822.06
182274,1822.74
182343,1823.43
182412,1824.12
182482,1824.82
182551,1825.51
182621,1826.21
182692,1826.92
182763,1827.63
182833,1828.33
182905,1829.05
182977,1829.77
183047,1830.47
183117,1831.17
183187,1831.87
183256,1832.56
183325,1833.25
183393,1833.93
183461,1834.61
183528,1835.28
183595,1835.95
183663,1836.63
183729,1837.29
183794,1837.94
183860,1838.6
183926,1839.26
183992,1839.92
184058,1840.58
184125,1841.25
184191,1841.91
184257,1842.57
184324,1843.24
184391,1843.91
184457,1844.57
184523,1845.23
184588,1845.88
184654,1846.54
184719,1847.19
184784,1847.84
184849,1848.49
184915,1849.15
184980,1849.8
185047,1850.47
185115,1851.15
185183,1851.83
185251,1852.51
185321,1853.21
185392,1853.92
185463,1854.63
185534,1855.34
185604,1856.04
185673,1856.73
185743,1857.43
185813,1858.13
185882,1858.82
185950,1859.5
186019,1860.19
186088,1860.88
186157,1861.57
186226,1862.26
186294,1862.94
186363,1863.63
186432,1864.32
186501,1865.01
186569,1865.69
186638,1866.38
186708,1867.08
186778,1867.78
186848,1868.48
186917,1869.17
186987,1869.87
187057,1870.57
187126,1871.26
187193,1871.93
187259,1872.59
187325,1873.25
187390,1873.9
187454,1874.54
187518,1875.18
187581,1875.81
187644,1876.44
187708,1877.08
187771,1877.71
187835,1878.35
187899,1878.99
187963,1879.63
188027,1880.27
188092,1880.92
188156,1881.56
188221,1882.21
188286,1882.86
188350,1883.5
188414,1884.14
188479,1884.79
188544,1885.44
188609,1886.09
188674,1886.74
188738,1887.38
188803,1888.03
188869,1888.69
188933,1889.33
188998,1889.98
189064,1890.64
189129,1891.29
189196,1891.96
189265,1892.65
189334,1893.34
189402,1894.02
189471,1894.71
189540,1895.4
189610,1896.1
189682,1896.82
189754,1897.54
189825,1898.25
189896,1898.96
189967,1899.67
190038,1900.38
190109,1901.09
190180,1901.8
190250,1902.5
190321,1903.21
190389,1903.89
190456,1904.56
190524,1905.24
190591,1905.91
190657,1906.57
190724,1907.24
190788,1907.88
190853,1908.53
190918,1909.18
190983,1909.83
191049,1910.49
191116,1911.16
191183,1911.83
191250,1912.5
191318,1913.18
191386,1913.86
191454,1914.54
191524,1915.24
191595,1915.95
191668,1916.68
191742,1917.42
191818,1918.18
191894,1918.94
191973,1919.73
192051,1920.51
192128,1921.28
192206,1922.06
192282,1922.82
192360,1923.6
192436,1924.36
192509,1925.09
192581,1925.81
192652,1926.52
192725,1927.25
192798,1927.98
192872,1928.72
192946,1929.46
193020,1930.2
193094,1930.94
193169,1931.69
193245,1932.45
193320,1933.2
193398,1933.98
193477,1934.77
193555,1935.55
193634,1936.34
193713,1937.13
193791,1937.91
193870,1938.7
193947,1939.47
194022,1940.22
194096,1940.96
194170,1941.7
194242,1942.42
194312,1943.12
194382,1943.82
194453,1944.53
194522,1945.22
194593,1945.93
194664,1946.64
194735,1947.35
194806,1948.06
194878,1948.78
194950,1949.5
195023,1950.23
195096,1950.96
195171,1951.71
195246,1952.46
195320,1953.2
195394,1953.94
195466,1954.66
195535,1955.35
195603,1956.03
195669,1956.69
195736,1957.36
195802,1958.02
195868,1958.68
195934,1959.34
195999,1959.99
196065,1960.65
196131,1961.31
196197,1961.97
196264,1962.64
196331,1963.31
196399,1963.99
196466,1964.66
196534,1965.34
196601,1966.01
196669,1966.69
196737,1967.37
196805,1968.05
196873,1968.73
196941,1969.41
197010,1970.1
197079,1970.79
197148,1971.48
197217,1972.17
197285,1972.85
197353,1973.53
197421,1974.21
197490,1974.9
197559,1975.59
197627,1976.27
197695,1976.95
197764,1977.64
197833,1978.33
197902,1979.02
197971,1979.71
198041,1980.41
198111,1981.11
198180,1981.8
198248,1982.48
198316,1983.16
198382,1983.82
198449,1984.49
198514,1985.14
198579,1985.79
198645,1986.45
198710,1987.1
198775,1987.75
198841,1988.41
198907,1989.07
198974,1989.74
199041,1990.41
199110,1991.1
199179,1991.79
199249,1992.49
199318,1993.18
199387,1993.87
199455,1994.55
199523,1995.23
199589,1995.89
199656,1996.56
199721,1997.21
199787,1997.87
199852,1998.52
199917,1999.17
199982,1999.82
200047,2000.47
200111,2001.11
200175,2001.75
200240,2002.4
200305,2003.05
200370,2003.7
200437,2004.37
200504,2005.04
200573,2005.73
200642,2006.42
200711,2007.11
200781,2007.81
200851,2008.51
200920,2009.2
200988,2009.88
201056,2010.56
201123,2011.23
201191,2011.91
201258,2012.58
201325,2013.25
201393,2013.93
201459,2014.59
201525,2015.25
201591,2015.91
201657,2016.57
201723,2017.23
201789,2017.89
201856,2018.56
201923,2019.23
201990,2019.9
202058,2020.58
202126,2021.26
202196,2021.96
202267,2022.67
202336,2023.36
202407,2024.07
202480,2024.8
202552,2025.52
202624,2026.24
202697,2026.97
202770,2027.7
202844,2028.44
202917,2029.17
202990,2029.9
203062,2030.62
203135,2031.35
203207,2032.07
203278,2032.78
203349,2033.49
203421,2034.21
203493,2034.93
203566,2035.66
203638,2036.38
203711,2037.11
203781,2037.81
203850,2038.5
203918,2039.18
203984,2039.84
204051,2040.51
204118,2041.18
204186,2041.86
204253,2042.53
204322,2043.22
204392,2043.92
204463,2044.63
204534,2045.34
204606,2046.06
204677,2046.77
204749,2047.49
204820,2048.2
204890,2048.9
204960,2049.6
205029,2050.29
205099,2050.99
205169,2051.69
205238,2052.38
205306,2053.06
205374,2053.74
205442,2054.42
205508,2055.08
205573,2055.73
205637,2056.37
205702,2057.02
205767,2057.67
205832,2058.32
205898,2058.98
205965,2059.65
206032,2060.32
206101,2061.01
206170,2061.7
206239,2062.39
206309,2063.09
206380,2063.8
206452,2064.52
206523,2065.23
206594,2065.94
206665,2066.65
206737,2067.37
206807,2068.07
206879,2068.79
206949,2069.49
207020,2070.2
207092,2070.92
207162,2071.62
207234,2072.34
207305,2073.05
207376,2073.76
207447,2074.47
207519,2075.19
207593,2075.93
207667,2076.67
207744,2077.44
207820,2078.2
207897,2078.97
207974,2079.74
208051,2080.51
208127,2081.27
208204,2082.04
208282,2082.82
208360,2083.6
208438,2084.38
208515,2085.15
208593,2085.93
208671,2086.71
208750,2087.5
208828,2088.28
208905,2089.05
208983,2089.83
209063,2090.63
209143,2091.43
209224,2092.24
209305,2093.05
209385,2093.85
209465,2094.65
209545,2095.45
209624,2096.24
209704,2097.04
209785,2097.85
209865,2098.65
209944,2099.44
210021,2100.21
210100,2101.0
210179,2101.79
210257,2102.57
210334,2103.34
210412,2104.12
210489,2104.89
210567,2105.67
210645,2106.45
210723,2107.23
210800,2108.0
210878,2108.78
210956,2109.56
211034,2110.34
211111,2111.11
211189,2111.89
211268,2112.68
211347,2113.47
211425,2114.25
211502,2115.02
211577,2115.77
211653,2116.53
211729,2117.29
211805,2118.05
211881,2118.81
211958,2119.58
212036,2120.36
212114,2121.14
212193,2121.93
212270,2122.7
212348,2123.48
212426,2124.26
212503,2125.03
212582,2125.82
212660,2126.6
212738,2127.38
212816,2128.16
212895,2128.95
212976,2129.76
213055,2130.55
213135,2131.35
213214,2132.14
213293,2132.93
213373,2133.73
213451,2134.51
213529,2135.29
213607,2136.07
213688,2136.88
213769,2137.69
213851,2138.51
213931,2139.31
214011,2140.11
214090,2140.9
214170,2141.7
214249,2142.49
214327,2143.27
214405,2144.05
214485,2144.85
214563,2145.63
214641,2146.41
214718,2147.18
214796,2147.96
214873,2148.73
214950,2149.5
215028,2150.28
215105,2151.05
215182,2151.82
215260,2152.6
215337,2153.37
215415,2154.15
215492,2154.92
215569,2155.69
215646,2156.46
215723,2157.23
215800,2158.0
215878,2158.78
215955,2159.55
216032,2160.32
216107,2161.07
216181,2161.81
216252,2162.52
216322,2163.22
216393,2163.93
216464,2164.64
216537,2165.37
216613,2166.13
216690,2166.9
216770,2167.7
216850,2168.5
216928,2169.28
217008,2170.08
217087,2170.87
217166,2171.66
217244,2172.44
217321,2173.21
217398,2173.98
217475,2174.75
217551,2175.51
217627,2176.27
217703,2177.03
217780,2177.8
217856,2178.56
217933,2179.33
218010,2180.1
218088,2180.88
218167,2181.67
218246,2182.46
218325,2183.25
218402,2184.02
218481,2184.81
218558,2185.58
218635,2186.35
218711,2187.11
218785,2187.85
218857,2188.57
218930,2189.3
219004,2190.04
219079,2190.79
219157,2191.57
219235,2192.35
219316,2193.16
219395,2193.95
219474,2194.74
219555,2195.55
219635,2196.35
219714,2197.14
219792,2197.92
219869,2198.69
219949,2199.49
220028,2200.28
220110,2201.1
220191,2201.91
220271,2202.71
220352,2203.52
220434,2204.34
220517,2205.17
220600,2206.0
220680,2206.8
220761,2207.61
220843,2208.43
220923,2209.23
221003,2210.03
221083,2210.83
221164,2211.64
221244,2212.44
221325,2213.25
221408,2214.08
221489,2214.89
221570,2215.7
221650,2216.5
221730,2217.3
221810,2218.1
221891,2218.91
221972,2219.72
222052,2220.52
222132,2221.32
222213,2222.13
222292,2222.92
222372,2223.72
222451,2224.51
222530,2225.3
222610,2226.1
222689,2226.89
222769,2227.69
222849,2228.49
222929,2229.29
223010,2230.1
223091,2230.91
223172,2231.72
223254,2232.54
223337,2233.37
223419,2234.19
223501,2235.01
223581,2235.81
223659,2236.59
223737,2237.37
223813,2238.13
223889,2238.89
223965,2239.65
224041,2240.41
224117,2241.17
224194,2241.94
224272,2242.72
224352,2243.52
224432,2244.32
224512,2245.12
224592,2245.92
224673,2246.73
224753,2247.53
224834,2248.34
224916,2249.16
224998,2249.98
225080,2250.8
225163,2251.63
225243,2252.43
225323,2253.23
225405,2254.05
225488,2254.88
225571,2255.71
225653,2256.53
225737,2257.37
225820,2258.2
225902,2259.02
225985,2259.85
226067,2260.67
226150,2261.5
226234,2262.34
226318,2263.18
226402,2264.02
226485,2264.85
226569,2265.69
226651,2266.51
226732,2267.32
226811,2268.11
226889,2268.89
226968,2269.68
227046,2270.46
227124,2271.24
227201,2272.01
227279,2272.79
227357,2273.57
227434,2274.34
227511,2275.11
227589,2275.89
227666,2276.66
227743,2277.43
227820,2278.2
227897,2278.97
227974,2279.74
228053,2280.53
228133,2281.33
228211,2282.11
228288,2282.88
228364,2283.64
228441,2284.41
228520,2285.2
228597,2285.97
228674,2286.74
228750,2287.5
228826,2288.26
228899,2288.99
228973,2289.73
229047,2290.47
229122,2291.22
229197,2291.97
229272,2292.72
229349,2293.49
229426,2294.26
229502,2295.02
229579,2295.79
229656,2296.56
229733,2297.33
229810,2298.1
229885,2298.85
229961,2299.61
230037,2300.37
230113,2301.13
230188,2301.88
230265,2302.65
230341,2303.41
230417,2304.17
230494,2304.94
230572,2305.72
230653,2306.53
230735,2307.35
230819,2308.19
230902,2309.02
230984,2309.84
231066,2310.66
231147,2311.47
231226,2312.26
231307,2313.07
231389,2313.89
231471,2314.71
231553,2315.53
231633,2316.33
231712,2317.12
231793,2317.93
231875,2318.75
231957,2319.57
232038,2320.38
232119,2321.19
232199,2321.99
232279,2322.79
232360,2323.6
232442,2324.42
232522,2325.22
232602,2326.02
232683,2326.83
232764,2327.64
232845,2328.45
232926,2329.26
233007,2330.07
233087,2330.87
233169,2331.69
233251,2332.51
233334,2333.34
233416,2334.16
233497,2334.97
233579,2335.79
233660,2336.6
233742,2337.42
233825,2338.25
233905,2339.05
233986,2339.86
234067,2340.67
234149,2341.49
234231,2342.31
234311,2343.11
234393,2343.93
234475,2344.75
234555,2345.55
234637,2346.37
234718,2347.18
234798,2347.98
234878,2348.78
234958,2349.58
235039,2350.39
235121,2351.21
235202,2352.02
235283,2352.83
235366,2353.66
235449,2354.49
235533,2355.33
235615,2356.15
235697,2356.97
235778,2357.78
235859,2358.59
235941,2359.41
236024,2360.24
236107,2361.07
236188,2361.88
236269,2362.69
236350,2363.5
236432,2364.32
236515,2365.15
236596,2365.96
236677,2366.77
236759,2367.59
236841,2368.41
236924,2369.24
237006,2370.06
237089,2370.89
237171,2371.71
237253,2372.53
237336,2373.36
237415,2374.15
237495,2374.95
237574,2375.74
237655,2376.55
237736,2377.36
237816,2378.16
237896,2378.96
237976,2379.76
238057,2380.57
238138,2381.38
238217,2382.17
238296,2382.96
238375,2383.75
238454,2384.54
238534,2385.34
238614,2386.14
238694,2386.94
238776,2387.76
238859,2388.59
238942,2389.42
239024,2390.24
239106,2391.06
239187,2391.87
239269,2392.69
239350,2393.5
239430,2394.3
239510,2395.1
239591,2395.91
239672,2396.72
239752,2397.52
239831,2398.31
239910,2399.1
239990,2399.9
240071,2400.71
240152,2401.52
240233,2402.33
240313,2403.13
240394,2403.94
240474,2404.74
240556,2405.56
240637,2406.37
240718,2407.18
240800,2408.0
240880,2408.8
240962,2409.62
241043,2410.43
241124,2411.24
241204,2412.04
241285,2412.85
241365,2413.65
241446,2414.46
241529,2415.29
241612,2416.12
241693,2416.93
241774,2417.74
241859,2418.59
241943,2419.43
242024,2420.24
242104,2421.04
242184,2421.84
242267,2422.67
242351,2423.51
242434,2424.34
242517,2425.17
242600,2426.0
242683,2426.83
242765,2427.65
242848,2428.48
242930,2429.3
243013,2430.13
243097,2430.97
243181,2431.81
243265,2432.65
243345,2433.45
243426,2434.26
243505,2435.05
243586,2435.86
243667,2436.67
243747,2437.47
243823,2438.23
243900,2439.0
243979,2439.79
244061,2440.61
244143,2441.43
244221,2442.21
244301,2443.01
244378,2443.78
244453,2444.53
244527,2445.27
244599,2445.99
244669,2446.69
244739,2447.39
244809,2448.09
244880,2448.8
244953,2449.53
245031,2450.31
245114,2451.14
245199,2451.99
245286,2452.86
245372,2453.72
245457,2454.57
245540,2455.4
245623,2456.23
245707,2457.07
245793,2457.93
245880,2458.8
245963,2459.63
246044,2460.44
246124,2461.24
246204,2462.04
246282,2462.82
246358,2463.58
246432,2464.32
246506,2465.06
246582,2465.82
246662,2466.62
246744,2467.44
246830,2468.3
246917,2469.17
247002,2470.02
247086,2470.86
247167,2471.67
247246,2472.46
247322,2473.22
247397,2473.97
247472,2474.72
247547,2475.47
247624,2476.24
247701,2477.01
247782,2477.82
247865,2478.65
247950,2479.5
248036,2480.36
248118,2481.18
248200,2482.0
248282,2482.82
248364,2483.64
248446,2484.46
248529,2485.29
248611,2486.11
248692,2486.92
248775,2487.75
248857,2488.57
248939,2489.39
249021,2490.21
249101,2491.01
249181,2491.81
249262,2492.62
249345,2493.45
249429,2494.29
249515,2495.15
249598,2495.98
249681,2496.81
249766,2497.66
249851,2498.51
249938,2499.38
250021,2500.21
250104,2501.04
250186,2501.86
250268,2502.68
250350,2503.5
250433,2504.33
250515,2505.15
250596,2505.96
250676,2506.76
250760,2507.6
250843,2508.43
250927,2509.27
251009,2510.09
251093,2510.93
251175,2511.75
251258,2512.58
251341,2513.41
251422,2514.22
251503,2515.03
251583,2515.83
251666,2516.66
251750,2517.5
251832,2518.32
251914,2519.14
251997,2519.97
252081,2520.81
252166,2521.66
252250,2522.5
252330,2523.3
252413,2524.13
252497,2524.97
252580,2525.8
252662,2526.62
252744,2527.44
252827,2528.27
252911,2529.11
252993,2529.93
253074,2530.74
253155,2531.55
253237,2532.37
253319,2533.19
253401,2534.01
253481,2534.81
253563,2535.63
253644,2536.44
253725,2537.25
253805,2538.05
253886,2538.86
253968,2539.68
254050,2540.5
254134,2541.34
254216,2542.16
254296,2542.96
254374,2543.74
254449,2544.49
254526,2545.26
254603,2546.03
254681,2546.81
254760,2547.6
254841,2548.41
254925,2549.25
255009,2550.09
255096,2550.96
255181,2551.81
255264,2552.64
255347,2553.47
255430,2554.3
255512,2555.12
255593,2555.93
255672,2556.72
255752,2557.52
255832,2558.32
255913,2559.13
255996,2559.96
256079,2560.79
256164,2561.64
256248,2562.48
256330,2563.3
256412,2564.12
256496,2564.96
256585,2565.85
256672,2566.72
256754,2567.54
256837,2568.37
256919,2569.19
257002,2570.02
257085,2570.85
257167,2571.67
257252,2572.52
257337,2573.37
257422,2574.22
257506,2575.06
257589,2575.89
257672,2576.72
257755,2577.55
257837,2578.37
257917,2579.17
257997,2579.97
258078,2580.78
258157,2581.57
258232,2582.32
258307,2583.07
258383,2583.83
258459,2584.59
258538,2585.38
258619,2586.19
258700,2587.0
258781,2587.81
258867,2588.67
258952,2589.52
259035,2590.35
259115,2591.15
259196,2591.96
259278,2592.78
259359,2593.59
259441,2594.41
259522,2595.22
259603,2596.03
259685,2596.85
259770,2597.7
259854,2598.54
259937,2599.37
260019,2600.19
260101,2601.01
260184,2601.84
260267,2602.67
260349,2603.49
260432,2604.32
260517,2605.17
260599,2605.99
260686,2606.86
260771,2607.71
260854,2608.54
260937,2609.37
261021,2610.21
261104,2611.04
261184,2611.84
261265,2612.65
261348,2613.48
261432,2614.32
261513,2615.13
261593,2615.93
261673,2616.73
261754,2617.54
261834,2618.34
261914,2619.14
261992,2619.92
262071,2620.71
262151,2621.51
262231,2622.31
262313,2623.13
262395,2623.95
262477,2624.77
262559,2625.59
262641,2626.41
262722,2627.22
262802,2628.02
262882,2628.82
262963,2629.63
263044,2630.44
263124,2631.24
263203,2632.03
263284,2632.84
263366,2633.66
263449,2634.49
263532,2635.32
263616,2636.16
263700,2637.0
263786,2637.86
263874,2638.74
263958,2639.58
264043,2640.43
264132,2641.32
264220,2642.2
264310,2643.1
264394,2643.94
264479,2644.79
264565,2645.65
264649,2646.49
264733,2647.33
264818,2648.18
264904,2649.04
264988,2649.88
265070,2650.7
265153,2651.53
265242,2652.42
265332,2653.32
265416,2654.16
265502,2655.02
265588,2655.88
265675,2656.75
265759,2657.59
265843,2658.43
265929,2659.29
266016,2660.16
266102,2661.02
266185,2661.85
266266,2662.66
266348,2663.48
266430,2664.3
266513,2665.13
266596,2665.96
266678,2666.78
266758,2667.58
266840,2668.4
266922,2669.22
267003,2670.03
267082,2670.82
267160,2671.6
267238,2672.38
267317,2673.17
267396,2673.96
267476,2674.76
267554,2675.54
267633,2676.33
267711,2677.11
267793,2677.93
267876,2678.76
267960,2679.6
268043,2680.43
268126,2681.26
268211,2682.11
268297,2682.97
268384,2683.84
268467,2684.67
268549,2685.49
268632,2686.32
268715,2687.15
268798,2687.98
268883,2688.83
268966,2689.66
269046,2690.46
269127,2691.27
269208,2692.08
269288,2692.88
269365,2693.65
269441,2694.41
269516,2695.16
269589,2695.89
269661,2696.61
269732,2697.32
269803,2698.03
269872,2698.72
269942,2699.42
270012,2700.12
270082,2700.82
270153,2701.53
270222,2702.22
270292,2702.92
270360,2703.6
270427,2704.27
270495,2704.95
270562,2705.62
270628,2706.28
270693,2706.93
270758,2707.58
270824,2708.24
270888,2708.88
270953,2709.53
271019,2710.19
271085,2710.85
271151,2711.51
271217,2712.17
271285,2712.85
271354,2713.54
271422,2714.22
271490,2714.9
271557,2715.57
271623,2716.23
271688,2716.88
271753,2717.53
271817,2718.17
271883,2718.83
271948,2719.48
272014,2720.14
272080,2720.8
272147,2721.47
272211,2722.11
272276,2722.76
272341,2723.41
272406,2724.06
272471,2724.71
272537,2725.37
272606,2726.06
272678,2726.78
272748,2727.48
272820,2728.2
272894,2728.94
272968,2729.68
273044,2730.44
273119,2731.19
273192,2731.92
273264,2732.64
273335,2733.35
273405,2734.05
273473,2734.73
273541,2735.41
273611,2736.11
273680,2736.8
273748,2737.48
273816,2738.16
273885,2738.85
273954,2739.54
274022,2740.22
274089,2740.89
274158,2741.58
274228,2742.28
274300,2743.0
274372,2743.72
274444,2744.44
274517,2745.17
274590,2745.9
274666,2746.66
274743,2747.43
274822,2748.22
274901,2749.01
274978,2749.78
275056,2750.56
275135,2751.35
275214,2752.14
275295,2752.95
275374,2753.74
275451,2754.51
275530,2755.3
275611,2756.11
275693,2756.93
275772,2757.72
275850,2758.5
275927,2759.27
276005,2760.05
276085,2760.85
276164,2761.64
276242,2762.42
276319,2763.19
276399,2763.99
276480,2764.8
276560,2765.6
276638,2766.38
276716,2767.16
276793,2767.93
276872,2768.72
276952,2769.52
277031,2770.31
277109,2771.09
277185,2771.85
277262,2772.62
277338,2773.38
277413,2774.13
277486,2774.86
277558,2775.58
277632,2776.32
277708,2777.08
277783,2777.83
277857,2778.57
277931,2779.31
278006,2780.06
278083,2780.83
278159,2781.59
278234,2782.34
278308,2783.08
278382,2783.82
278458,2784.58
278534,2785.34
278608,2786.08
278682,2786.82
278756,2787.56
278831,2788.31
278909,2789.09
278989,2789.89
279068,2790.68
279146,2791.46
279223,2792.23
279301,2793.01
279380,2793.8
279457,2794.57
279534,2795.34
279613,2796.13
279692,2796.92
279772,2797.72
279854,2798.54
279933,2799.33
280009,2800.09
280086,2800.86
280164,2801.64
280241,2802.41
280315,2803.15
280389,2803.89
280465,2804.65
280540,2805.4
280614,2806.14
280688,2806.88
280763,2807.63
280841,2808.41
280920,2809.2
280998,2809.98
281075,2810.75
281154,2811.54
281233,2812.33
281313,2813.13
281394,2813.94
281471,2814.71
281548,2815.48
281626,2816.26
281704,2817.04
281782,2817.82
281858,2818.58
281933,2819.33
282007,2820.07
282081,2820.81
282158,2821.58
282234,2822.34
282308,2823.08
282382,2823.82
282457,2824.57
282534,2825.34
282611,2826.11
282684,2826.84
282758,2827.58
282831,2828.31
282907,2829.07
282985,2829.85
283064,2830.64
283144,2831.44
283222,2832.22
283301,2833.01
283382,2833.82
283462,2834.62
283540,2835.4
283615,2836.15
283690,2836.9
283766,2837.66
283842,2838.42
283916,2839.16
283990,2839.9
284063,2840.63
284137,2841.37
284211,2842.11
284286,2842.86
284360,2843.6
284433,2844.33
284506,2845.06
284578,2845.78
284649,2846.49
284722,2847.22
284795,2847.95
284868,2848.68
284942,2849.42
285019,2850.19
285099,2850.99
285181,2851.81
285265,2852.65
285349,2853.49
285430,2854.3
285512,2855.12
285596,2855.96
285680,2856.8
285760,2857.6
285841,2858.41
285924,2859.24
286008,2860.08
286086,2860.86
286162,2861.62
286240,2862.4
286322,2863.22
286403,2864.03
286485,2864.85
286565,2865.65
286649,2866.49
286733,2867.33
286814,2868.14
286892,2868.92
286971,2869.71
287051,2870.51
287133,2871.33
287214,2872.14
287293,2872.93
287370,2873.7
287446,2874.46
287525,2875.25
287606,2876.06
287688,2876.88
287771,2877.71
287852,2878.52
287933,2879.33
288014,2880.14
288094,2880.94
288173,2881.73
288251,2882.51
288329,2883.29
288408,2884.08
288483,2884.83
288557,2885.57
288631,2886.31
288706,2887.06
288781,2887.81
288855,2888.55
288931,2889.31
289008,2890.08
289086,2890.86
289162,2891.62
289237,2892.37
289313,2893.13
289390,2893.9
289467,2894.67
289543,2895.43
289618,2896.18
289695,2896.95
289773,2897.73
289853,2898.53
289934,2899.34
290015,2900.15
290093,2900.93
290169,2901.69
290246,2902.46
290324,2903.24
290404,2904.04
290486,2904.86
290570,2905.7
290656,2906.56
290738,2907.38
290821,2908.21
290905,2909.05
290990,2909.9
291072,2910.72
291155,2911.55
291237,2912.37
291318,2913.18
291400,2914.0
291479,2914.79
291559,2915.59
291636,2916.36
291713,2917.13
291791,2917.91
291875,2918.75
291958,2919.58
292039,2920.39
292120,2921.2
292203,2922.03
292288,2922.88
292372,2923.72
292453,2924.53
292536,2925.36
292621,2926.21
292707,2927.07
292791,2927.91
292873,2928.73
292956,2929.56
293040,2930.4
293124,2931.24
293204,2932.04
293283,2932.83
293360,2933.6
293437,2934.37
293513,2935.13
293587,2935.87
293661,2936.61
293736,2937.36
293810,2938.1
293882,2938.82
293955,2939.55
294028,2940.28
294101,2941.01
294179,2941.79
294260,2942.6
294342,2943.42
294423,2944.23
294504,2945.04
294585,2945.85
294667,2946.67
294749,2947.49
294829,2948.29
294908,2949.08
294984,2949.84
295061,2950.61
295137,2951.37
295212,2952.12
295287,2952.87
295362,2953.62
295440,2954.4
295523,2955.23
295607,2956.07
295686,2956.86
295764,2957.64
295843,2958.43
295923,2959.23
296002,2960.02
296079,2960.79
296156,2961.56
296233,2962.33
296312,2963.12
296393,2963.93
296475,2964.75
296556,2965.56
296639,2966.39
296721,2967.21
296803,2968.03
296884,2968.84
296963,2969.63
297041,2970.41
297117,2971.17
297191,2971.91
297264,2972.64
297336,2973.36
297409,2974.09
297484,2974.84
297559,2975.59
297634,2976.34
297708,2977.08
297785,2977.85
297865,2978.65
297946,2979.46
298026,2980.26
298106,2981.06
298189,2981.89
298273,2982.73
298355,2983.55
298436,2984.36
298519,2985.19
298603,2986.03
298688,2986.88
298770,2987.7
298853,2988.53
298936,2989.36
299017,2990.17
299094,2990.94
299171,2991.71
299247,2992.47
299325,2993.25
299411,2994.11
299499,2994.99
299586,2995.86
299669,2996.69
299753,2997.53
299839,2998.39
299923,2999.23
300006,3000.06
300088,3000.88
300169,3001.69
300249,3002.49
300325,3003.25
300400,3004.0
300476,3004.76
300552,3005.52
300626,3006.26
300700,3007.0
300774,3007.74
300848,3008.48
300921,3009.21
300994,3009.94
301068,3010.68
301143,3011.43
301217,3012.17
301293,3012.93
301371,3013.71
301452,3014.52
301534,3015.34
301612,3016.12
301688,3016.88
301766,3017.66
301844,3018.44
301922,3019.22
302001,3020.01
302080,3020.8
302157,3021.57
302231,3022.31
302306,3023.06
302382,3023.82
302458,3024.58
302535,3025.35
302611,3026.11
302688,3026.88
302766,3027.66
302845,3028.45
302925,3029.25
303001,3030.01
303078,3030.78
303154,3031.54
303227,3032.27
303300,3033.0
303372,3033.72
303445,3034.45
303518,3035.18
303591,3035.91
303663,3036.63
303737,3037.37
303811,3038.11
303886,3038.86
303959,3039.59
304033,3040.33
304108,3041.08
304184,3041.84
304259,3042.59
304333,3043.33
304407,3044.07
304482,3044.82
304556,3045.56
304628,3046.28
304701,3047.01
304774,3047.74
304847,3048.47
304919,3049.19
304991,3049.91
305065,3050.65
305137,3051.37
305209,3052.09
305280,3052.8
305352,3053.52
305424,3054.24
305494,3054.94
305565,3055.65
305635,3056.35
305705,3057.05
305774,3057.74
305844,3058.44
305914,3059.14
305984,3059.84
306054,3060.54
306123,3061.23
306193,3061.93
306263,3062.63
306331,3063.31
306400,3064.0
306467,3064.67
306534,3065.34
306600,3066.0
306665,3066.65
306731,3067.31
306796,3067.96
306862,3068.62
306927,3069.27
306992,3069.92
307058,3070.58
307123,3071.23
307189,3071.89
307255,3072.55
307321,3073.21
307386,3073.86
307452,3074.52
307519,3075.19
307586,3075.86
307652,3076.52
307719,3077.19
307785,3077.85
307852,3078.52
307917,3079.17
307982,3079.82
308047,3080.47
308112,3081.12
308176,3081.76
308241,3082.41
308306,3083.06
308372,3083.72
308439,3084.39
308507,3085.07
308573,3085.73
308639,3086.39
308706,3087.06
308772,3087.72
308840,3088.4
308908,3089.08
308976,3089.76
309043,3090.43
309108,3091.08
309173,3091.73
309238,3092.38
309303,3093.03
309367,3093.67
309430,3094.3
309494,3094.94
309558,3095.58
309622,3096.22
309686,3096.86
309751,3097.51
309816,3098.16
309882,3098.82
309948,3099.48
310014,3100.14
310081,3100.81
310149,3101.49
310216,3102.16
310284,3102.84
310350,3103.5
310416,3104.16
310483,3104.83
310550,3105.5
310618,3106.18
310685,3106.85
310751,3107.51
310819,3108.19
310888,3108.88
310958,3109.58
311030,3110.3
311101,3111.01
311173,3111.73
311246,3112.46
311320,3113.2
311393,3113.93
311464,3114.64
311536,3115.36
311608,3116.08
311680,3116.8
311753,3117.53
311826,3118.26
311900,3119.0
311978,3119.78
312056,3120.56
312133,3121.33
312211,3122.11
312290,3122.9
312370,3123.7
312447,3124.47
312521,3125.21
312595,3125.95
312669,3126.69
312742,3127.42
312815,3128.15
312886,3128.86
312956,3129.56
313027,3130.27
313098,3130.98
313169,3131.69
313238,3132.38
313307,3133.07
313378,3133.78
313454,3134.54
313531,3135.31
313613,3136.13
313703,3137.03
313797,3137.97
313890,3138.9
313982,3139.82
314072,3140.72
314159,3141.59
314245,3142.45
314328,3143.28
314409,3144.09
314489,3144.89
314567,3145.67
314645,3146.45
314721,3147.21
314796,3147.96
314869,3148.69
314941,3149.41
315014,3150.14
315091,3150.91
315170,3151.7
315249,3152.49
315326,3153.26
315400,3154.0
315476,3154.76
315550,3155.5
315622,3156.22
315694,3156.94
315766,3157.66
315839,3158.39
315910,3159.1
315979,3159.79
316049,3160.49
316119,3161.19
316191,3161.91
316261,3162.61
316331,3163.31
316403,3164.03
316477,3164.77
316550,3165.5
316626,3166.26
316702,3167.02
316777,3167.77
316851,3168.51
316926,3169.26
316999,3169.99
317072,3170.72
317143,3171.43
317215,3172.15
317288,3172.88
317362,3173.62
317438,3174.38
317512,3175.12
317587,3175.87
317666,3176.66
317746,3177.46
317826,3178.26
317905,3179.05
317984,3179.84
318064,3180.64
318145,3181.45
318225,3182.25
318303,3183.03
318380,3183.8
318459,3184.59
318538,3185.38
318616,3186.16
318692,3186.92
318770,3187.7
318849,3188.49
318929,3189.29
319007,3190.07
319082,3190.82
319156,3191.56
319231,3192.31
319307,3193.07
319383,3193.83
319458,3194.58
319534,3195.34
319611,3196.11
319689,3196.89
319767,3197.67
319843,3198.43
319920,3199.2
319997,3199.97
320075,3200.75
320155,3201.55
320233,3202.33
320309,3203.09
320385,3203.85
320461,3204.61
320537,3205.37
320611,3206.11
320684,3206.84
320757,3207.57
320831,3208.31
320906,3209.06
320983,3209.83
321059,3210.59
321134,3211.34
321210,3212.1
321287,3212.87
321364,3213.64
321441,3214.41
321517,3215.17
321592,3215.92
321668,3216.68
321744,3217.44
321819,3218.19
321892,3218.92
321965,3219.65
322037,3220.37
322112,3221.12
322187,3221.87
322262,3222.62
322337,3223.37
322411,3224.11
322488,3224.88
322565,3225.65
322643,3226.43
322720,3227.2
322795,3227.95
322872,3228.72
322947,3229.47
323022,3230.22
323095,3230.95
323167,3231.67
323239,3232.39
323312,3233.12
323384,3233.84
323456,3234.56
323529,3235.29
323604,3236.04
323680,3236.8
323755,3237.55
323828,3238.28
323900,3239.0
323975,3239.75
324050,3240.5
324126,3241.26
324201,3242.01
324275,3242.75
324349,3243.49
324425,3244.25
324502,3245.02
324581,3245.81
324658,3246.58
324735,3247.35
324814,3248.14
324892,3248.92
324969,3249.69
325045,3250.45
325120,3251.2
325197,3251.97
325276,3252.76
325356,3253.56
325433,3254.33
325508,3255.08
325582,3255.82
325657,3256.57
325735,3257.35
325812,3258.12
325890,3258.9
325968,3259.68
326048,3260.48
326129,3261.29
326210,3262.1
326290,3262.9
326369,3263.69
326450,3264.5
326531,3265.31
326611,3266.11
326690,3266.9
326769,3267.69
326852,3268.52
326933,3269.33
327013,3270.13
327094,3270.94
327172,3271.72
327249,3272.49
327326,3273.26
327406,3274.06
327488,3274.88
327568,3275.68
327646,3276.46
327724,3277.24
327803,3278.03
327884,3278.84
327966,3279.66
328048,3280.48
328128,3281.28
328206,3282.06
328286,3282.86
328368,3283.68
328449,3284.49
328530,3285.3
328608,3286.08
328687,3286.87
328763,3287.63
328839,3288.39
328913,3289.13
328985,3289.85
329056,3290.56
329130,3291.3
329204,3292.04
329281,3292.81
329356,3293.56
329433,3294.33
329508,3295.08
329583,3295.83
329660,3296.6
329738,3297.38
329816,3298.16
329894,3298.94
329970,3299.7
330049,3300.49
330130,3301.3
330209,3302.09
330286,3302.86
330361,3303.61
330437,3304.37
330514,3305.14
330591,3305.91
330665,3306.65
330740,3307.4
330818,3308.18
330897,3308.97
330977,3309.77
331055,3310.55
331133,3311.33
331212,3312.12
331292,3312.92
331371,3313.71
331449,3314.49
331527,3315.27
331606,3316.06
331686,3316.86
331762,3317.62
331836,3318.36
331909,3319.09
331984,3319.84
332063,3320.63
332140,3321.4
332217,3322.17
332292,3322.92
332368,3323.68
332445,3324.45
332519,3325.19
332592,3325.92
332666,3326.66
332740,3327.4
332815,3328.15
332888,3328.88
332963,3329.63
333040,3330.4
333117,3331.17
333196,3331.96
333273,3332.73
333351,3333.51
333430,3334.3
333510,3335.1
333590,3335.9
333670,3336.7
333749,3337.49
333826,3338.26
333900,3339.0
333974,3339.74
334046,3340.46
334117,3341.17
334187,3341.87
334257,3342.57
334328,3343.28
334399,3343.99
334471,3344.71
334542,3345.42
334615,3346.15
334687,3346.87
334762,3347.62
334838,3348.38
334917,3349.17
334996,3349.96
335075,3350.75
335154,3351.54
335234,3352.34
335310,3353.1
335386,3353.86
335462,3354.62
335537,3355.37
335611,3356.11
335689,3356.89
335768,3357.68
335850,3358.5
335932,3359.32
336013,3360.13
336093,3360.93
336178,3361.78
336261,3362.61
336346,3363.46
336428,3364.28
336510,3365.1
336587,3365.87
336666,3366.66
336745,3367.45
336823,3368.23
336902,3369.02
336981,3369.81
337061,3370.61
337142,3371.42
337224,3372.24
337301,3373.01
337379,3373.79
337459,3374.59
337539,3375.39
337621,3376.21
337700,3377.0
337782,3377.82
337865,3378.65
337949,3379.49
338035,3380.35
338119,3381.19
338198,3381.98
338279,3382.79
338359,3383.59
338440,3384.4
338519,3385.19
338596,3385.96
338670,3386.7
338744,3387.44
338818,3388.18
338895,3388.95
338974,3389.74
339052,3390.52
339130,3391.3
339208,3392.08
339287,3392.87
339367,3393.67
339445,3394.45
339524,3395.24
339604,3396.04
339689,3396.89
339774,3397.74
339855,3398.55
339935,3399.35
340017,3400.17
340101,3401.01
340185,3401.85
340269,3402.69
340351,3403.51
340431,3404.31
340511,3405.11
340586,3405.86
340660,3406.6
340734,3407.34
340811,3408.11
340888,3408.88
340965,3409.65
341042,3410.42
341122,3411.22
341201,3412.01
341278,3412.78
341354,3413.54
341430,3414.3
341506,3415.06
341579,3415.79
341651,3416.51
341725,3417.25
341799,3417.99
341873,3418.73
341948,3419.48
342023,3420.23
342100,3421.0
342177,3421.77
342255,3422.55
342331,3423.31
342406,3424.06
342482,3424.82
342557,3425.57
342632,3426.32
342705,3427.05
342778,3427.78
342851,3428.51
342923,3429.23
342994,3429.94
343064,3430.64
343134,3431.34
343204,3432.04
343275,3432.75
343348,3433.48
343420,3434.2
343493,3434.93
343566,3435.66
343641,3436.41
343717,3437.17
343792,3437.92
343867,3438.67
343942,3439.42
344017,3440.17
344093,3440.93
344169,3441.69
344246,3442.46
344322,3443.22
344397,3443.97
344471,3444.71
344547,3445.47
344621,3446.21
344695,3446.95
344766,3447.66
344837,3448.37
344908,3449.08
344979,3449.79
345052,3450.52
345126,3451.26
345199,3451.99
345272,3452.72
345345,3453.45
345419,3454.19
345495,3454.95
345571,3455.71
345645,3456.45
345719,3457.19
345794,3457.94
345869,3458.69
345946,3459.46
346025,3460.25
346102,3461.02
346179,3461.79
346258,3462.58
346335,3463.35
346412,3464.12
346485,3464.85
346557,3465.57
346630,3466.3
346703,3467.03
346777,3467.77
346854,3468.54
346935,3469.35
347024,3470.24
347109,3471.09
347193,3471.93
347275,3472.75
347359,3473.59
347449,3474.49
347539,3475.39
347621,3476.21
347702,3477.02
347785,3477.85
347865,3478.65
347941,3479.41
348018,3480.18
348095,3480.95
348175,3481.75
348255,3482.55
348336,3483.36
348417,3484.17
348498,3484.98
348583,3485.83
348667,3486.67
348754,3487.54
348841,3488.41
348924,3489.24
349008,3490.08
349092,3490.92
349176,3491.76
349258,3492.58
349338,3493.38
349418,3494.18
349497,3494.97
349573,3495.73
349647,3496.47
349719,3497.19
349791,3497.91
349867,3498.67
349949,3499.49
350032,3500.32
350120,3501.2
350204,3502.04
350293,3502.93
350378,3503.78
350461,3504.61
350544,3505.44
350624,3506.24
350701,3507.01
350777,3507.77
350852,3508.52
350926,3509.26
351003,3510.03
351080,3510.8
351157,3511.57
351232,3512.32
351307,3513.07
351381,3513.81
351456,3514.56
351532,3515.32
351609,3516.09
351685,3516.85
351761,3517.61
351836,3518.36
351913,3519.13
351993,3519.93
352071,3520.71
352147,3521.47
352224,3522.24
352301,3523.01
352381,3523.81
352461,3524.61
352540,3525.4
352618,3526.18
352696,3526.96
352773,3527.73
352852,3528.52
352928,3529.28
353004,3530.04
353079,3530.79
353155,3531.55
353232,3532.32
353310,3533.1
353388,3533.88
353466,3534.66
353543,3535.43
353620,3536.2
353698,3536.98
353775,3537.75
353849,3538.49
353922,3539.22
353995,3539.95
354069,3540.69
354145,3541.45
354221,3542.21
354298,3542.98
354373,3543.73
354450,3544.5
354531,3545.31
354612,3546.12
354692,3546.92
354772,3547.72
354851,3548.51
354932,3549.32
355015,3550.15
355098,3550.98
355178,3551.78
355259,3552.59
355338,3553.38
355417,3554.17
355496,3554.96
355573,3555.73
355648,3556.48
355722,3557.22
355795,3557.95
355866,3558.66
355940,3559.4
356016,3560.16
356091,3560.91
356168,3561.68
356245,3562.45
356328,3563.28
356410,3564.1
356495,3564.95
356578,3565.78
356660,3566.6
356743,3567.43
356827,3568.27
356911,3569.11
356994,3569.94
357076,3570.76
357158,3571.58
357239,3572.39
357321,3573.21
357398,3573.98
357473,3574.73
357547,3575.47
357619,3576.19
357691,3576.91
357762,3577.62
357833,3578.33
357904,3579.04
357976,3579.76
358050,3580.5
358125,3581.25
358200,3582.0
358274,3582.74
358349,3583.49
358428,3584.28
358507,3585.07
358588,3585.88
358670,3586.7
358750,3587.5
358831,3588.31
358912,3589.12
358993,3589.93
359074,3590.74
359154,3591.54
359230,3592.3
359303,3593.03
359375,3593.75
359447,3594.47
359520,3595.2
359594,3595.94
359668,3596.68
359742,3597.42
359817,3598.17
359895,3598.95
359976,3599.76
360058,3600.58
360139,3601.39
360220,3602.2
360303,3603.03
360388,3603.88
360473,3604.73
360557,3605.57
360639,3606.39
360722,3607.22
360807,3608.07
360893,3608.93
360976,3609.76
361056,3610.56
361131,3611.31
361204,3612.04
361276,3612.76
361350,3613.5
361429,3614.29
361508,3615.08
361585,3615.85
361663,3616.63
361746,3617.46
361832,3618.32
361918,3619.18
362002,3620.02
362083,3620.83
362168,3621.68
362254,3622.54
362338,3623.38
362419,3624.19
362500,3625.0
362582,3625.82
362666,3626.66
362752,3627.52
362836,3628.36
362917,3629.17
362996,3629.96
363073,3630.73
363150,3631.5
363224,3632.24
363297,3632.97
363369,3633.69
363443,3634.43
363524,3635.24
363610,3636.1
363691,3636.91
363771,3637.71
363856,3638.56
363943,3639.43
364033,3640.33
364121,3641.21
364206,3642.06
364290,3642.9
364375,3643.75
364462,3644.62
364551,3645.51
364635,3646.35
364717,3647.17
364796,3647.96
364873,3648.73
364948,3649.48
365022,3650.22
365096,3650.96
365171,3651.71
365249,3652.49
365329,3653.29
365410,3654.1
365493,3654.93
365576,3655.76
365657,3656.57
365742,3657.42
365830,3658.3
365916,3659.16
366002,3660.02
366089,3660.89
366167,3661.67
366244,3662.44
366320,3663.2
366392,3663.92
366465,3664.65
366545,3665.45
366628,3666.28
366711,3667.11
366787,3667.87
366864,3668.64
366944,3669.44
367026,3670.26
367108,3671.08
367188,3671.88
367266,3672.66
367343,3673.43
367419,3674.19
367494,3674.94
367568,3675.68
367641,3676.41
367714,3677.14
367789,3677.89
367865,3678.65
367939,3679.39
368014,3680.14
368090,3680.9
368164,3681.64
368237,3682.37
368308,3683.08
368377,3683.77
368446,3684.46
368514,3685.14
368581,3685.81
368649,3686.49
368717,3687.17
368784,3687.84
368851,3688.51
368918,3689.18
368986,3689.86
369056,3690.56
369124,3691.24
369193,3691.93
369263,3692.63
369334,3693.34
369403,3694.03
369474,3694.74
369545,3695.45
369616,3696.16
369688,3696.88
369760,3697.6
369832,3698.32
369903,3699.03
369976,3699.76
370048,3700.48
370119,3701.19
370190,3701.9
370260,3702.6
370332,3703.32
370403,3704.03
370473,3704.73
370543,3705.43
370614,3706.14
370685,3706.85
370757,3707.57
370828,3708.28
370900,3709.0
370972,3709.72
371042,3710.42
371113,3711.13
371182,3711.82
371251,3712.51
371320,3713.2
371387,3713.87
371454,3714.54
371519,3715.19
371583,3715.83
371648,3716.48
371712,3717.12
371777,3717.77
371834,3718.34
371892,3718.92
371966,3719.66
372029,3720.29
372093,3720.93
372160,3721.6
372228,3722.28
372300,3723.0
372376,3723.76
372453,3724.53
372534,3725.34
372613,3726.13
372692,3726.92
372771,3727.71
372849,3728.49
372925,3729.25
372998,3729.98
373073,3730.73
373147,3731.47
373221,3732.21
373295,3732.95
373368,3733.68
373442,3734.42
373516,3735.16
373590,3735.9
373664,3736.64
373737,3737.37
373811,3738.11
373883,3738.83
373955,3739.55
374027,3740.27
374097,3740.97
374166,3741.66
374235,3742.35
374303,3743.03
374371,3743.71
374439,3744.39
374507,3745.07
374579,3745.79
374652,3746.52
374728,3747.28
374805,3748.05
374880,3748.8
374953,3749.53
375028,3750.28
375100,3751.0
375171,3751.71
375241,3752.41
375309,3753.09
375376,3753.76
375443,3754.43
375509,3755.09
375574,3755.74
375640,3756.4
375705,3757.05
375772,3757.72
375840,3758.4
375910,3759.1
375982,3759.82
376057,3760.57
376131,3761.31
376206,3762.06
376280,3762.8
376356,3763.56
376432,3764.32
376507,3765.07
376581,3765.81
376655,3766.55
376730,3767.3
376806,3768.06
376881,3768.81
376955,3769.55
377029,3770.29
377105,3771.05
377182,3771.82
377257,3772.57
377331,3773.31
377405,3774.05
377480,3774.8
377554,3775.54
377627,3776.27
377699,3776.99
377772,3777.72
377844,3778.44
377917,3779.17
377990,3779.9
378061,3780.61
378133,3781.33
378206,3782.06
378278,3782.78
378349,3783.49
378420,3784.2
378491,3784.91
378562,3785.62
378634,3786.34
378706,3787.06
378777,3787.77
378848,3788.48
378919,3789.19
378991,3789.91
379061,3790.61
379132,3791.32
379204,3792.04
379277,3792.77
379353,3793.53
379429,3794.29
379503,3795.03
379578,3795.78
379655,3796.55
379733,3797.33
379810,3798.1
379887,3798.87
379966,3799.66
380045,3800.45
380122,3801.22
380199,3801.99
380277,3802.77
380356,3803.56
380433,3804.33
380510,3805.1
380586,3805.86
380665,3806.65
380744,3807.44
380821,3808.21
380895,3808.95
380969,3809.69
381042,3810.42
381116,3811.16
381189,3811.89
381261,3812.61
381335,3813.35
381410,3814.1
381486,3814.86
381565,3815.65
381644,3816.44
381724,3817.24
381807,3818.07
381890,3818.9
381970,3819.7
382049,3820.49
382126,3821.26
382205,3822.05
382285,3822.85
382363,3823.63
382440,3824.4
382516,3825.16
382591,3825.91
382666,3826.66
382744,3827.44
382824,3828.24
382903,3829.03
382981,3829.81
383058,3830.58
383136,3831.36
383213,3832.13
383290,3832.9
383364,3833.64
383437,3834.37
383510,3835.1
383583,3835.83
383657,3836.57
383732,3837.32
383806,3838.06
383880,3838.8
383954,3839.54
384029,3840.29
384104,3841.04
384181,3841.81
384255,3842.55
384330,3843.3
384403,3844.03
384478,3844.78
384553,3845.53
384627,3846.27
384701,3847.01
384774,3847.74
384848,3848.48
384923,3849.23
384998,3849.98
385072,3850.72
385147,3851.47
385223,3852.23
385301,3853.01
385379,3853.79
385458,3854.58
385537,3855.37
385616,3856.16
385696,3856.96
385776,3857.76
385857,3858.57
385938,3859.38
386015,3860.15
386090,3860.9
386164,3861.64
386239,3862.39
386312,3863.12
386385,3863.85
386459,3864.59
386533,3865.33
386611,3866.11
386694,3866.94
386777,3867.77
386859,3868.59
386937,3869.37
387016,3870.16
387097,3870.97
387178,3871.78
387261,3872.61
387340,3873.4
387420,3874.2
387502,3875.02
387584,3875.84
387663,3876.63
387739,3877.39
387812,3878.12
387886,3878.86
387961,3879.61
388038,3880.38
388116,3881.16
388192,3881.92
388268,3882.68
388346,3883.46
388425,3884.25
388505,3885.05
388582,3885.82
388657,3886.57
388733,3887.33
388808,3888.08
388884,3888.84
388958,3889.58
389031,3890.31
389105,3891.05
389179,3891.79
389254,3892.54
389330,3893.3
389404,3894.04
389479,3894.79
389556,3895.56
389635,3896.35
389715,3897.15
389797,3897.97
389878,3898.78
389957,3899.57
390036,3900.36
390116,3901.16
390197,3901.97
390277,3902.77
390357,3903.57
390435,3904.35
390514,3905.14
390601,3906.01
390688,3906.88
390769,3907.69
390846,3908.46
390921,3909.21
390997,3909.97
391071,3910.71
391142,3911.42
391216,3912.16
391298,3912.98
391380,3913.8
391465,3914.65
391547,3915.47
391627,3916.27
391707,3917.07
391792,3917.92
391877,3918.77
391965,3919.65
392050,3920.5
392132,3921.32
392212,3922.12
392293,3922.93
392376,3923.76
392457,3924.57
392536,3925.36
392617,3926.17
392695,3926.95
392771,3927.71
392851,3928.51
392933,3929.33
393017,3930.17
393100,3931.0
393180,3931.8
393259,3932.59
393339,3933.39
393419,3934.19
393497,3934.97
393574,3935.74
393654,3936.54
393736,3937.36
393821,3938.21
393905,3939.05
393989,3939.89
394072,3940.72
394158,3941.58
394245,3942.45
394333,3943.33
394419,3944.19
394501,3945.01
394582,3945.82
394663,3946.63
394745,3947.45
394827,3948.27
394906,3949.06
394983,3949.83
395057,3950.57
395131,3951.31
395208,3952.08
395288,3952.88
395369,3953.69
395449,3954.49
395528,3955.28
395610,3956.1
395695,3956.95
395781,3957.81
395866,3958.66
395950,3959.5
396035,3960.35
396122,3961.22
396204,3962.04
396284,3962.84
396366,3963.66
396447,3964.47
396531,3965.31
396616,3966.16
396699,3966.99
396782,3967.82
396863,3968.63
396943,3969.43
397022,3970.22
397098,3970.98
397173,3971.73
397247,3972.47
397325,3973.25
397407,3974.07
397490,3974.9
397571,3975.71
397651,3976.51
397733,3977.33
397816,3978.16
397899,3978.99
397980,3979.8
398058,3980.58
398134,3981.34
398212,3982.12
398292,3982.92
398372,3983.72
398451,3984.51
398530,3985.3
398608,3986.08
398687,3986.87
398767,3987.67
398847,3988.47
398925,3989.25
399001,3990.01
399078,3990.78
399155,3991.55
399232,3992.32
399311,3993.11
399388,3993.88
399462,3994.62
399535,3995.35
399607,3996.07
399679,3996.79
399751,3997.51
399821,3998.21
399892,3998.92
399963,3999.63
400035,4000.35
400106,4001.06
400176,4001.76
400246,4002.46
400316,4003.16
400387,4003.87
400459,4004.59
400532,4005.32
400607,4006.07
400685,4006.85
400765,4007.65
400849,4008.49
400931,4009.31
401013,4010.13
401106,4011.06
401198,4011.98
401292,4012.92
401384,4013.84
401464,4014.64
401541,4015.41
401617,4016.17
401689,4016.89
401762,4017.62
401842,4018.42
401927,4019.27
402011,4020.11
402094,4020.94
402176,4021.76
402256,4022.56
402340,4023.4
402426,4024.26
402514,4025.14
402602,4026.02
402688,4026.88
402772,4027.72
402855,4028.55
402938,4029.38
403023,4030.23
403108,4031.08
403188,4031.88
403265,4032.65
403340,4033.4
403413,4034.13
403486,4034.86
403561,4035.61
403639,4036.39
403719,4037.19
403798,4037.98
403877,4038.77
403959,4039.59
404043,4040.43
404129,4041.29
404214,4042.14
404297,4042.97
404377,4043.77
404460,4044.6
404543,4045.43
404626,4046.26
404707,4047.07
404788,4047.88
404871,4048.71
404956,4049.56
405036,4050.36
405112,4051.12
405187,4051.87
405260,4052.6
405335,4053.35
405412,4054.12
405489,4054.89
405565,4055.65
405640,4056.4
405718,4057.18
405799,4057.99
405884,4058.84
405969,4059.69
406053,4060.53
406135,4061.35
406219,4062.19
406303,4063.03
406385,4063.85
406466,4064.66
406547,4065.47
406629,4066.29
406708,4067.08
406785,4067.85
406859,4068.59
406931,4069.31
407002,4070.02
407074,4070.74
407151,4071.51
407237,4072.37
407321,4073.21
407406,4074.06
407491,4074.91
407570,4075.7
407651,4076.51
407734,4077.34
407820,4078.2
407904,4079.04
407987,4079.87
408071,4080.71
408157,4081.57
408242,4082.42
408325,4083.25
408406,4084.06
408488,4084.88
408566,4085.66
408642,4086.42
408714,4087.14
408787,4087.87
408859,4088.59
408933,4089.33
409009,4090.09
409083,4090.83
409157,4091.57
409232,4092.32
409308,4093.08
409387,4093.87
409467,4094.67
409545,4095.45
409623,4096.23
409703,4097.03
409783,4097.83
409863,4098.63
409941,4099.41
410017,4100.17
410093,4100.93
410171,4101.71
410249,4102.49
410326,4103.26
410403,4104.03
410481,4104.81
410557,4105.57
410633,4106.33
410707,4107.07
410779,4107.79
410851,4108.51
410927,4109.27
411005,4110.05
411083,4110.83
411160,4111.6
411237,4112.37
411320,4113.2
411407,4114.07
411494,4114.94
411583,4115.83
411674,4116.74
411761,4117.61
411845,4118.45
411928,4119.28
412011,4120.11
412094,4120.94
412179,4121.79
412261,4122.61
412342,4123.42
412425,4124.25
412507,4125.07
412589,4125.89
412669,4126.69
412748,4127.48
412826,4128.26
412901,4129.01
412974,4129.74
413046,4130.46
413118,4131.18
413189,4131.89
413263,4132.63
413342,4133.42
413425,4134.25
413505,4135.05
413583,4135.83
413663,4136.63
413744,4137.44
413821,4138.21
413897,4138.97
413973,4139.73
414048,4140.48
414123,4141.23
414198,4141.98
414274,4142.74
414350,4143.5
414426,4144.26
414501,4145.01
414571,4145.71
414643,4146.43
414713,4147.13
414781,4147.81
414848,4148.48
414914,4149.14
414980,4149.8
415047,4150.47
415113,4151.13
415179,4151.79
415245,4152.45
415314,4153.14
415384,4153.84
415457,4154.57
415533,4155.33
415617,4156.17
415707,4157.07
415799,4157.99
415889,4158.89
415977,4159.77
416063,4160.63
416153,4161.53
416247,4162.47
416343,4163.43
416439,4164.39
416529,4165.29
416609,4166.09
416690,4166.9
416767,4167.67
416845,4168.45
416920,4169.2
416996,4169.96
417075,4170.75
417155,4171.55
417230,4172.3
417306,4173.06
417384,4173.84
417461,4174.61
417539,4175.39
417615,4176.15
417691,4176.91
417768,4177.68
417845,4178.45
417922,4179.22
417998,4179.98
418073,4180.73
418148,4181.48
418224,4182.24
418298,4182.98
418371,4183.71
418445,4184.45
418517,4185.17
418589,4185.89
418661,4186.61
418732,4187.32
418804,4188.04
418875,4188.75
418945,4189.45
419016,4190.16
419087,4190.87
419160,4191.6
419233,4192.33
419308,4193.08
419382,4193.82
419456,4194.56
419531,4195.31
419608,4196.08
419686,4196.86
419765,4197.65
419843,4198.43
419922,4199.22
420002,4200.02
420084,4200.84
420168,4201.68
420250,4202.5
420332,4203.32
420412,4204.12
420490,4204.9
420566,4205.66
420641,4206.41
420714,4207.14
420787,4207.87
420860,4208.6
420932,4209.32
421004,4210.04
421079,4210.79
421152,4211.52
421225,4212.25
421299,4212.99
421373,4213.73
421448,4214.48
421521,4215.21
421593,4215.93
421664,4216.64
421735,4217.35
421807,4218.07
421878,4218.78
421949,4219.49
422020,4220.2
422091,4220.91
422163,4221.63
422235,4222.35
422306,4223.06
422379,4223.79
422450,4224.5
422521,4225.21
422593,4225.93
422665,4226.65
422736,4227.36
422806,4228.06
422877,4228.77
422947,4229.47
423017,4230.17
423089,4230.89
423162,4231.62
423235,4232.35
423308,4233.08
423382,4233.82
423457,4234.57
423529,4235.29
423600,4236.0
423671,4236.71
423742,4237.42
423811,4238.11
423880,4238.8
423948,4239.48
424015,4240.15
424082,4240.82
424149,4241.49
424216,4242.16
424283,4242.83
424351,4243.51
424420,4244.2
424488,4244.88
424555,4245.55
424623,4246.23
424689,4246.89
424755,4247.55
424821,4248.21
424886,4248.86
424952,4249.52
425016,4250.16
425079,4250.79
425142,4251.42
425206,4252.06
425271,4252.71
425338,4253.38
425408,4254.08
425479,4254.79
425554,4255.54
425630,4256.3
425709,4257.09
425788,4257.88
425869,4258.69
425949,4259.49
426026,4260.26
426103,4261.03
426178,4261.78
426252,4262.52
426326,4263.26
426399,4263.99
426472,4264.72
426546,4265.46
426619,4266.19
426692,4266.92
426765,4267.65
426837,4268.37
426907,4269.07
426978,4269.78
427048,4270.48
427118,4271.18
427189,4271.89
427260,4272.6
427329,4273.29
427399,4273.99
427469,4274.69
427538,4275.38
427606,4276.06
427673,4276.73
427741,4277.41
427809,4278.09
427877,4278.77
427947,4279.47
428017,4280.17
428090,4280.9
428164,4281.64
428237,4282.37
428311,4283.11
428383,4283.83
428456,4284.56
428527,4285.27
428599,4285.99
428669,4286.69
428739,4287.39
428809,4288.09
428879,4288.79
428949,4289.49
429019,4290.19
429089,4290.89
429158,4291.58
429226,4292.26
429292,4292.92
429358,4293.58
429423,4294.23
429487,4294.87
429551,4295.51
429615,4296.15
429679,4296.79
429743,4297.43
429808,4298.08
429875,4298.75
429943,4299.43
430012,4300.12
430082,4300.82
430154,4301.54
430230,4302.3
430305,4303.05
430382,4303.82
430458,4304.58
430533,4305.33
430609,4306.09
430684,4306.84
430758,4307.58
430831,4308.31
430904,4309.04
430977,4309.77
431050,4310.5
431123,4311.23
431197,4311.97
431270,4312.7
431343,4313.43
431416,4314.16
431491,4314.91
431566,4315.66
431641,4316.41
431715,4317.15
431788,4317.88
431861,4318.61
431935,4319.35
432008,4320.08
432081,4320.81
432155,4321.55
432229,4322.29
432303,4323.03
432378,4323.78
432453,4324.53
432528,4325.28
432602,4326.02
432678,4326.78
432754,4327.54
432831,4328.31
432909,4329.09
432986,4329.86
433064,4330.64
433143,4331.43
433222,4332.22
433300,4333.0
433378,4333.78
433456,4334.56
433535,4335.35
433614,4336.14
433692,4336.92
433769,4337.69
433845,4338.45
433922,4339.22
433999,4339.99
434077,4340.77
434154,4341.54
434232,4342.32
434309,4343.09
434388,4343.88
434468,4344.68
434547,4345.47
434625,4346.25
434703,4347.03
434781,4347.81
434860,4348.6
434937,4349.37
435014,4350.14
435090,4350.9
435166,4351.66
435242,4352.42
435318,4353.18
435398,4353.98
435479,4354.79
435558,4355.58
435637,4356.37
435716,4357.16
435794,4357.94
435870,4358.7
435946,4359.46
436022,4360.22
436099,4360.99
436174,4361.74
436247,4362.47
436320,4363.2
436393,4363.93
436465,4364.65
436536,4365.36
436607,4366.07
436678,4366.78
436750,4367.5
436825,4368.25
436900,4369.0
436976,4369.76
437052,4370.52
437129,4371.29
437207,4372.07
437286,4372.86
437364,4373.64
437444,4374.44
437523,4375.23
437603,4376.03
437685,4376.85
437766,4377.66
437846,4378.46
437926,4379.26
438006,4380.06
438086,4380.86
438167,4381.67
438250,4382.5
438331,4383.31
438411,4384.11
438490,4384.9
438571,4385.71
438652,4386.52
438733,4387.33
438816,4388.16
438898,4388.98
438982,4389.82
439067,4390.67
439150,4391.5
439231,4392.31
439311,4393.11
439390,4393.9
439470,4394.7
439550,4395.5
439631,4396.31
439711,4397.11
439790,4397.9
439869,4398.69
439949,4399.49
440032,4400.32
440114,4401.14
440198,4401.98
440279,4402.79
440360,4403.6
440442,4404.42
440524,4405.24
440605,4406.05
440685,4406.85
440764,4407.64
440842,4408.42
440922,4409.22
441002,4410.02
441081,4410.81
441160,4411.6
441238,4412.38
441318,4413.18
441398,4413.98
441478,4414.78
441557,4415.57
441636,4416.36
441716,4417.16
441796,4417.96
441876,4418.76
441955,4419.55
442034,4420.34
442112,4421.12
442191,4421.91
442270,4422.7
442350,4423.5
442428,4424.28
442505,4425.05
442584,4425.84
442663,4426.63
442740,4427.4
442819,4428.19
442897,4428.97
442978,4429.78
443060,4430.6
443140,4431.4
443220,4432.2
443300,4433.0
443381,4433.81
443462,4434.62
443542,4435.42
443619,4436.19
443697,4436.97
443773,4437.73
443851,4438.51
443928,4439.28
444006,4440.06
444083,4440.83
444163,4441.63
444246,4442.46
444331,4443.31
444415,4444.15
444498,4444.98
444580,4445.8
444664,4446.64
444749,4447.49
444832,4448.32
444914,4449.14
444995,4449.95
445077,4450.77
445160,4451.6
445243,4452.43
445326,4453.26
445407,4454.07
445486,4454.86
445565,4455.65
445645,4456.45
445727,4457.27
445810,4458.1
445892,4458.92
445972,4459.72
446052,4460.52
446133,4461.33
446215,4462.15
446298,4462.98
446379,4463.79
446460,4464.6
446541,4465.41
446622,4466.22
446704,4467.04
446786,4467.86
446866,4468.66
446946,4469.46
447024,4470.24
447103,4471.03
447184,4471.84
447266,4472.66
447346,4473.46
447427,4474.27
447508,4475.08
447588,4475.88
447670,4476.7
447752,4477.52
447831,4478.31
447911,4479.11
447990,4479.9
448070,4480.7
448152,4481.52
448237,4482.37
448320,4483.2
448402,4484.02
448485,4484.85
448567,4485.67
448651,4486.51
448735,4487.35
448817,4488.17
448899,4488.99
448979,4489.79
449062,4490.62
449144,4491.44
449227,4492.27
449309,4493.09
449389,4493.89
449469,4494.69
449550,4495.5
449632,4496.32
449714,4497.14
449795,4497.95
449875,4498.75
449956,4499.56
450038,4500.38
450120,4501.2
450202,4502.02
450283,4502.83
450364,4503.64
450445,4504.45
450528,4505.28
450611,4506.11
450696,4506.96
450781,4507.81
450864,4508.64
450945,4509.45
451025,4510.25
451107,4511.07
451189,4511.89
451273,4512.73
451354,4513.54
451435,4514.35
451515,4515.15
451599,4515.99
451683,4516.83
451768,4517.68
451850,4518.5
451933,4519.33
452015,4520.15
452100,4521.0
452186,4521.86
452271,4522.71
452355,4523.55
452436,4524.36
452517,4525.17
452600,4526.0
452686,4526.86
452773,4527.73
452858,4528.58
452940,4529.4
453022,4530.22
453104,4531.04
453188,4531.88
453274,4532.74
453356,4533.56
453439,4534.39
453521,4535.21
453604,4536.04
453684,4536.84
453767,4537.67
453847,4538.47
453927,4539.27
454009,4540.09
454093,4540.93
454176,4541.76
454258,4542.58
454339,4543.39
454419,4544.19
454501,4545.01
454583,4545.83
454663,4546.63
454742,4547.42
454821,4548.21
454899,4548.99
454978,4549.78
455059,4550.59
455139,4551.39
455220,4552.2
455301,4553.01
455383,4553.83
455465,4554.65
455547,4555.47
455628,4556.28
455708,4557.08
455788,4557.88
455869,4558.69
455953,4559.53
456036,4560.36
456118,4561.18
456200,4562.0
456282,4562.82
456367,4563.67
456452,4564.52
456538,4565.38
456622,4566.22
456703,4567.03
456785,4567.85
456869,4568.69
456957,4569.57
457046,4570.46
457134,4571.34
457222,4572.22
457312,4573.12
457403,4574.03
457492,4574.92
457578,4575.78
457658,4576.58
457737,4577.37
457816,4578.16
457896,4578.96
457974,4579.74
458052,4580.52
458130,4581.3
458208,4582.08
458285,4582.85
458363,4583.63
458442,4584.42
458523,4585.23
458602,4586.02
458682,4586.82
458763,4587.63
458843,4588.43
458924,4589.24
459004,4590.04
459083,4590.83
459161,4591.61
459239,4592.39
459318,4593.18
459398,4593.98
459479,4594.79
459557,4595.57
459636,4596.36
459714,4597.14
459790,4597.9
459868,4598.68
459953,4599.53
460039,4600.39
460119,4601.19
460198,4601.98
460276,4602.76
460352,4603.52
460427,4604.27
460500,4605.0
460572,4605.72
460643,4606.43
460713,4607.13
460783,4607.83
460852,4608.52
460921,4609.21
460989,4609.89
461058,4610.58
461125,4611.25
461192,4611.92
461258,4612.58
461324,4613.24
461389,4613.89
461455,4614.55
461521,4615.21
461586,4615.86
461653,4616.53
461717,4617.17
461782,4617.82
461859,4618.59
461929,4619.29
461998,4619.98
462068,4620.68
462137,4621.37
462205,4622.05
462274,4622.74
462343,4623.43
462412,4624.12
462482,4624.82
462551,4625.51
462621,4626.21
462691,4626.91
462763,4627.63
462835,4628.35
462909,4629.09
462983,4629.83
463059,4630.59
463135,4631.35
463211,4632.11
463286,4632.86
463361,4633.61
463438,4634.38
463513,4635.13
463589,4635.89
463666,4636.66
463743,4637.43
463818,4638.18
463893,4638.93
463968,4639.68
464046,4640.46
464127,4641.27
464208,4642.08
464286,4642.86
464362,4643.62
464436,4644.36
464508,4645.08
464579,4645.79
464649,4646.49
464719,4647.19
464789,4647.89
464861,4648.61
464934,4649.34
465008,4650.08
465085,4650.85
465164,4651.64
465242,4652.42
465320,4653.2
465399,4653.99
465479,4654.79
465559,4655.59
465641,4656.41
465722,4657.22
465803,4658.03
465885,4658.85
465968,4659.68
466051,4660.51
466134,4661.34
466213,4662.13
466292,4662.92
466371,4663.71
466453,4664.53
466535,4665.35
466617,4666.17
466697,4666.97
466778,4667.78
466857,4668.57
466937,4669.37
467018,4670.18
467100,4671.0
467182,4671.82
467262,4672.62
467342,4673.42
467423,4674.23
467503,4675.03
467582,4675.82
467661,4676.61
467739,4677.39
467816,4678.16
467895,4678.95
467975,4679.75
468054,4680.54
468133,4681.33
468212,4682.12
468292,4682.92
468371,4683.71
468451,4684.51
468531,4685.31
468609,4686.09
468688,4686.88
468767,4687.67
468847,4688.47
468929,4689.29
469009,4690.09
469089,4690.89
469170,4691.7
469250,4692.5
469332,4693.32
469414,4694.14
469496,4694.96
469577,4695.77
469657,4696.57
469737,4697.37
469819,4698.19
469901,4699.01
469982,4699.82
470061,4700.61
470140,4701.4
470220,4702.2
470301,4703.01
470382,4703.82
470463,4704.63
470543,4705.43
470623,4706.23
470705,4707.05
470787,4707.87
470871,4708.71
470954,4709.54
471036,4710.36
471118,4711.18
471198,4711.98
471280,4712.8
471363,4713.63
471447,4714.47
471528,4715.28
471610,4716.1
471690,4716.9
471770,4717.7
471851,4718.51
471932,4719.32
472014,4720.14
472097,4720.97
472177,4721.77
472257,4722.57
472337,4723.37
472418,4724.18
472501,4725.01
472583,4725.83
472664,4726.64
472745,4727.45
472825,4728.25
472906,4729.06
472988,4729.88
473071,4730.71
473153,4731.53
473235,4732.35
473315,4733.15
473396,4733.96
473478,4734.78
473560,4735.6
473640,4736.4
473720,4737.2
473800,4738.0
473880,4738.8
473961,4739.61
474039,4740.39
474116,4741.16
474193,4741.93
474272,4742.72
474350,4743.5
474430,4744.3
474509,4745.09
474588,4745.88
474667,4746.67
474746,4747.46
474827,4748.27
474907,4749.07
474986,4749.86
475066,4750.66
475147,4751.47
475229,4752.29
475312,4753.12
475394,4753.94
475477,4754.77
475559,4755.59
475640,4756.4
475722,4757.22
475805,4758.05
475887,4758.87
475969,4759.69
476050,4760.5
476130,4761.3
476213,4762.13
476296,4762.96
476378,4763.78
476461,4764.61
476546,4765.46
476631,4766.31
476717,4767.17
476801,4768.01
476884,4768.84
476968,4769.68
477050,4770.5
477134,4771.34
477220,4772.2
477304,4773.04
477387,4773.87
477471,4774.71
477554,4775.54
477637,4776.37
477718,4777.18
477797,4777.97
477875,4778.75
477953,4779.53
478032,4780.32
478111,4781.11
478190,4781.9
478268,4782.68
478347,4783.47
478429,4784.29
478511,4785.11
478594,4785.94
478675,4786.75
478757,4787.57
478838,4788.38
478919,4789.19
478999,4789.99
479079,4790.79
479159,4791.59
479239,4792.39
479318,4793.18
479400,4794.0
479480,4794.8
479559,4795.59
479638,4796.38
479718,4797.18
479798,4797.98
479879,4798.79
479961,4799.61
480042,4800.42
480123,4801.23
480204,4802.04
480284,4802.84
480366,4803.66
480446,4804.46
480525,4805.25
480606,4806.06
480689,4806.89
480774,4807.74
480856,4808.56
480938,4809.38
481021,4810.21
481105,4811.05
481188,4811.88
481269,4812.69
481351,4813.51
481432,4814.32
481514,4815.14
481597,4815.97
481679,4816.79
481759,4817.59
481838,4818.38
481918,4819.18
481999,4819.99
482081,4820.81
482162,4821.62
482243,4822.43
482324,4823.24
482406,4824.06
482491,4824.91
482576,4825.76
482659,4826.59
482742,4827.42
482825,4828.25
482908,4829.08
482989,4829.89
483071,4830.71
483155,4831.55
483239,4832.39
483324,4833.24
483409,4834.09
483494,4834.94
483576,4835.76
483659,4836.59
483746,4837.46
483836,4838.36
483923,4839.23
484005,4840.05
484087,4840.87
484169,4841.69
484248,4842.48
484323,4843.23
484399,4843.99
484475,4844.75
484551,4845.51
484628,4846.28
484707,4847.07
484788,4847.88
484871,4848.71
484956,4849.56
485041,4850.41
485124,4851.24
485208,4852.08
485292,4852.92
485378,4853.78
485461,4854.61
485545,4855.45
485627,4856.27
485709,4857.09
485791,4857.91
485871,4858.71
485952,4859.52
486034,4860.34
486117,4861.17
486201,4862.01
486285,4862.85
486371,4863.71
486457,4864.57
486540,4865.4
486625,4866.25
486715,4867.15
486806,4868.06
486893,4868.93
486975,4869.75
487061,4870.61
487145,4871.45
487229,4872.29
487311,4873.11
487393,4873.93
487479,4874.79
487567,4875.67
487653,4876.53
487737,4877.37
487819,4878.19
487901,4879.01
487984,4879.84
488068,4880.68
488151,4881.51
488233,4882.33
488315,4883.15
488398,4883.98
488480,4884.8
488562,4885.62
488643,4886.43
488725,4887.25
488807,4888.07
488889,4888.89
488967,4889.67
489045,4890.45
489121,4891.21
489197,4891.97
489274,4892.74
489351,4893.51
489426,4894.26
489503,4895.03
489581,4895.81
489659,4896.59
489738,4897.38
489819,4898.19
489903,4899.03
489988,4899.88
490075,4900.75
490163,4901.63
490251,4902.51
490338,4903.38
490424,4904.24
490511,4905.11
490597,4905.97
490682,4906.82
490764,4907.64
490847,4908.47
490930,4909.3
491013,4910.13
491099,4910.99
491189,4911.89
491279,4912.79
491367,4913.67
491450,4914.5
491532,4915.32
491616,4916.16
491700,4917.0
491778,4917.78
491858,4918.58
491937,4919.37
492017,4920.17
492096,4920.96
492175,4921.75
492253,4922.53
492329,4923.29
492406,4924.06
492487,4924.87
492568,4925.68
492649,4926.49
492734,4927.34
492821,4928.21
492911,4929.11
493000,4930.0
493087,4930.87
493174,4931.74
493260,4932.6
493345,4933.45
493430,4934.3
493514,4935.14
493599,4935.99
493686,4936.86
493777,4937.77
493868,4938.68
493959,4939.59
494052,4940.52
494139,4941.39
494222,4942.22
494306,4943.06
494388,4943.88
494468,4944.68
494548,4945.48
494626,4946.26
494703,4947.03
494782,4947.82
494861,4948.61
494942,4949.42
495023,4950.23
495105,4951.05
495186,4951.86
495270,4952.7
495355,4953.55
495441,4954.41
495527,4955.27
495612,4956.12
495696,4956.96
495782,4957.82
495868,4958.68
495954,4959.54
496039,4960.39
496122,4961.22
496207,4962.07
496293,4962.93
496380,4963.8
496467,4964.67
496553,4965.53
496640,4966.4
496727,4967.27
496821,4968.21
496917,4969.17
497010,4970.1
497097,4970.97
497182,4971.82
497269,4972.69
497360,4973.6
497443,4974.43
497524,4975.24
497604,4976.04
497682,4976.82
497759,4977.59
497843,4978.43
497929,4979.29
498015,4980.15
498100,4981.0
498185,4981.85
498269,4982.69
498352,4983.52
498435,4984.35
498518,4985.18
498601,4986.01
498683,4986.83
498766,4987.66
498849,4988.49
498934,4989.34
499019,4990.19
499104,4991.04
499189,4991.89
499274,4992.74
499359,4993.59
499443,4994.43
499526,4995.26
499608,4996.08
499687,4996.87
499766,4997.66
499849,4998.49
499934,4999.34
500017,5000.17
500101,5001.01
500191,5001.91
500281,5002.81
500372,5003.72
500458,5004.58
500544,5005.44
500631,5006.31
500717,5007.17
500802,5008.02
500886,5008.86
500970,5009.7
501057,5010.57
501144,5011.44
501233,5012.33
501320,5013.2
501406,5014.06
501493,5014.93
501580,5015.8
501667,5016.67
501756,5017.56
501843,5018.43
501928,5019.28
502009,5020.09
502089,5020.89
502172,5021.72
502261,5022.61
502350,5023.5
502436,5024.36
502526,5025.26
502618,5026.18
502712,5027.12
502803,5028.03
502891,5028.91
502980,5029.8
503070,5030.7
503160,5031.6
503249,5032.49
503336,5033.36
503422,5034.22
503511,5035.11
503606,5036.06
503701,5037.01
503794,5037.94
503883,5038.83
503974,5039.74
504065,5040.65
504155,5041.55
504241,5042.41
504323,5043.23
504402,5044.02
504483,5044.83
504575,5045.75
504669,5046.69
504763,5047.63
504852,5048.52
504939,5049.39
505029,5050.29
505124,5051.24
505216,5052.16
505305,5053.05
505394,5053.94
505486,5054.86
505578,5055.78
505670,5056.7
505760,5057.6
505848,5058.48
505939,5059.39
506034,5060.34
506127,5061.27
506222,5062.22
506314,5063.14
506401,5064.01
506485,5064.85
506571,5065.71
506660,5066.6
506745,5067.45
506827,5068.27
506909,5069.09
507005,5070.05
507107,5071.07
507210,5072.1
507295,5072.95
507381,5073.81
507475,5074.75
507570,5075.7
507664,5076.64
507760,5077.6
507858,5078.58
507952,5079.52
508045,5080.45
508141,5081.41
508234,5082.34
508327,5083.27
508417,5084.17
508503,5085.03
508595,5085.95
508684,5086.84
508769,5087.69
508853,5088.53
508937,5089.37
509021,5090.21
509104,5091.04
509188,5091.88
509270,5092.7
509351,5093.51
509437,5094.37
509527,5095.27
509616,5096.16
509702,5097.02
509784,5097.84
509868,5098.68
509953,5099.53
510034,5100.34
510116,5101.16
510197,5101.97
510283,5102.83
510373,5103.73
510462,5104.62
510549,5105.49
510636,5106.36
510727,5107.27
510820,5108.2
510907,5109.07
510989,5109.89
511068,5110.68
511145,5111.45
511226,5112.26
511309,5113.09
511391,5113.91
511471,5114.71
511555,5115.55
511646,5116.46
511738,5117.38
511826,5118.26
511911,5119.11
511998,5119.98
512084,5120.84
512168,5121.68
512255,5122.55
512345,5123.45
512437,5124.37
512525,5125.25
512610,5126.1
512696,5126.96
512785,5127.85
512871,5128.71
512952,5129.52
513032,5130.32
513115,5131.15
513214,5132.14
513307,5133.07
513399,5133.99
513488,5134.88
513571,5135.71
513656,5136.56
513740,5137.4
513818,5138.18
513898,5138.98
513982,5139.82
514066,5140.66
514149,5141.49
514228,5142.28
514309,5143.09
514393,5143.93
514479,5144.79
514564,5145.64
514647,5146.47
514730,5147.3
514819,5148.19
514908,5149.08
514998,5149.98
515086,5150.86
515171,5151.71
515258,5152.58
515348,5153.48
515440,5154.4
515530,5155.3
515614,5156.14
515692,5156.92
515770,5157.7
515846,5158.46
515922,5159.22
516001,5160.01
516083,5160.83
516166,5161.66
516249,5162.49
516330,5163.3
516418,5164.18
516511,5165.11
516601,5166.01
516688,5166.88
516773,5167.73
516859,5168.59
516947,5169.47
517034,5170.34
517121,5171.21
517206,5172.06
517290,5172.9
517379,5173.79
517466,5174.66
517548,5175.48
517629,5176.29
517707,5177.07
517786,5177.86
517872,5178.72
517955,5179.55
518036,5180.36
518120,5181.2
518205,5182.05
518287,5182.87
518365,5183.65
518441,5184.41
518516,5185.16
518594,5185.94
518674,5186.74
518759,5187.59
518843,5188.43
518930,5189.3
519018,5190.18
519107,5191.07
519199,5191.99
519292,5192.92
519382,5193.82
519467,5194.67
519553,5195.53
519639,5196.39
519726,5197.26
519812,5198.12
519898,5198.98
519983,5199.83
520067,5200.67
520149,5201.49
520231,5202.31
520317,5203.17
520402,5204.02
520482,5204.82
520563,5205.63
520648,5206.48
520733,5207.33
520813,5208.13
520895,5208.95
520979,5209.79
521066,5210.66
521150,5211.5
521233,5212.33
521317,5213.17
521402,5214.02
521488,5214.88
521573,5215.73
521656,5216.56
521741,5217.41
521829,5218.29
521917,5219.17
522004,5220.04
522094,5220.94
522180,5221.8
522264,5222.64
522352,5223.52
522442,5224.42
522534,5225.34
522627,5226.27
522717,5227.17
522801,5228.01
522883,5228.83
522966,5229.66
523053,5230.53
523141,5231.41
523231,5232.31
523316,5233.16
523399,5233.99
523484,5234.84
523570,5235.7
523653,5236.53
523736,5237.36
523820,5238.2
523904,5239.04
523990,5239.9
524074,5240.74
524156,5241.56
524239,5242.39
524320,5243.2
524401,5244.01
524479,5244.79
524557,5245.57
524636,5246.36
524725,5247.25
524811,5248.11
524900,5249.0
524981,5249.81
525062,5250.62
525146,5251.46
525230,5252.3
525314,5253.14
525395,5253.95
525477,5254.77
525562,5255.62
525651,5256.51
525742,5257.42
525830,5258.3
525919,5259.19
526011,5260.11
526101,5261.01
526191,5261.91
526274,5262.74
526354,5263.54
526433,5264.33
526511,5265.11
526588,5265.88
526663,5266.63
526741,5267.41
526817,5268.17
526895,5268.95
526975,5269.75
527060,5270.6
527145,5271.45
527232,5272.32
527315,5273.15
527398,5273.98
527482,5274.82
527567,5275.67
527652,5276.52
527738,5277.38
527823,5278.23
527910,5279.1
527995,5279.95
528075,5280.75
528148,5281.48
528223,5282.23
528297,5282.97
528370,5283.7
528445,5284.45
528519,5285.19
528593,5285.93
528667,5286.67
528739,5287.39
528811,5288.11
528887,5288.87
528967,5289.67
529050,5290.5
529134,5291.34
529221,5292.21
529311,5293.11
529401,5294.01
529493,5294.93
529583,5295.83
529671,5296.71
529758,5297.58
529845,5298.45
529930,5299.3
530013,5300.13
530095,5300.95
530179,5301.79
530260,5302.6
530337,5303.37
530418,5304.18
530497,5304.97
530577,5305.77
530655,5306.55
530734,5307.34
530814,5308.14
530894,5308.94
530975,5309.75
531061,5310.61
531151,5311.51
531241,5312.41
531332,5313.32
531424,5314.24
531514,5315.14
531606,5316.06
531696,5316.96
531784,5317.84
531869,5318.69
531956,5319.56
532046,5320.46
532131,5321.31
532211,5322.11
532290,5322.9
532366,5323.66
532441,5324.41
532517,5325.17
532598,5325.98
532679,5326.79
532761,5327.61
532843,5328.43
532930,5329.3
533019,5330.19
533107,5331.07
533191,5331.91
533274,5332.74
533354,5333.54
533436,5334.36
533518,5335.18
533599,5335.99
533682,5336.82
533771,5337.71
533863,5338.63
533955,5339.55
534041,5340.41
534125,5341.25
534205,5342.05
534284,5342.84
534359,5343.59
534432,5344.32
534508,5345.08
534583,5345.83
534655,5346.55
534736,5347.36
534815,5348.15
534894,5348.94
534970,5349.7
535045,5350.45
535119,5351.19
535193,5351.93
535268,5352.68
535344,5353.44
535419,5354.19
535495,5354.95
535574,5355.74
535655,5356.55
535738,5357.38
535822,5358.22
535905,5359.05
535987,5359.87
536068,5360.68
536149,5361.49
536229,5362.29
536309,5363.09
536389,5363.89
536466,5364.66
536543,5365.43
536617,5366.17
536690,5366.9
536763,5367.63
536836,5368.36
536911,5369.11
536989,5369.89
537066,5370.66
537145,5371.45
537226,5372.26
537309,5373.09
537397,5373.97
537486,5374.86
537575,5375.75
537659,5376.59
537741,5377.41
537822,5378.22
537906,5379.06
537989,5379.89
538069,5380.69
538149,5381.49
538230,5382.3
538308,5383.08
538383,5383.83
538457,5384.57
538531,5385.31
538609,5386.09
538689,5386.89
538767,5387.67
538849,5388.49
538936,5389.36
539024,5390.24
539107,5391.07
539190,5391.9
539276,5392.76
539362,5393.62
539446,5394.46
539530,5395.3
539611,5396.11
539690,5396.9
539766,5397.66
539841,5398.41
539915,5399.15
539987,5399.87
540059,5400.59
540132,5401.32
540206,5402.06
540282,5402.82
540362,5403.62
540443,5404.43
540525,5405.25
540607,5406.07
540693,5406.93
540779,5407.79
540861,5408.61
540943,5409.43
541022,5410.22
541100,5411.0
541177,5411.77
541251,5412.51
541325,5413.25
541399,5413.99
541475,5414.75
541554,5415.54
541631,5416.31
541709,5417.09
541791,5417.91
541876,5418.76
541961,5419.61
542043,5420.43
542125,5421.25
542209,5422.09
542292,5422.92
542372,5423.72
542453,5424.53
542537,5425.37
542621,5426.21
542706,5427.06
542791,5427.91
542876,5428.76
542963,5429.63
543051,5430.51
543138,5431.38
543220,5432.2
543299,5432.99
543377,5433.77
543455,5434.55
543534,5435.34
543612,5436.12
543690,5436.9
543769,5437.69
543853,5438.53
543941,5439.41
544030,5440.3
544115,5441.15
544198,5441.98
544283,5442.83
544367,5443.67
544445,5444.45
544522,5445.22
544598,5445.98
544675,5446.75
544752,5447.52
544829,5448.29
544907,5449.07
544988,5449.88
545073,5450.73
545162,5451.62
545252,5452.52
545343,5453.43
545432,5454.32
545520,5455.2
545609,5456.09
545697,5456.97
545785,5457.85
545869,5458.69
545952,5459.52
546036,5460.36
546120,5461.2
546207,5462.07
546292,5462.92
546374,5463.74
546461,5464.61
546547,5465.47
546627,5466.27
546707,5467.07
546784,5467.84
546867,5468.67
546955,5469.55
547043,5470.43
547127,5471.27
547211,5472.11
547298,5472.98
547383,5473.83
547467,5474.67
547550,5475.5
547634,5476.34
547721,5477.21
547805,5478.05
547887,5478.87
547970,5479.7
548052,5480.52
548136,5481.36
548219,5482.19
548304,5483.04
548389,5483.89
548475,5484.75
548555,5485.55
548633,5486.33
548710,5487.1
548787,5487.87
548863,5488.63
548939,5489.39
549016,5490.16
549094,5490.94
549173,5491.73
549254,5492.54
549339,5493.39
549423,5494.23
549505,5495.05
549586,5495.86
549669,5496.69
549753,5497.53
549839,5498.39
549925,5499.25
550011,5500.11
550103,5501.03
550198,5501.98
550294,5502.94
550387,5503.87
550481,5504.81
550576,5505.76
550668,5506.68
550758,5507.58
550847,5508.47
550932,5509.32
551015,5510.15
551096,5510.96
551173,5511.73
551248,5512.48
551322,5513.22
551396,5513.96
551475,5514.75
551557,5515.57
551639,5516.39
551718,5517.18
551805,5518.05
551893,5518.93
551980,5519.8
552065,5520.65
552148,5521.48
552234,5522.34
552322,5523.22
552409,5524.09
552492,5524.92
552574,5525.74
552658,5526.58
552746,5527.46
552836,5528.36
552925,5529.25
553011,5530.11
553093,5530.93
553178,5531.78
553267,5532.67
553357,5533.57
553448,5534.48
553538,5535.38
553627,5536.27
553716,5537.16
553810,5538.1
553901,5539.01
553983,5539.83
554062,5540.62
554137,5541.37
554214,5542.14
554291,5542.91
554367,5543.67
554445,5544.45
554534,5545.34
554626,5546.26
554717,5547.17
554805,5548.05
554888,5548.88
554968,5549.68
555046,5550.46
555123,5551.23
555198,5551.98
555273,5552.73
555347,5553.47
555419,5554.19
555490,5554.9
555561,5555.61
555631,5556.31
555703,5557.03
555777,5557.77
555854,5558.54
555935,5559.35
556021,5560.21
556111,5561.11
556201,5562.01
556290,5562.9
556378,5563.78
556465,5564.65
556551,5565.51
556638,5566.38
556723,5567.23
556812,5568.12
556896,5568.96
556975,5569.75
557054,5570.54
557131,5571.31
557209,5572.09
557287,5572.87
557364,5573.64
557447,5574.47
557532,5575.32
557617,5576.17
557703,5577.03
557790,5577.9
557883,5578.83
557979,5579.79
558074,5580.74
558164,5581.64
558253,5582.53
558345,5583.45
558437,5584.37
558527,5585.27
558614,5586.14
558701,5587.01
558789,5587.89
558879,5588.79
558967,5589.67
559048,5590.48
559126,5591.26
559201,5592.01
559274,5592.74
559349,5593.49
559428,5594.28
559507,5595.07
559588,5595.88
559675,5596.75
559766,5597.66
559854,5598.54
559937,5599.37
560020,5600.2
560106,5601.06
560191,5601.91
560275,5602.75
560356,5603.56
560437,5604.37
560520,5605.2
560603,5606.03
560685,5606.85
560766,5607.66
560846,5608.46
560929,5609.29
561012,5610.12
561096,5610.96
561177,5611.77
561255,5612.55
561331,5613.31
561407,5614.07
561481,5614.81
561554,5615.54
561626,5616.26
561700,5617.0
561780,5617.8
561867,5618.67
561952,5619.52
562032,5620.32
562114,5621.14
562194,5621.94
562273,5622.73
562350,5623.5
562427,5624.27
562504,5625.04
562587,5625.87
562672,5626.72
562760,5627.6
562846,5628.46
562933,5629.33
563022,5630.22
563112,5631.12
563198,5631.98
563282,5632.82
563365,5633.65
563450,5634.5
563535,5635.35
563621,5636.21
563706,5637.06
563789,5637.89
563872,5638.72
563958,5639.58
564049,5640.49
564143,5641.43
564234,5642.34
564319,5643.19
564399,5643.99
564477,5644.77
564551,5645.51
564622,5646.22
564692,5646.92
564762,5647.62
564855,5648.55
564947,5649.47
565036,5650.36
565120,5651.2
565208,5652.08
565294,5652.94
565376,5653.76
565458,5654.58
565541,5655.41
565626,5656.26
565713,5657.13
565799,5657.99
565889,5658.89
565983,5659.83
566080,5660.8
566176,5661.76
566274,5662.74
566371,5663.71
566462,5664.62
566554,5665.54
566645,5666.45
566734,5667.34
566824,5668.24
566910,5669.1
566991,5669.91
567069,5670.69
567145,5671.45
567218,5672.18
567289,5672.89
567362,5673.62
567434,5674.34
567512,5675.12
567592,5675.92
567677,5676.77
567762,5677.62
567847,5678.47
567928,5679.28
568013,5680.13
568098,5680.98
568183,5681.83
568267,5682.67
568350,5683.5
568437,5684.37
568528,5685.28
568616,5686.16
568704,5687.04
568792,5687.92
568882,5688.82
568972,5689.72
569058,5690.58
569142,5691.42
569224,5692.24
569307,5693.07
569384,5693.84
569458,5694.58
569531,5695.31
569602,5696.02
569675,5696.75
569749,5697.49
569823,5698.23
569901,5699.01
569979,5699.79
570055,5700.55
570130,5701.3
570205,5702.05
570281,5702.81
570358,5703.58
570436,5704.36
570515,5705.15
570593,5705.93
570674,5706.74
570758,5707.58
570846,5708.46
570936,5709.36
571026,5710.26
571114,5711.14
571200,5712.0
571288,5712.88
571377,5713.77
571465,5714.65
571553,5715.53
571639,5716.39
571723,5717.23
571807,5718.07
571893,5718.93
571979,5719.79
572061,5720.61
572138,5721.38
572213,5722.13
572287,5722.87
572357,5723.57
572428,5724.28
572498,5724.98
572571,5725.71
572650,5726.5
572733,5727.33
572818,5728.18
572905,5729.05
572990,5729.9
573077,5730.77
573165,5731.65
573253,5732.53
573337,5733.37
573420,5734.2
573504,5735.04
573591,5735.91
573680,5736.8
573768,5737.68
573854,5738.54
573938,5739.38
574026,5740.26
574115,5741.15
574202,5742.02
574288,5742.88
574375,5743.75
574460,5744.6
574544,5745.44
574624,5746.24
574701,5747.01
574776,5747.76
574849,5748.49
574920,5749.2
574993,5749.93
575066,5750.66
575139,5751.39
575211,5752.11
575282,5752.82
575354,5753.54
575423,5754.23
575492,5754.92
575563,5755.63
575633,5756.33
575704,5757.04
575773,5757.73
575842,5758.42
575910,5759.1
575979,5759.79
576048,5760.48
576116,5761.16
576183,5761.83
576251,5762.51
576318,5763.18
576383,5763.83
576449,5764.49
576515,5765.15
576579,5765.79
576643,5766.43
576706,5767.06
576767,5767.67
576829,5768.29
576892,5768.92
576958,5769.58
577026,5770.26
577097,5770.97
577173,5771.73
577249,5772.49
577331,5773.31
577414,5774.14
577497,5774.97
577578,5775.78
577661,5776.61
577745,5777.45
577827,5778.27
577907,5779.07
577985,5779.85
578060,5780.6
578203,5782.03
578310,5783.1
578417,5784.17
578485,5784.85
578553,5785.53
578619,5786.19
578684,5786.84
578748,5787.48
578811,5788.11
578874,5788.74
578937,5789.37
578999,5789.99
579061,5790.61
579122,5791.22
579183,5791.83
579244,5792.44
579306,5793.06
579368,5793.68
579429,5794.29
579491,5794.91
579553,5795.53
579614,5796.14
579675,5796.75
579737,5797.37
579799,5797.99
579862,5798.62
579925,5799.25
579988,5799.88
580052,5800.52
580117,5801.17
580183,5801.83
580250,5802.5
580317,5803.17
580385,5803.85
580453,5804.53
580520,5805.2
580587,5805.87
580651,5806.51
580716,5807.16
580780,5807.8
580843,5808.43
580907,5809.07
580973,5809.73
581039,5810.39
581106,5811.06
581176,5811.76
581245,5812.45
581314,5813.14
581387,5813.87
581460,5814.6
581530,5815.3
581602,5816.02
581675,5816.75
581750,5817.5
581824,5818.24
581896,5818.96
581968,5819.68
582040,5820.4
582113,5821.13
582186,5821.86
582259,5822.59
582330,5823.3
582402,5824.02
582475,5824.75
582550,5825.5
582629,5826.29
582707,5827.07
582784,5827.84
582860,5828.6
582938,5829.38
583016,5830.16
583095,5830.95
583174,5831.74
583250,5832.5
583325,5833.25
583400,5834.0
583474,5834.74
583547,5835.47
583619,5836.19
583689,5836.89
583759,5837.59
583829,5838.29
583900,5839.0
583971,5839.71
584042,5840.42
584113,5841.13
584185,5841.85
584256,5842.56
584326,5843.26
584395,5843.95
584465,5844.65
584536,5845.36
584606,5846.06
584677,5846.77
584747,5847.47
584818,5848.18
584889,5848.89
584959,5849.59
585029,5850.29
585099,5850.99
585168,5851.68
585237,5852.37
585307,5853.07
585376,5853.76
585445,5854.45
585514,5855.14
585582,5855.82
585650,5856.5
585718,5857.18
585786,5857.86
585853,5858.53
585921,5859.21
585989,5859.89
586057,5860.57
586124,5861.24
586191,5861.91
586259,5862.59
586325,5863.25
586391,5863.91
586457,5864.57
586523,5865.23
586588,5865.88
586652,5866.52
586717,5867.17
586781,5867.81
586845,5868.45
586909,5869.09
586973,5869.73
587036,5870.36
587098,5870.98
587160,5871.6
587221,5872.21
587283,5872.83
587345,5873.45
587406,5874.06
587465,5874.65
587530,5875.3
587595,5875.95
587657,5876.57
587721,5877.21
587786,5877.86
587852,5878.52
587917,5879.17
587983,5879.83
588050,5880.5
588118,5881.18
588185,5881.85
588251,5882.51
588317,5883.17
588383,5883.83
588449,5884.49
588514,5885.14
588580,5885.8
588646,5886.46
588714,5887.14
588781,5887.81
588848,5888.48
588918,5889.18
588988,5889.88
589058,5890.58
589128,5891.28
589198,5891.98
589269,5892.69
589341,5893.41
589415,5894.15
589489,5894.89
589561,5895.61
589633,5896.33
589706,5897.06
589779,5897.79
589853,5898.53
589925,5899.25
589999,5899.99
590072,5900.72
590147,5901.47
590223,5902.23
590298,5902.98
590372,5903.72
590447,5904.47
590521,5905.21
590597,5905.97
590670,5906.7
590743,5907.43
590818,5908.18
590894,5908.94
590972,5909.72
591047,5910.47
591121,5911.21
591194,5911.94
591266,5912.66
591338,5913.38
591409,5914.09
591481,5914.81
591553,5915.53
591627,5916.27
591701,5917.01
591772,5917.72
591844,5918.44
591916,5919.16
591988,5919.88
592060,5920.6
592131,5921.31
592201,5922.01
592273,5922.73
592345,5923.45
592417,5924.17
592490,5924.9
592561,5925.61
592633,5926.33
592706,5927.06
592779,5927.79
592851,5928.51
592922,5929.22
592992,5929.92
593063,5930.63
593134,5931.34
593205,5932.05
593275,5932.75
593345,5933.45
593416,5934.16
593488,5934.88
593561,5935.61
593633,5936.33
593705,5937.05
593777,5937.77
593851,5938.51
593925,5939.25
593998,5939.98
594070,5940.7
594142,5941.42
594214,5942.14
594287,5942.87
594359,5943.59
594430,5944.3
594502,5945.02
594574,5945.74
594646,5946.46
594717,5947.17
594789,5947.89
594860,5948.6
594930,5949.3
595000,5950.0
595071,5950.71
595141,5951.41
595212,5952.12
595282,5952.82
595353,5953.53
595425,5954.25
595495,5954.95
595565,5955.65
595633,5956.33
595701,5957.01
595769,5957.69
595836,5958.36
595904,5959.04
595970,5959.7
596038,5960.38
596106,5961.06
596173,5961.73
596240,5962.4
596307,5963.07
596375,5963.75
596443,5964.43
596512,5965.12
596581,5965.81
596651,5966.51
596723,5967.23
596797,5967.97
596872,5968.72
596946,5969.46
597019,5970.19
597094,5970.94
597170,5971.7
597249,5972.49
597329,5973.29
597407,5974.07
597485,5974.85
597561,5975.61
597639,5976.39
597719,5977.19
597798,5977.98
597878,5978.78
597956,5979.56
598035,5980.35
598113,5981.13
598193,5981.93
598275,5982.75
598357,5983.57
598436,5984.36
598516,5985.16
598594,5985.94
598673,5986.73
598753,5987.53
598836,5988.36
598918,5989.18
599000,5990.0
599080,5990.8
599159,5991.59
599239,5992.39
599324,5993.24
599409,5994.09
599490,5994.9
599567,5995.67
599644,5996.44
599723,5997.23
599804,5998.04
599886,5998.86
599966,5999.66
600044,6000.44
600120,6001.2
600195,6001.95
600271,6002.71
600344,6003.44
600418,6004.18
600491,6004.91
600565,6005.65
600637,6006.37
600709,6007.09
600781,6007.81
600853,6008.53
600924,6009.24
600996,6009.96
601068,6010.68
601141,6011.41
601212,6012.12
601285,6012.85
601357,6013.57
601429,6014.29
601500,6015.0
601571,6015.71
601641,6016.41
601712,6017.12
601781,6017.81
601851,6018.51
601921,6019.21
601991,6019.91
602060,6020.6
602129,6021.29
602200,6022.0
602271,6022.71
602342,6023.42
602413,6024.13
602484,6024.84
602555,6025.55
602629,6026.29
602705,6027.05
602785,6027.85
602864,6028.64
602942,6029.42
603020,6030.2
603099,6030.99
603180,6031.8
603261,6032.61
603346,6033.46
603431,6034.31
603514,6035.14
603595,6035.95
603678,6036.78
603763,6037.63
603849,6038.49
603931,6039.31
604012,6040.12
604092,6040.92
604173,6041.73
604256,6042.56
604341,6043.41
604423,6044.23
604503,6045.03
604582,6045.82
604661,6046.61
604744,6047.44
604828,6048.28
604911,6049.11
604990,6049.9
605068,6050.68
605144,6051.44
605221,6052.21
605300,6053.0
605381,6053.81
605461,6054.61
605539,6055.39
605616,6056.16
605694,6056.94
605774,6057.74
605855,6058.55
605936,6059.36
606014,6060.14
606090,6060.9
606166,6061.66
606241,6062.41
606313,6063.13
606384,6063.84
606458,6064.58
606533,6065.33
606608,6066.08
606684,6066.84
606761,6067.61
606840,6068.4
606921,6069.21
607003,6070.03
607082,6070.82
607162,6071.62
607242,6072.42
607325,6073.25
607410,6074.1
607498,6074.98
607581,6075.81
607666,6076.66
607746,6077.46
607829,6078.29
607915,6079.15
608004,6080.04
608091,6080.91
608179,6081.79
608260,6082.6
608339,6083.39
608418,6084.18
608498,6084.98
608577,6085.77
608655,6086.55
608730,6087.3
608809,6088.09
608892,6088.92
608977,6089.77
609059,6090.59
609138,6091.38
609218,6092.18
609299,6092.99
609382,6093.82
609466,6094.66
609550,6095.5
609631,6096.31
609714,6097.14
609799,6097.99
609886,6098.86
609970,6099.7
610051,6100.51
610131,6101.31
610214,6102.14
610297,6102.97
610375,6103.75
610452,6104.52
610527,6105.27
610603,6106.03
610680,6106.8
610756,6107.56
610829,6108.29
610905,6109.05
610983,6109.83
611058,6110.58
611132,6111.32
611206,6112.06
611281,6112.81
611356,6113.56
611430,6114.3
611503,6115.03
611578,6115.78
611654,6116.54
611732,6117.32
611811,6118.11
611892,6118.92
611973,6119.73
612054,6120.54
612138,6121.38
612224,6122.24
612310,6123.1
612396,6123.96
612479,6124.79
612562,6125.62
612647,6126.47
612736,6127.36
612825,6128.25
612913,6129.13
613001,6130.01
613096,6130.96
613195,6131.95
613295,6132.95
613383,6133.83
613462,6134.62
613540,6135.4
613618,6136.18
613692,6136.92
613769,6137.69
613845,6138.45
613920,6139.2
613996,6139.96
614075,6140.75
614160,6141.6
614246,6142.46
614327,6143.27
614407,6144.07
614488,6144.88
614572,6145.72
614660,6146.6
614749,6147.49
614837,6148.37
614922,6149.22
615008,6150.08
615095,6150.95
615185,6151.85
615272,6152.72
615358,6153.58
615441,6154.41
615522,6155.22
615603,6156.03
615685,6156.85
615767,6157.67
615847,6158.47
615931,6159.31
616017,6160.17
616104,6161.04
616183,6161.83
616260,6162.6
616335,6163.35
616411,6164.11
616488,6164.88
616571,6165.71
616653,6166.53
616734,6167.34
616821,6168.21
616911,6169.11
617002,6170.02
617090,6170.9
617177,6171.77
617261,6172.61
617350,6173.5
617439,6174.39
617529,6175.29
617617,6176.17
617706,6177.06
617798,6177.98
617892,6178.92
617986,6179.86
618074,6180.74
618160,6181.6
618243,6182.43
618325,6183.25
618405,6184.05
618482,6184.82
618558,6185.58
618633,6186.33
618712,6187.12
618800,6188.0
618888,6188.88
618971,6189.71
619054,6190.54
619140,6191.4
619228,6192.28
619314,6193.14
619399,6193.99
619486,6194.86
619576,6195.76
619671,6196.71
619764,6197.64
619856,6198.56
619946,6199.46
620037,6200.37
620128,6201.28
620218,6202.18
620305,6203.05
620395,6203.95
620484,6204.84
620574,6205.74
620661,6206.61
620751,6207.51
620836,6208.36
620914,6209.14
620991,6209.91
621071,6210.71
621155,6211.55
621236,6212.36
621315,6213.15
621406,6214.06
621501,6215.01
621592,6215.92
621680,6216.8
621766,6217.66
621858,6218.58
621948,6219.48
622036,6220.36
622121,6221.21
622205,6222.05
622292,6222.92
622379,6223.79
622469,6224.69
622554,6225.54
622637,6226.37
622720,6227.2
622806,6228.06
622897,6228.97
622986,6229.86
623079,6230.79
623167,6231.67
623247,6232.47
623326,6233.26
623408,6234.08
623486,6234.86
623563,6235.63
623640,6236.4
623720,6237.2
623809,6238.09
623895,6238.95
623978,6239.78
624058,6240.58
624135,6241.35
624214,6242.14
624299,6242.99
624390,6243.9
624482,6244.82
624574,6245.74
624660,6246.6
624743,6247.43
624825,6248.25
624906,6249.06
624988,6249.88
625069,6250.69
625151,6251.51
625232,6252.32
625311,6253.11
625391,6253.91
625468,6254.68
625541,6255.41
625615,6256.15
625688,6256.88
625760,6257.6
625833,6258.33
625911,6259.11
625990,6259.9
626070,6260.7
626152,6261.52
626241,6262.41
626334,6263.34
626424,6264.24
626512,6265.12
626596,6265.96
626680,6266.8
626767,6267.67
626854,6268.54
626939,6269.39
627023,6270.23
627108,6271.08
627197,6271.97
627282,6272.82
627366,6273.66
627448,6274.48
627527,6275.27
627605,6276.05
627681,6276.81
627757,6277.57
627832,6278.32
627908,6279.08
627983,6279.83
628059,6280.59
628142,6281.42
628237,6282.37
628331,6283.31
628421,6284.21
628506,6285.06
628589,6285.89
628674,6286.74
628760,6287.6
628846,6288.46
628928,6289.28
629009,6290.09
629092,6290.92
629176,6291.76
629260,6292.6
629343,6293.43
629425,6294.25
629507,6295.07
629591,6295.91
629680,6296.8
629766,6297.66
629851,6298.51
629932,6299.32
630014,6300.14
630096,6300.96
630178,6301.78
630253,6302.53
630327,6303.27
630400,6304.0
630474,6304.74
630550,6305.5
630626,6306.26
630702,6307.02
630779,6307.79
630861,6308.61
630950,6309.5
631037,6310.37
631121,6311.21
631202,6312.02
631284,6312.84
631370,6313.7
631454,6314.54
631536,6315.36
631617,6316.17
631698,6316.98
631783,6317.83
631867,6318.67
631953,6319.53
632037,6320.37
632119,6321.19
632203,6322.03
632292,6322.92
632380,6323.8
632462,6324.62
632541,6325.41
632616,6326.16
632690,6326.9
632764,6327.64
632840,6328.4
632914,6329.14
632990,6329.9
633072,6330.72
633160,6331.6
633243,6332.43
633325,6333.25
633405,6334.05
633488,6334.88
633574,6335.74
633659,6336.59
633741,6337.41
633822,6338.22
633909,6339.09
633997,6339.97
634088,6340.88
634174,6341.74
634259,6342.59
634346,6343.46
634431,6344.31
634516,6345.16
634601,6346.01
634681,6346.81
634760,6347.6
634840,6348.4
634919,6349.19
634996,6349.96
635075,6350.75
635150,6351.5
635222,6352.22
635293,6352.93
635366,6353.66
635448,6354.48
635535,6355.35
635619,6356.19
635698,6356.98
635776,6357.76
635858,6358.58
635943,6359.43
636028,6360.28
636112,6361.12
636194,6361.94
636278,6362.78
636369,6363.69
636460,6364.6
636550,6365.5
636639,6366.39
636727,6367.27
636811,6368.11
636897,6368.97
636984,6369.84
637067,6370.67
637148,6371.48
637230,6372.3
637307,6373.07
637381,6373.81
637455,6374.55
637530,6375.3
637607,6376.07
637683,6376.83
637760,6377.6
637848,6378.48
