sample,time_sec
66,0.66
156,1.56
248,2.48
339,3.39
430,4.3
521,5.21
613,6.13
704,7.04
793,7.93
884,8.84
974,9.74
1063,10.63
1153,11.53
1244,12.44
1335,13.35
1427,14.27
1520,15.2
1613,16.13
1705,17.05
1798,17.98
1892,18.92
1986,19.86
2078,20.78
2171,21.71
2264,22.64
2356,23.56
2448,24.48
2539,25.39
2630,26.3
2721,27.21
2813,28.13
2903,29.03
2994,29.94
3086,30.86
3178,31.78
3268,32.68
3361,33.61
3454,34.54
3546,35.46
3639,36.39
3730,37.3
3820,38.2
3911,39.11
4001,40.01
4092,40.92
4183,41.83
4275,42.75
4367,43.67
4459,44.59
4551,45.51
4642,46.42
4735,47.35
4826,48.26
4916,49.16
5007,50.07
5097,50.97
5187,51.87
5277,52.77
5368,53.68
5458,54.58
5548,55.48
5639,56.39
5730,57.3
5820,58.2
5911,59.11
6001,60.01
6091,60.91
6180,61.8
6271,62.71
6362,63.62
6452,64.52
6541,65.41
6631,66.31
6721,67.21
6809,68.09
6899,68.99
6989,69.89
7079,70.79
7170,71.7
7261,72.61
7351,73.51
7442,74.42
7533,75.33
7624,76.24
7715,77.15
7806,78.06
7898,78.98
7990,79.9
8081,80.81
8172,81.72
8264,82.64
8354,83.54
8446,84.46
8539,85.39
8630,86.3
8722,87.22
8816,88.16
8911,89.11
9004,90.04
9098,90.98
9189,91.89
9279,92.79
9370,93.7
9460,94.6
9547,95.47
9633,96.33
9723,97.23
9813,98.13
9902,99.02
9990,99.9
10078,100.78
10167,101.67
10257,102.57
10344,103.44
10431,104.31
10520,105.2
10607,106.07
10693,106.93
10777,107.77
10864,108.64
10951,109.51
11037,110.37
11123,111.23
11211,112.11
11298,112.98
11384,113.84
11471,114.71
11556,115.56
11642,116.42
11727,117.27
11812,118.12
11896,118.96
11979,119.79
12062,120.62
12147,121.47
12231,122.31
12314,123.14
12398,123.98
12482,124.82
12565,125.65
12648,126.48
12731,127.31
12812,128.12
12895,128.95
12978,129.78
13058,130.58
13141,131.41
13223,132.23
13304,133.04
13388,133.88
13470,134.7
13553,135.53
13635,136.35
13716,137.16
13799,137.99
13881,138.81
13963,139.63
14048,140.48
14130,141.3
14212,142.12
14294,142.94
14377,143.77
14459,144.59
14542,145.42
14625,146.25
14707,147.07
14791,147.91
14874,148.74
14955,149.55
15039,150.39
15121,151.21
15203,152.03
15285,152.85
15366,153.66
15446,154.46
15527,155.27
15608,156.08
15688,156.88
15768,157.68
15848,158.48
15928,159.28
16007,160.07
16086,160.86
16166,161.66
16245,162.45
16324,163.24
16406,164.06
16489,164.89
16575,165.75
16662,166.62
16752,167.52
16841,168.41
16931,169.31
17021,170.21
17110,171.1
17199,171.99
17288,172.88
17376,173.76
17463,174.63
17549,175.49
17635,176.35
17720,177.2
17805,178.05
17888,178.88
17968,179.68
18046,180.46
18125,181.25
18202,182.02
18283,182.83
18367,183.67
18457,184.57
18554,185.54
18656,186.56
18762,187.62
18868,188.68
18975,189.75
19081,190.81
19189,191.89
19296,192.96
19401,194.01
19503,195.03
19603,196.03
19700,197.0
19794,197.94
19886,198.86
19975,199.75
20062,200.62
20148,201.48
20233,202.33
20317,203.17
20399,203.99
20480,204.8
20559,205.59
20637,206.37
20714,207.14
20791,207.91
20868,208.68
20946,209.46
21027,210.27
21113,211.13
21203,212.03
21295,212.95
21390,213.9
21486,214.86
21584,215.84
21683,216.83
21780,217.8
21877,218.77
21974,219.74
22069,220.69
22164,221.64
22258,222.58
22349,223.49
22440,224.4
22529,225.29
22618,226.18
22706,227.06
22795,227.95
22883,228.83
22971,229.71
23059,230.59
23147,231.47
23236,232.36
23326,233.26
23414,234.14
23501,235.01
23586,235.86
23674,236.74
23762,237.62
23850,238.5
23938,239.38
24028,240.28
24119,241.19
24211,242.11
24303,243.03
24395,243.95
24488,244.88
24581,245.81
24673,246.73
24765,247.65
24850,248.5
24935,249.35
25024,250.24
25114,251.14
25198,251.98
25281,252.81
25362,253.62
25443,254.43
25524,255.24
25602,256.02
25683,256.83
25763,257.63
25843,258.43
25926,259.26
26009,260.09
26093,260.93
26179,261.79
26264,262.64
26348,263.48
26432,264.32
26514,265.14
26595,265.95
26676,266.76
26754,267.54
26833,268.33
26910,269.1
26987,269.87
27064,270.64
27144,271.44
27226,272.26
27308,273.08
27393,273.93
27481,274.81
27569,275.69
27657,276.57
27748,277.48
27839,278.39
27929,279.29
28019,280.19
28109,281.09
28200,282.0
28288,282.88
28378,283.78
28468,284.68
28559,285.59
28649,286.49
28739,287.39
28832,288.32
28923,289.23
29015,290.15
29107,291.07
29199,291.99
29290,292.9
29380,293.8
29472,294.72
29562,295.62
29652,296.52
29740,297.4
29829,298.29
29918,299.18
30007,300.07
30096,300.96
30186,301.86
30278,302.78
30369,303.69
30458,304.58
30550,305.5
30641,306.41
30731,307.31
30820,308.2
30909,309.09
30997,309.97
31085,310.85
31171,311.71
31258,312.58
31345,313.45
31432,314.32
31520,315.2
31608,316.08
31696,316.96
31786,317.86
31876,318.76
31966,319.66
32056,320.56
32146,321.46
32236,322.36
32325,323.25
32415,324.15
32506,325.06
32598,325.98
32689,326.89
32780,327.8
32871,328.71
32963,329.63
33055,330.55
33147,331.47
33238,332.38
33330,333.3
33410,334.1
33504,335.04
33588,335.88
33687,336.87
33765,337.65
33857,338.57
33940,339.4
34036,340.36
34124,341.24
34213,342.13
34304,343.04
34395,343.95
34487,344.87
34581,345.81
34677,346.77
34773,347.73
34868,348.68
34964,349.64
35060,350.6
35154,351.54
35247,352.47
35340,353.4
35431,354.31
35520,355.2
35610,356.1
35698,356.98
35786,357.86
35874,358.74
35963,359.63
36052,360.52
36142,361.42
36231,362.31
36320,363.2
36410,364.1
36501,365.01
36588,365.88
36676,366.76
36762,367.62
36847,368.47
36931,369.31
37014,370.14
37096,370.96
37180,371.8
37265,372.65
37349,373.49
37434,374.34
37522,375.22
37609,376.09
37696,376.96
37785,377.85
37875,378.75
37964,379.64
38054,380.54
38142,381.42
38231,382.31
38320,383.2
38409,384.09
38496,384.96
38584,385.84
38672,386.72
38761,387.61
38850,388.5
38938,389.38
39027,390.27
39117,391.17
39206,392.06
39295,392.95
39385,393.85
39474,394.74
39564,395.64
39653,396.53
39742,397.42
39832,398.32
39921,399.21
40010,400.1
40097,400.97
40183,401.83
40268,402.68
40350,403.5
40434,404.34
40519,405.19
40604,406.04
40690,406.9
40779,407.79
40868,408.68
40959,409.59
41050,410.5
41140,411.4
41231,412.31
41322,413.22
41412,414.12
41502,415.02
41593,415.93
41684,416.84
41774,417.74
41864,418.64
41956,419.56
42048,420.48
42139,421.39
42231,422.31
42324,423.24
42417,424.17
42508,425.08
42599,425.99
42689,426.89
42779,427.79
42867,428.67
42956,429.56
43045,430.45
43135,431.35
43224,432.24
43314,433.14
43405,434.05
43496,434.96
43587,435.87
43678,436.78
43769,437.69
43860,438.6
43951,439.51
44041,440.41
44131,441.31
44223,442.23
44313,443.13
44402,444.02
44491,444.91
44582,445.82
44673,446.73
44764,447.64
44854,448.54
44943,449.43
45029,450.29
45114,451.14
45198,451.98
45283,452.83
45369,453.69
45456,454.56
45542,455.42
45629,456.29
45717,457.17
45805,458.05
45892,458.92
45979,459.79
46067,460.67
46155,461.55
46243,462.43
46331,463.31
46421,464.21
46509,465.09
46598,465.98
46688,466.88
46778,467.78
46869,468.69
46960,469.6
47053,470.53
47143,471.43
47234,472.34
47326,473.26
47419,474.19
47512,475.12
47579,475.79
47647,476.47
47743,477.43
47827,478.27
47926,479.26
48017,480.17
48108,481.08
48201,482.01
48293,482.93
48384,483.84
48475,484.75
48567,485.67
48659,486.59
48751,487.51
48842,488.42
48933,489.33
49024,490.24
49115,491.15
49205,492.05
49295,492.95
49386,493.86
49476,494.76
49566,495.66
49654,496.54
49744,497.44
49834,498.34
49925,499.25
50016,500.16
50108,501.08
50200,502.0
50294,502.94
50388,503.88
50481,504.81
50576,505.76
50669,506.69
50762,507.62
50855,508.55
50946,509.46
51037,510.37
51127,511.27
51218,512.18
51306,513.06
51391,513.91
51478,514.78
51567,515.67
51654,516.54
51741,517.41
51828,518.28
51916,519.16
52005,520.05
52093,520.93
52180,521.8
52270,522.7
52359,523.59
52448,524.48
52539,525.39
52630,526.3
52722,527.22
52813,528.13
52905,529.05
52999,529.99
53093,530.93
53188,531.88
53282,532.82
53376,533.76
53471,534.71
53564,535.64
53656,536.56
53746,537.46
53834,538.34
53923,539.23
54010,540.1
54097,540.97
54185,541.85
54274,542.74
54364,543.64
54455,544.55
54545,545.45
54637,546.37
54729,547.29
54821,548.21
54912,549.12
55004,550.04
55097,550.97
55188,551.88
55279,552.79
55372,553.72
55464,554.64
55556,555.56
55648,556.48
55738,557.38
55830,558.3
55921,559.21
56012,560.12
56103,561.03
56195,561.95
56288,562.88
56381,563.81
56473,564.73
56565,565.65
56658,566.58
56751,567.51
56844,568.44
56936,569.36
57029,570.29
57122,571.22
57214,572.14
57306,573.06
57397,573.97
57487,574.87
57577,575.77
57668,576.68
57758,577.58
57848,578.48
57938,579.38
58030,580.3
58122,581.22
58213,582.13
58303,583.03
58393,583.93
58484,584.84
58575,585.75
58665,586.65
58754,587.54
58845,588.45
58936,589.36
59027,590.27
59117,591.17
59208,592.08
59300,593.0
59391,593.91
59481,594.81
59571,595.71
59661,596.61
59749,597.49
59837,598.37
59927,599.27
60019,600.19
60111,601.11
60202,602.02
60293,602.93
60386,603.86
60477,604.77
60567,605.67
60659,606.59
60752,607.52
60843,608.43
60936,609.36
61030,610.3
61122,611.22
61213,612.13
61305,613.05
61396,613.96
61487,614.87
61576,615.76
61665,616.65
61754,617.54
61842,618.42
61930,619.3
62019,620.19
62109,621.09
62198,621.98
62287,622.87
62377,623.77
62467,624.67
62556,625.56
62644,626.44
62732,627.32
62820,628.2
62908,629.08
62995,629.95
63083,630.83
63173,631.73
63262,632.62
63352,633.52
63443,634.43
63536,635.36
63628,636.28
63719,637.19
63810,638.1
63901,639.01
63991,639.91
64080,640.8
64168,641.68
64257,642.57
64346,643.46
64432,644.32
64520,645.2
64606,646.06
64691,646.91
64775,647.75
64859,648.59
64946,649.46
65033,650.33
65122,651.22
65211,652.11
65301,653.01
65392,653.92
65483,654.83
65572,655.72
65663,656.63
65754,657.54
65843,658.43
65932,659.32
66022,660.22
66111,661.11
66198,661.98
66287,662.87
66374,663.74
66461,664.61
66548,665.48
66636,666.36
66724,667.24
66812,668.12
66900,669.0
66987,669.87
67075,670.75
67162,671.62
67250,672.5
67338,673.38
67426,674.26
67515,675.15
67606,676.06
67696,676.96
67785,677.85
67875,678.75
67966,679.66
68057,680.57
68147,681.47
68237,682.37
68328,683.28
68418,684.18
68508,685.08
68598,685.98
68689,686.89
68779,687.79
68869,688.69
68960,689.6
69050,690.5
69140,691.4
69229,692.29
69319,693.19
69409,694.09
69497,694.97
69584,695.84
69669,696.69
69757,697.57
69846,698.46
69934,699.34
70023,700.23
70110,701.1
70198,701.98
70288,702.88
70376,703.76
70465,704.65
70553,705.53
70643,706.43
70732,707.32
70821,708.21
70912,709.12
71004,710.04
71096,710.96
71189,711.89
71281,712.81
71374,713.74
71467,714.67
71561,715.61
71654,716.54
71747,717.47
71840,718.4
71932,719.32
72025,720.25
72117,721.17
72210,722.1
72302,723.02
72395,723.95
72488,724.88
72582,725.82
72674,726.74
72767,727.67
72861,728.61
72954,729.54
73045,730.45
73137,731.37
73229,732.29
73321,733.21
73414,734.14
73509,735.09
73604,736.04
73698,736.98
73794,737.94
73876,738.76
73959,739.59
74073,740.73
74165,741.65
74257,742.57
74347,743.47
74437,744.37
74529,745.29
74620,746.2
74710,747.1
74802,748.02
74894,748.94
74985,749.85
75076,750.76
75167,751.67
75258,752.58
75348,753.48
75439,754.39
75529,755.29
75618,756.18
75707,757.07
75794,757.94
75883,758.83
75971,759.71
76060,760.6
76149,761.49
76238,762.38
76329,763.29
76420,764.2
76509,765.09
76599,765.99
76689,766.89
76778,767.78
76868,768.68
76959,769.59
77051,770.51
77143,771.43
77237,772.37
77331,773.31
77426,774.26
77519,775.19
77612,776.12
77703,777.03
77791,777.91
77880,778.8
77967,779.67
78053,780.53
78138,781.38
78226,782.26
78313,783.13
78403,784.03
78494,784.94
78585,785.85
78678,786.78
78771,787.71
78864,788.64
78957,789.57
79050,790.5
79143,791.43
79235,792.35
79327,793.27
79418,794.18
79509,795.09
79599,795.99
79688,796.88
79777,797.77
79867,798.67
79957,799.57
80048,800.48
80128,801.28
80208,802.08
80316,803.16
80404,804.04
80491,804.91
80580,805.8
80670,806.7
80763,807.63
80857,808.57
80952,809.52
81049,810.49
81149,811.49
81249,812.49
81350,813.5
81451,814.51
81554,815.54
81654,816.54
81756,817.56
81856,818.56
81953,819.53
82051,820.51
82147,821.47
82242,822.42
82337,823.37
82431,824.31
82525,825.25
82619,826.19
82713,827.13
82805,828.05
82896,828.96
82988,829.88
83080,830.8
83172,831.72
83266,832.66
83361,833.61
83455,834.55
83550,835.5
83645,836.45
83738,837.38
83831,838.31
83922,839.22
84014,840.14
84106,841.06
84199,841.99
84291,842.91
84383,843.83
84476,844.76
84568,845.68
84661,846.61
84753,847.53
84844,848.44
84936,849.36
85027,850.27
85117,851.17
85209,852.09
85301,853.01
85393,853.93
85486,854.86
85579,855.79
85672,856.72
85765,857.65
85858,858.58
85949,859.49
86040,860.4
86129,861.29
86220,862.2
86312,863.12
86403,864.03
86493,864.93
86581,865.81
86669,866.69
86759,867.59
86849,868.49
86939,869.39
87032,870.32
87126,871.26
87221,872.21
87318,873.18
87416,874.16
87514,875.14
87611,876.11
87709,877.09
87806,878.06
87901,879.01
87995,879.95
88088,880.88
88180,881.8
88272,882.72
88363,883.63
88454,884.54
88546,885.46
88638,886.38
88731,887.31
88825,888.25
88919,889.19
89013,890.13
89108,891.08
89201,892.01
89295,892.95
89389,893.89
89482,894.82
89576,895.76
89670,896.7
89765,897.65
89857,898.57
89950,899.5
90042,900.42
90132,901.32
90223,902.23
90315,903.15
90404,904.04
90494,904.94
90581,905.81
90667,906.67
90753,907.53
90842,908.42
90932,909.32
91025,910.25
91119,911.19
91212,912.12
91307,913.07
91400,914.0
91492,914.92
91581,915.81
91668,916.68
91755,917.55
91841,918.41
91925,919.25
92010,920.1
92095,920.95
92179,921.79
92264,922.64
92350,923.5
92437,924.37
92524,925.24
92610,926.1
92699,926.99
92789,927.89
92878,928.78
92970,929.7
93062,930.62
93156,931.56
93248,932.48
93340,933.4
93434,934.34
93529,935.29
93623,936.23
93716,937.16
93810,938.1
93905,939.05
93999,939.99
94092,940.92
94185,941.85
94279,942.79
94372,943.72
94465,944.65
94560,945.6
94657,946.57
94755,947.55
94851,948.51
94949,949.49
95048,950.48
95144,951.44
95240,952.4
95335,953.35
95426,954.26
95518,955.18
95611,956.11
95704,957.04
95796,957.96
95891,958.91
95986,959.86
96080,960.8
96175,961.75
96271,962.71
96368,963.68
96462,964.62
96557,965.57
96651,966.51
96744,967.44
96836,968.36
96928,969.28
97019,970.19
97110,971.1
97201,972.01
97291,972.91
97381,973.81
97469,974.69
97557,975.57
97646,976.46
97736,977.36
97826,978.26
97917,979.17
98010,980.1
98102,981.02
98196,981.96
98290,982.9
98383,983.83
98476,984.76
98572,985.72
98669,986.69
98765,987.65
98864,988.64
98963,989.63
99062,990.62
99160,991.6
99258,992.58
99356,993.56
99452,994.52
99547,995.47
99642,996.42
99736,997.36
99829,998.29
99921,999.21
100013,1000.13
100104,1001.04
100194,1001.94
100285,1002.85
100371,1003.71
100457,1004.57
100545,1005.45
100634,1006.34
100724,1007.24
100816,1008.16
100911,1009.11
101008,1010.08
101104,1011.04
101203,1012.03
101302,1013.02
101401,1014.01
101500,1015.0
101599,1015.99
101697,1016.97
101791,1017.91
101885,1018.85
101978,1019.78
102070,1020.7
102162,1021.62
102253,1022.53
102345,1023.45
102436,1024.36
102528,1025.28
102621,1026.21
102712,1027.12
102803,1028.03
102891,1028.91
102976,1029.76
103059,1030.59
103144,1031.44
103231,1032.31
103320,1033.2
103413,1034.13
103506,1035.06
103602,1036.02
103700,1037.0
103799,1037.99
103898,1038.98
103995,1039.95
104092,1040.92
104189,1041.89
104284,1042.84
104378,1043.78
104472,1044.72
104564,1045.64
104656,1046.56
104746,1047.46
104837,1048.37
104927,1049.27
105017,1050.17
105107,1051.07
105198,1051.98
105287,1052.87
105377,1053.77
105467,1054.67
105557,1055.57
105647,1056.47
105737,1057.37
105829,1058.29
105919,1059.19
106011,1060.11
106103,1061.03
106196,1061.96
106290,1062.9
106382,1063.82
106475,1064.75
106568,1065.68
106661,1066.61
106754,1067.54
106848,1068.48
106942,1069.42
107032,1070.32
107123,1071.23
107214,1072.14
107305,1073.05
107398,1073.98
107494,1074.94
107591,1075.91
107688,1076.88
107784,1077.84
107881,1078.81
107973,1079.73
108068,1080.68
108161,1081.61
108254,1082.54
108345,1083.45
108437,1084.37
108528,1085.28
108618,1086.18
108711,1087.11
108805,1088.05
108898,1088.98
108994,1089.94
109091,1090.91
109188,1091.88
109284,1092.84
109378,1093.78
109472,1094.72
109565,1095.65
109657,1096.57
109749,1097.49
109839,1098.39
109928,1099.28
110016,1100.16
110102,1101.02
110190,1101.9
110277,1102.77
110363,1103.63
110449,1104.49
110533,1105.33
110621,1106.21
110709,1107.09
110797,1107.97
110887,1108.87
110977,1109.77
111067,1110.67
111158,1111.58
111249,1112.49
111340,1113.4
111430,1114.3
111520,1115.2
111611,1116.11
111702,1117.02
111792,1117.92
111880,1118.8
111968,1119.68
112055,1120.55
112140,1121.4
112225,1122.25
112309,1123.09
112393,1123.93
112476,1124.76
112558,1125.58
112639,1126.39
112720,1127.2
112802,1128.02
112884,1128.84
112965,1129.65
113047,1130.47
113127,1131.27
113207,1132.07
113289,1132.89
113372,1133.72
113455,1134.55
113540,1135.4
113626,1136.26
113713,1137.13
113800,1138.0
113888,1138.88
113975,1139.75
114063,1140.63
114149,1141.49
114234,1142.34
114318,1143.18
114401,1144.01
114485,1144.85
114571,1145.71
114658,1146.58
114746,1147.46
114836,1148.36
114927,1149.27
115019,1150.19
115112,1151.12
115206,1152.06
115300,1153.0
115395,1153.95
115491,1154.91
115586,1155.86
115681,1156.81
115778,1157.78
115874,1158.74
115969,1159.69
116065,1160.65
116161,1161.61
116255,1162.55
116351,1163.51
116447,1164.47
116543,1165.43
116638,1166.38
116733,1167.33
116828,1168.28
116922,1169.22
117015,1170.15
117108,1171.08
117201,1172.01
117292,1172.92
117383,1173.83
117476,1174.76
117568,1175.68
117660,1176.6
117751,1177.51
117843,1178.43
117935,1179.35
118027,1180.27
118117,1181.17
118208,1182.08
118299,1182.99
118390,1183.9
118480,1184.8
118573,1185.73
118667,1186.67
118761,1187.61
118854,1188.54
118947,1189.47
119040,1190.4
119131,1191.31
119221,1192.21
119310,1193.1
119400,1194.0
119487,1194.87
119573,1195.73
119658,1196.58
119742,1197.42
119824,1198.24
119906,1199.06
119989,1199.89
120072,1200.72
120156,1201.56
120242,1202.42
120331,1203.31
120421,1204.21
120513,1205.13
120606,1206.06
120699,1206.99
120791,1207.91
120884,1208.84
120977,1209.77
121069,1210.69
121160,1211.6
121251,1212.51
121343,1213.43
121433,1214.33
121521,1215.21
121611,1216.11
121701,1217.01
121792,1217.92
121883,1218.83
121974,1219.74
122067,1220.67
122159,1221.59
122251,1222.51
122345,1223.45
122439,1224.39
122533,1225.33
122626,1226.26
122720,1227.2
122815,1228.15
122909,1229.09
122999,1229.99
123091,1230.91
123181,1231.81
123270,1232.7
123359,1233.59
123450,1234.5
123542,1235.42
123632,1236.32
123724,1237.24
123816,1238.16
123906,1239.06
123998,1239.98
124091,1240.91
124184,1241.84
124278,1242.78
124372,1243.72
124466,1244.66
124560,1245.6
124653,1246.53
124746,1247.46
124837,1248.37
124926,1249.26
125016,1250.16
125106,1251.06
125195,1251.95
125285,1252.85
125376,1253.76
125467,1254.67
125558,1255.58
125650,1256.5
125742,1257.42
125833,1258.33
125925,1259.25
126017,1260.17
126108,1261.08
126199,1261.99
126290,1262.9
126382,1263.82
126473,1264.73
126563,1265.63
126653,1266.53
126744,1267.44
126835,1268.35
126924,1269.24
127013,1270.13
127103,1271.03
127192,1271.92
127282,1272.82
127373,1273.73
127465,1274.65
127556,1275.56
127646,1276.46
127738,1277.38
127829,1278.29
127920,1279.2
128010,1280.1
128101,1281.01
128191,1281.91
128281,1282.81
128370,1283.7
128459,1284.59
128548,1285.48
128637,1286.37
128726,1287.26
128815,1288.15
128905,1289.05
128994,1289.94
129084,1290.84
129172,1291.72
129261,1292.61
129350,1293.5
129438,1294.38
129526,1295.26
129614,1296.14
129703,1297.03
129791,1297.91
129879,1298.79
129969,1299.69
130060,1300.6
130149,1301.49
130239,1302.39
130331,1303.31
130421,1304.21
130512,1305.12
130604,1306.04
130695,1306.95
130786,1307.86
130877,1308.77
130968,1309.68
131058,1310.58
131149,1311.49
131240,1312.4
131331,1313.31
131422,1314.22
131514,1315.14
131606,1316.06
131698,1316.98
131791,1317.91
131882,1318.82
131975,1319.75
132067,1320.67
132158,1321.58
132249,1322.49
132340,1323.4
132430,1324.3
132520,1325.2
132608,1326.08
132698,1326.98
132787,1327.87
132877,1328.77
132967,1329.67
133056,1330.56
133147,1331.47
133238,1332.38
133329,1333.29
133421,1334.21
133513,1335.13
133606,1336.06
133698,1336.98
133792,1337.92
133885,1338.85
133975,1339.75
134066,1340.66
134156,1341.56
134245,1342.45
134333,1343.33
134420,1344.2
134506,1345.06
134590,1345.9
134676,1346.76
134761,1347.61
134850,1348.5
134939,1349.39
135029,1350.29
135121,1351.21
135214,1352.14
135305,1353.05
135398,1353.98
135491,1354.91
135582,1355.82
135673,1356.73
135765,1357.65
135858,1358.58
135950,1359.5
136042,1360.42
136136,1361.36
136230,1362.3
136323,1363.23
136415,1364.15
136506,1365.06
136596,1365.96
136688,1366.88
136780,1367.8
136870,1368.7
136961,1369.61
137053,1370.53
137145,1371.45
137236,1372.36
137327,1373.27
137418,1374.18
137508,1375.08
137598,1375.98
137687,1376.87
137775,1377.75
137865,1378.65
137953,1379.53
138040,1380.4
138128,1381.28
138217,1382.17
138304,1383.04
138392,1383.92
138479,1384.79
138565,1385.65
138651,1386.51
138737,1387.37
138822,1388.22
138907,1389.07
138993,1389.93
139081,1390.81
139170,1391.7
139258,1392.58
139347,1393.47
139438,1394.38
139529,1395.29
139621,1396.21
139713,1397.13
139807,1398.07
139899,1398.99
139990,1399.9
140083,1400.83
140174,1401.74
140265,1402.65
140356,1403.56
140447,1404.47
140537,1405.37
140626,1406.26
140715,1407.15
140805,1408.05
140894,1408.94
140982,1409.82
141073,1410.73
141164,1411.64
141254,1412.54
141344,1413.44
141432,1414.32
141516,1415.16
141599,1415.99
141681,1416.81
141764,1417.64
141847,1418.47
141930,1419.3
142015,1420.15
142100,1421.0
142183,1421.83
142269,1422.69
142354,1423.54
142438,1424.38
142524,1425.24
142610,1426.1
142694,1426.94
142779,1427.79
142862,1428.62
142944,1429.44
143026,1430.26
143109,1431.09
143192,1431.92
143275,1432.75
143358,1433.58
143442,1434.42
143526,1435.26
143611,1436.11
143694,1436.94
143777,1437.77
143859,1438.59
143943,1439.43
144028,1440.28
144114,1441.14
144201,1442.01
144289,1442.89
144378,1443.78
144468,1444.68
144557,1445.57
144645,1446.45
144735,1447.35
144825,1448.25
144915,1449.15
145002,1450.02
145089,1450.89
145167,1451.67
145258,1452.58
145339,1453.39
145433,1454.33
145518,1455.18
145605,1456.05
145695,1456.95
145785,1457.85
145868,1458.68
145951,1459.51
146053,1460.53
146156,1461.56
146248,1462.48
146342,1463.42
146435,1464.35
146529,1465.29
146622,1466.22
146717,1467.17
146813,1468.13
146906,1469.06
146999,1469.99
147093,1470.93
147186,1471.86
147277,1472.77
147369,1473.69
147460,1474.6
147551,1475.51
147642,1476.42
147732,1477.32
147824,1478.24
147914,1479.14
148004,1480.04
148095,1480.95
148186,1481.86
148278,1482.78
148368,1483.68
148460,1484.6
148552,1485.52
148643,1486.43
148734,1487.34
148827,1488.27
148918,1489.18
149010,1490.1
149101,1491.01
149192,1491.92
149280,1492.8
149370,1493.7
149456,1494.56
149541,1495.41
149626,1496.26
149708,1497.08
149791,1497.91
149873,1498.73
149955,1499.55
150035,1500.35
150117,1501.17
150199,1501.99
150282,1502.82
150364,1503.64
150446,1504.46
150530,1505.3
150615,1506.15
150701,1507.01
150789,1507.89
150879,1508.79
150974,1509.74
151074,1510.74
151177,1511.77
151278,1512.78
151381,1513.81
151485,1514.85
151588,1515.88
151691,1516.91
151789,1517.89
151887,1518.87
151985,1519.85
152083,1520.83
152181,1521.81
152278,1522.78
152372,1523.72
152467,1524.67
152562,1525.62
152658,1526.58
152754,1527.54
152851,1528.51
152950,1529.5
153045,1530.45
153142,1531.42
153239,1532.39
153335,1533.35
153431,1534.31
153528,1535.28
153625,1536.25
153722,1537.22
153819,1538.19
153916,1539.16
154014,1540.14
154109,1541.09
154205,1542.05
154301,1543.01
154393,1543.93
154486,1544.86
154578,1545.78
154668,1546.68
154759,1547.59
154850,1548.5
154942,1549.42
155033,1550.33
155122,1551.22
155210,1552.1
155295,1552.95
155383,1553.83
155470,1554.7
155558,1555.58
155647,1556.47
155738,1557.38
155828,1558.28
155917,1559.17
156007,1560.07
156098,1560.98
156188,1561.88
156280,1562.8
156372,1563.72
156463,1564.63
156555,1565.55
156648,1566.48
156743,1567.43
156838,1568.38
156933,1569.33
157030,1570.3
157127,1571.27
157224,1572.24
157321,1573.21
157420,1574.2
157517,1575.17
157614,1576.14
157712,1577.12
157811,1578.11
157909,1579.09
158003,1580.03
158099,1580.99
158194,1581.94
158286,1582.86
158375,1583.75
158465,1584.65
158553,1585.53
158639,1586.39
158727,1587.27
158814,1588.14
158900,1589.0
158987,1589.87
159076,1590.76
159165,1591.65
159254,1592.54
159342,1593.42
159431,1594.31
159520,1595.2
159606,1596.06
159694,1596.94
159782,1597.82
159870,1598.7
159957,1599.57
160047,1600.47
160135,1601.35
160224,1602.24
160314,1603.14
160405,1604.05
160496,1604.96
160587,1605.87
160679,1606.79
160773,1607.73
160867,1608.67
160960,1609.6
161050,1610.5
161140,1611.4
161231,1612.31
161319,1613.19
161406,1614.06
161489,1614.89
161574,1615.74
161657,1616.57
161739,1617.39
161823,1618.23
161909,1619.09
161996,1619.96
162084,1620.84
162175,1621.75
162268,1622.68
162360,1623.6
162454,1624.54
162548,1625.48
162642,1626.42
162735,1627.35
162829,1628.29
162923,1629.23
163016,1630.16
163109,1631.09
163206,1632.06
163303,1633.03
163400,1634.0
163496,1634.96
163591,1635.91
163675,1636.75
163774,1637.74
163861,1638.61
163964,1639.64
164056,1640.56
164148,1641.48
164241,1642.41
164335,1643.35
164430,1644.3
164526,1645.26
164624,1646.24
164722,1647.22
164815,1648.15
164910,1649.1
165004,1650.04
165097,1650.97
165189,1651.89
165282,1652.82
165375,1653.75
165468,1654.68
165560,1655.6
165654,1656.54
165748,1657.48
165842,1658.42
165937,1659.37
166033,1660.33
166128,1661.28
166224,1662.24
166319,1663.19
166414,1664.14
166510,1665.1
166605,1666.05
166700,1667.0
166796,1667.96
166892,1668.92
166984,1669.84
167075,1670.75
167168,1671.68
167258,1672.58
167346,1673.46
167433,1674.33
167522,1675.22
167610,1676.1
167697,1676.97
167786,1677.86
167876,1678.76
167965,1679.65
168057,1680.57
168149,1681.49
168240,1682.4
168331,1683.31
168424,1684.24
168517,1685.17
168611,1686.11
168706,1687.06
168801,1688.01
168895,1688.95
168990,1689.9
169084,1690.84
169178,1691.78
169272,1692.72
169366,1693.66
169460,1694.6
169553,1695.53
169645,1696.45
169738,1697.38
169830,1698.3
169922,1699.22
170015,1700.15
170108,1701.08
170201,1702.01
170294,1702.94
170387,1703.87
170481,1704.81
170574,1705.74
170667,1706.67
170762,1707.62
170856,1708.56
170949,1709.49
171040,1710.4
171131,1711.31
171224,1712.24
171317,1713.17
171410,1714.1
171503,1715.03
171597,1715.97
171690,1716.9
171782,1717.82
171872,1718.72
171964,1719.64
172056,1720.56
172147,1721.47
172237,1722.37
172330,1723.3
172423,1724.23
172515,1725.15
172604,1726.04
172694,1726.94
172782,1727.82
172869,1728.69
172956,1729.56
173042,1730.42
173128,1731.28
173216,1732.16
173305,1733.05
173395,1733.95
173487,1734.87
173578,1735.78
173670,1736.7
173764,1737.64
173857,1738.57
173950,1739.5
174044,1740.44
174138,1741.38
174231,1742.31
174323,1743.23
174416,1744.16
174510,1745.1
174604,1746.04
174700,1747.0
174796,1747.96
174892,1748.92
174988,1749.88
175081,1750.81
175175,1751.75
175269,1752.69
175362,1753.62
175455,1754.55
175550,1755.5
175645,1756.45
175739,1757.39
175836,1758.36
175933,1759.33
176031,1760.31
176128,1761.28
176224,1762.24
176321,1763.21
176418,1764.18
176515,1765.15
176610,1766.1
176707,1767.07
176805,1768.05
176903,1769.03
177001,1770.01
177101,1771.01
177200,1772.0
177297,1772.97
177395,1773.95
177492,1774.92
177589,1775.89
177686,1776.86
177783,1777.83
177879,1778.79
177975,1779.75
178071,1780.71
178167,1781.67
178263,1782.63
178359,1783.59
178454,1784.54
178549,1785.49
178643,1786.43
178738,1787.38
178832,1788.32
178926,1789.26
179019,1790.19
179113,1791.13
179208,1792.08
179302,1793.02
179397,1793.97
179493,1794.93
179589,1795.89
179685,1796.85
179781,1797.81
179877,1798.77
179973,1799.73
180068,1800.68
180163,1801.63
180259,1802.59
180355,1803.55
180450,1804.5
180546,1805.46
180642,1806.42
180738,1807.38
180833,1808.33
180929,1809.29
181025,1810.25
181121,1811.21
181214,1812.14
181309,1813.09
181405,1814.05
181499,1814.99
181595,1815.95
181691,1816.91
181786,1817.86
181881,1818.81
181978,1819.78
182075,1820.75
182170,1821.7
182266,1822.66
182362,1823.62
182457,1824.57
182551,1825.51
182646,1826.46
182741,1827.41
182836,1828.36
182930,1829.3
183021,1830.21
183113,1831.13
183204,1832.04
183294,1832.94
183386,1833.86
183478,1834.78
183570,1835.7
183662,1836.62
183756,1837.56
183850,1838.5
183945,1839.45
184037,1840.37
184130,1841.3
184222,1842.22
184314,1843.14
184404,1844.04
184492,1844.92
184578,1845.78
184665,1846.65
184753,1847.53
184841,1848.41
184931,1849.31
185022,1850.22
185104,1851.04
185200,1852.0
185287,1852.87
185388,1853.88
185481,1854.81
185574,1855.74
185668,1856.68
185762,1857.62
185855,1858.55
185950,1859.5
186046,1860.46
186141,1861.41
186237,1862.37
186333,1863.33
186428,1864.28
186522,1865.22
186616,1866.16
186708,1867.08
186801,1868.01
186896,1868.96
186991,1869.91
187086,1870.86
187181,1871.81
187275,1872.75
187370,1873.7
187464,1874.64
187558,1875.58
187650,1876.5
187740,1877.4
187831,1878.31
187922,1879.22
188012,1880.12
188102,1881.02
188195,1881.95
188288,1882.88
188381,1883.81
188475,1884.75
188568,1885.68
188661,1886.61
188755,1887.55
188849,1888.49
188942,1889.42
189036,1890.36
189130,1891.3
189224,1892.24
189317,1893.17
189410,1894.1
189502,1895.02
189596,1895.96
189690,1896.9
189784,1897.84
189878,1898.78
189973,1899.73
190068,1900.68
190163,1901.63
190257,1902.57
190352,1903.52
190445,1904.45
190539,1905.39
190632,1906.32
190726,1907.26
190821,1908.21
190915,1909.15
191009,1910.09
191104,1911.04
191199,1911.99
191293,1912.93
191386,1913.86
191480,1914.8
191572,1915.72
191665,1916.65
191757,1917.57
191849,1918.49
191943,1919.43
192038,1920.38
192132,1921.32
192225,1922.25
192320,1923.2
192414,1924.14
192507,1925.07
192599,1925.99
192693,1926.93
192787,1927.87
192879,1928.79
192971,1929.71
193065,1930.65
193159,1931.59
193252,1932.52
193347,1933.47
193443,1934.43
193539,1935.39
193635,1936.35
193731,1937.31
193827,1938.27
193922,1939.22
194017,1940.17
194112,1941.12
194206,1942.06
194300,1943.0
194394,1943.94
194487,1944.87
194580,1945.8
194674,1946.74
194767,1947.67
194862,1948.62
194956,1949.56
195051,1950.51
195145,1951.45
195239,1952.39
195336,1953.36
195433,1954.33
195528,1955.28
195625,1956.25
195722,1957.22
195817,1958.17
195914,1959.14
196010,1960.1
196105,1961.05
196200,1962.0
196294,1962.94
196389,1963.89
196481,1964.81
196574,1965.74
196666,1966.66
196759,1967.59
196850,1968.5
196941,1969.41
197030,1970.3
197118,1971.18
197206,1972.06
197296,1972.96
197386,1973.86
197476,1974.76
197568,1975.68
197660,1976.6
197752,1977.52
197845,1978.45
197940,1979.4
198036,1980.36
198132,1981.32
198228,1982.28
198325,1983.25
198421,1984.21
198517,1985.17
198613,1986.13
198707,1987.07
198803,1988.03
198899,1988.99
198993,1989.93
199086,1990.86
199180,1991.8
199274,1992.74
199368,1993.68
199460,1994.6
199555,1995.55
199651,1996.51
199747,1997.47
199845,1998.45
199943,1999.43
200038,2000.38
200137,2001.37
200235,2002.35
200332,2003.32
200430,2004.3
200526,2005.26
200623,2006.23
200719,2007.19
200813,2008.13
200907,2009.07
201002,2010.02
201096,2010.96
201192,2011.92
201287,2012.87
201381,2013.81
201477,2014.77
201573,2015.73
201667,2016.67
201762,2017.62
201858,2018.58
201955,2019.55
202051,2020.51
202148,2021.48
202246,2022.46
202345,2023.45
202442,2024.42
202537,2025.37
202634,2026.34
202730,2027.3
202825,2028.25
202921,2029.21
203018,2030.18
203114,2031.14
203209,2032.09
203307,2033.07
203405,2034.05
203502,2035.02
203599,2035.99
203695,2036.95
203791,2037.91
203886,2038.86
203981,2039.81
204075,2040.75
204169,2041.69
204263,2042.63
204357,2043.57
204451,2044.51
204546,2045.46
204639,2046.39
204732,2047.32
204827,2048.27
204920,2049.2
205015,2050.15
205111,2051.11
205205,2052.05
205301,2053.01
205398,2053.98
205494,2054.94
205588,2055.88
205684,2056.84
205779,2057.79
205873,2058.73
205968,2059.68
206063,2060.63
206156,2061.56
206249,2062.49
206340,2063.4
206430,2064.3
206520,2065.2
206611,2066.11
206703,2067.03
206794,2067.94
206886,2068.86
206979,2069.79
207071,2070.71
207162,2071.62
207255,2072.55
207347,2073.47
207438,2074.38
207528,2075.28
207614,2076.14
207701,2077.01
207790,2077.9
207876,2078.76
207961,2079.61
208048,2080.48
208136,2081.36
208224,2082.24
208314,2083.14
208405,2084.05
208497,2084.97
208590,2085.9
208685,2086.85
208780,2087.8
208878,2088.78
208975,2089.75
209072,2090.72
209170,2091.7
209265,2092.65
209361,2093.61
209457,2094.57
209552,2095.52
209649,2096.49
209744,2097.44
209838,2098.38
209933,2099.33
210029,2100.29
210126,2101.26
210223,2102.23
210322,2103.22
210422,2104.22
210521,2105.21
210619,2106.19
210719,2107.19
210820,2108.2
210921,2109.21
211022,2110.22
211124,2111.24
211223,2112.23
211322,2113.22
211422,2114.22
211521,2115.21
211617,2116.17
211712,2117.12
211807,2118.07
211901,2119.01
211995,2119.95
212089,2120.89
212184,2121.84
212279,2122.79
212375,2123.75
212471,2124.71
212567,2125.67
212665,2126.65
212763,2127.63
212862,2128.62
212961,2129.61
213060,2130.6
213156,2131.56
213254,2132.54
213351,2133.51
213446,2134.46
213543,2135.43
213642,2136.42
213739,2137.39
213836,2138.36
213935,2139.35
214034,2140.34
214132,2141.32
214231,2142.31
214330,2143.3
214426,2144.26
214524,2145.24
214618,2146.18
214710,2147.1
214799,2147.99
214890,2148.9
214980,2149.8
215069,2150.69
215162,2151.62
215255,2152.55
215348,2153.48
215442,2154.42
215537,2155.37
215632,2156.32
215726,2157.26
215822,2158.22
215918,2159.18
216014,2160.14
216111,2161.11
216208,2162.08
216304,2163.04
216400,2164.0
216495,2164.95
216589,2165.89
216684,2166.84
216780,2167.8
216876,2168.76
216971,2169.71
217067,2170.67
217165,2171.65
217262,2172.62
217358,2173.58
217455,2174.55
217552,2175.52
217650,2176.5
217750,2177.5
217848,2178.48
217947,2179.47
218048,2180.48
218150,2181.5
218250,2182.5
218352,2183.52
218454,2184.54
218554,2185.54
218654,2186.54
218754,2187.54
218853,2188.53
218951,2189.51
219049,2190.49
219147,2191.47
219242,2192.42
219337,2193.37
219433,2194.33
219530,2195.3
219627,2196.27
219724,2197.24
219822,2198.22
219920,2199.2
220016,2200.16
220114,2201.14
220211,2202.11
220308,2203.08
220406,2204.06
220504,2205.04
220600,2206.0
220697,2206.97
220795,2207.95
220892,2208.92
220988,2209.88
221086,2210.86
221182,2211.82
221276,2212.76
221372,2213.72
221467,2214.67
221561,2215.61
221655,2216.55
221749,2217.49
221843,2218.43
221936,2219.36
222030,2220.3
222127,2221.27
222224,2222.24
222319,2223.19
222417,2224.17
222515,2225.15
222612,2226.12
222709,2227.09
222807,2228.07
222905,2229.05
223002,2230.02
223100,2231.0
223199,2231.99
223296,2232.96
223393,2233.93
223490,2234.9
223587,2235.87
223682,2236.82
223779,2237.79
223875,2238.75
223971,2239.71
224066,2240.66
224159,2241.59
224253,2242.53
224349,2243.49
224445,2244.45
224540,2245.4
224634,2246.34
224730,2247.3
224825,2248.25
224920,2249.2
225014,2250.14
225111,2251.11
225207,2252.07
225304,2253.04
225404,2254.04
225505,2255.05
225603,2256.03
225703,2257.03
225803,2258.03
225901,2259.01
225999,2259.99
226098,2260.98
226195,2261.95
226291,2262.91
226388,2263.88
226484,2264.84
226579,2265.79
226673,2266.73
226769,2267.69
226863,2268.63
226956,2269.56
227047,2270.47
227140,2271.4
227234,2272.34
227326,2273.26
227419,2274.19
227513,2275.13
227607,2276.07
227701,2277.01
227799,2277.99
227894,2278.94
227989,2279.89
228086,2280.86
228181,2281.81
228264,2282.64
228348,2283.48
228461,2284.61
228554,2285.54
228648,2286.48
228742,2287.42
228836,2288.36
228931,2289.31
229029,2290.29
229128,2291.28
229227,2292.27
229329,2293.29
229431,2294.31
229533,2295.33
229635,2296.35
229737,2297.37
229837,2298.37
229935,2299.35
230032,2300.32
230128,2301.28
230223,2302.23
230318,2303.18
230415,2304.15
230509,2305.09
230602,2306.02
230694,2306.94
230789,2307.89
230886,2308.86
230984,2309.84
231079,2310.79
231177,2311.77
231275,2312.75
231373,2313.73
231471,2314.71
231569,2315.69
231666,2316.66
231765,2317.65
231865,2318.65
231963,2319.63
232063,2320.63
232163,2321.63
232263,2322.63
232362,2323.62
232460,2324.6
232558,2325.58
232654,2326.54
232751,2327.51
232846,2328.46
232940,2329.4
233035,2330.35
233129,2331.29
233223,2332.23
233317,2333.17
233413,2334.13
233510,2335.1
233606,2336.06
233701,2337.01
233796,2337.96
233891,2338.91
233986,2339.86
234080,2340.8
234174,2341.74
234270,2342.7
234365,2343.65
234459,2344.59
234555,2345.55
234650,2346.5
234744,2347.44
234840,2348.4
234936,2349.36
235030,2350.3
235128,2351.28
235226,2352.26
235324,2353.24
235421,2354.21
235520,2355.2
235618,2356.18
235715,2357.15
235810,2358.1
235906,2359.06
236001,2360.01
236093,2360.93
236184,2361.84
236275,2362.75
236367,2363.67
236459,2364.59
236549,2365.49
236639,2366.39
236732,2367.32
236826,2368.26
236919,2369.19
237011,2370.11
237106,2371.06
237201,2372.01
237296,2372.96
237391,2373.91
237490,2374.9
237588,2375.88
237683,2376.83
237779,2377.79
237878,2378.78
237976,2379.76
238074,2380.74
238174,2381.74
238275,2382.75
238374,2383.74
238474,2384.74
238573,2385.73
238670,2386.7
238766,2387.66
238862,2388.62
238955,2389.55
239048,2390.48
239142,2391.42
239238,2392.38
239334,2393.34
239431,2394.31
239531,2395.31
239630,2396.3
239729,2397.29
239830,2398.3
239931,2399.31
240030,2400.3
240128,2401.28
240226,2402.26
240324,2403.24
240421,2404.21
240517,2405.17
240615,2406.15
240713,2407.13
240810,2408.1
240908,2409.08
241004,2410.04
241100,2411.0
241196,2411.96
241292,2412.92
241387,2413.87
241480,2414.8
241573,2415.73
241667,2416.67
241761,2417.61
241854,2418.54
241948,2419.48
242045,2420.45
242142,2421.42
242239,2422.39
242335,2423.35
242433,2424.33
242531,2425.31
242627,2426.27
242724,2427.24
242822,2428.22
242917,2429.17
243012,2430.12
243108,2431.08
243203,2432.03
243298,2432.98
243395,2433.95
243493,2434.93
243589,2435.89
243687,2436.87
243786,2437.86
243884,2438.84
243980,2439.8
244078,2440.78
244175,2441.75
244270,2442.7
244363,2443.63
244457,2444.57
244551,2445.51
244645,2446.45
244739,2447.39
244833,2448.33
244927,2449.27
245021,2450.21
245113,2451.13
245206,2452.06
245298,2452.98
245391,2453.91
245483,2454.83
245577,2455.77
245673,2456.73
245770,2457.7
245867,2458.67
245963,2459.63
246060,2460.6
246158,2461.58
246254,2462.54
246351,2463.51
246450,2464.5
246549,2465.49
246647,2466.47
246744,2467.44
246842,2468.42
246939,2469.39
247035,2470.35
247132,2471.32
247229,2472.29
247326,2473.26
247422,2474.22
247520,2475.2
247619,2476.19
247716,2477.16
247813,2478.13
247909,2479.09
248007,2480.07
248102,2481.02
248198,2481.98
248294,2482.94
248389,2483.89
248487,2484.87
248584,2485.84
248680,2486.8
248775,2487.75
248871,2488.71
248965,2489.65
249058,2490.58
249154,2491.54
249250,2492.5
249346,2493.46
249444,2494.44
249544,2495.44
249642,2496.42
249741,2497.41
249840,2498.4
249939,2499.39
250035,2500.35
250131,2501.31
250228,2502.28
250324,2503.24
250420,2504.2
250513,2505.13
250607,2506.07
250701,2507.01
250795,2507.95
250888,2508.88
250979,2509.79
251070,2510.7
251162,2511.62
251253,2512.53
251346,2513.46
251437,2514.37
251528,2515.28
251622,2516.22
251719,2517.19
251815,2518.15
251910,2519.1
252007,2520.07
252105,2521.05
252203,2522.03
252300,2523.0
252399,2523.99
252496,2524.96
252593,2525.93
252692,2526.92
252789,2527.89
252886,2528.86
252983,2529.83
253083,2530.83
253179,2531.79
253274,2532.74
253370,2533.7
253464,2534.64
253557,2535.57
253650,2536.5
253743,2537.43
253833,2538.33
253917,2539.17
254001,2540.01
254090,2540.9
254182,2541.82
254274,2542.74
254358,2543.58
254441,2544.41
254521,2545.21
254602,2546.02
254682,2546.82
254759,2547.59
254836,2548.36
254913,2549.13
254990,2549.9
255066,2550.66
255142,2551.42
255220,2552.2
255298,2552.98
255377,2553.77
255457,2554.57
255541,2555.41
255626,2556.26
255712,2557.12
255801,2558.01
255891,2558.91
255984,2559.84
256077,2560.77
256174,2561.74
256270,2562.7
256366,2563.66
256463,2564.63
256558,2565.58
256655,2566.55
256751,2567.51
256848,2568.48
256946,2569.46
257046,2570.46
257146,2571.46
257246,2572.46
257346,2573.46
257447,2574.47
257547,2575.47
257646,2576.46
257744,2577.44
257842,2578.42
257941,2579.41
258041,2580.41
258140,2581.4
258243,2582.43
258347,2583.47
258449,2584.49
258554,2585.54
258657,2586.57
258758,2587.58
258858,2588.58
258959,2589.59
259057,2590.57
259155,2591.55
259253,2592.53
259351,2593.51
259447,2594.47
259545,2595.45
259642,2596.42
259739,2597.39
259833,2598.33
259925,2599.25
260017,2600.17
260109,2601.09
260201,2602.01
260292,2602.92
260385,2603.85
260479,2604.79
260572,2605.72
260668,2606.68
260764,2607.64
260858,2608.58
260950,2609.5
261041,2610.41
261132,2611.32
261225,2612.25
261317,2613.17
261411,2614.11
261506,2615.06
261600,2616.0
261697,2616.97
261795,2617.95
261892,2618.92
261988,2619.88
262086,2620.86
262183,2621.83
262280,2622.8
262377,2623.77
262472,2624.72
262567,2625.67
262661,2626.61
262755,2627.55
262847,2628.47
262939,2629.39
263031,2630.31
263124,2631.24
263216,2632.16
263309,2633.09
263403,2634.03
263497,2634.97
263593,2635.93
263695,2636.95
263798,2637.98
263899,2638.99
264002,2640.02
264105,2641.05
264206,2642.06
264308,2643.08
264409,2644.09
264508,2645.08
264605,2646.05
264703,2647.03
264799,2647.99
264894,2648.94
264989,2649.89
265082,2650.82
265177,2651.77
265272,2652.72
265368,2653.68
265464,2654.64
265562,2655.62
265658,2656.58
265755,2657.55
265850,2658.5
265943,2659.43
266038,2660.38
266135,2661.35
266230,2662.3
266327,2663.27
266426,2664.26
266518,2665.18
266611,2666.11
266713,2667.13
266815,2668.15
266912,2669.12
267010,2670.1
267109,2671.09
267206,2672.06
267303,2673.03
267402,2674.02
267501,2675.01
267598,2675.98
267696,2676.96
267793,2677.93
267889,2678.89
267985,2679.85
268079,2680.79
268174,2681.74
268269,2682.69
268363,2683.63
268457,2684.57
268552,2685.52
268649,2686.49
268748,2687.48
268845,2688.45
268943,2689.43
269040,2690.4
269136,2691.36
269235,2692.35
269335,2693.35
269434,2694.34
269535,2695.35
269637,2696.37
269739,2697.39
269842,2698.42
269943,2699.43
270045,2700.45
270147,2701.47
270248,2702.48
270348,2703.48
270448,2704.48
270548,2705.48
270645,2706.45
270743,2707.43
270841,2708.41
270938,2709.38
271034,2710.34
271128,2711.28
271223,2712.23
271317,2713.17
271410,2714.1
271503,2715.03
271601,2716.01
271698,2716.98
271794,2717.94
271890,2718.9
271987,2719.87
272082,2720.82
272178,2721.78
272275,2722.75
272367,2723.67
272456,2724.56
272546,2725.46
272637,2726.37
272727,2727.27
272819,2728.19
272912,2729.12
273005,2730.05
273102,2731.02
273200,2732.0
273298,2732.98
273396,2733.96
273496,2734.96
273595,2735.95
273693,2736.93
273792,2737.92
273890,2738.9
273988,2739.88
274084,2740.84
274182,2741.82
274278,2742.78
274374,2743.74
274469,2744.69
274563,2745.63
274659,2746.59
274754,2747.54
274850,2748.5
274949,2749.49
275048,2750.48
275144,2751.44
275242,2752.42
275342,2753.42
275442,2754.42
275545,2755.45
275648,2756.48
275751,2757.51
275855,2758.55
275958,2759.58
276058,2760.58
276159,2761.59
276260,2762.6
276358,2763.58
276455,2764.55
276553,2765.53
276651,2766.51
276747,2767.47
276842,2768.42
276939,2769.39
277036,2770.36
277131,2771.31
277226,2772.26
277323,2773.23
277419,2774.19
277516,2775.16
277611,2776.11
277706,2777.06
277801,2778.01
277896,2778.96
277993,2779.93
278094,2780.94
278194,2781.94
278292,2782.92
278388,2783.88
278484,2784.84
278579,2785.79
278672,2786.72
278763,2787.63
278854,2788.54
278942,2789.42
279034,2790.34
279126,2791.26
279217,2792.17
279313,2793.13
279410,2794.1
279506,2795.06
279604,2796.04
279704,2797.04
279804,2798.04
279903,2799.03
280001,2800.01
280101,2801.01
280199,2801.99
280296,2802.96
280392,2803.92
280488,2804.88
280584,2805.84
280678,2806.78
280771,2807.71
280865,2808.65
280957,2809.57
281050,2810.5
281145,2811.45
281241,2812.41
281337,2813.37
281435,2814.35
281533,2815.33
281630,2816.3
281729,2817.29
281828,2818.28
281926,2819.26
282023,2820.23
282122,2821.22
282221,2822.21
282319,2823.19
282417,2824.17
282513,2825.13
282611,2826.11
282709,2827.09
282806,2828.06
282907,2829.07
283009,2830.09
283108,2831.08
283208,2832.08
283305,2833.05
283405,2834.05
283503,2835.03
283601,2836.01
283702,2837.02
283802,2838.02
283900,2839.0
284001,2840.01
284103,2841.03
284202,2842.02
284301,2843.01
284401,2844.01
284501,2845.01
284599,2845.99
284698,2846.98
284797,2847.97
284895,2848.95
284992,2849.92
285088,2850.88
285184,2851.84
285280,2852.8
285374,2853.74
285467,2854.67
285561,2855.61
285656,2856.56
285751,2857.51
285846,2858.46
285941,2859.41
286038,2860.38
286137,2861.37
286235,2862.35
286334,2863.34
286431,2864.31
286530,2865.3
286625,2866.25
286719,2867.19
286813,2868.13
286904,2869.04
286995,2869.95
287089,2870.89
287183,2871.83
287277,2872.77
287373,2873.73
287472,2874.72
287570,2875.7
287669,2876.69
287768,2877.68
287868,2878.68
287968,2879.68
288066,2880.66
288164,2881.64
288262,2882.62
288359,2883.59
288455,2884.55
288551,2885.51
288648,2886.48
288744,2887.44
288838,2888.38
288932,2889.32
289028,2890.28
289124,2891.24
289220,2892.2
289317,2893.17
289414,2894.14
289512,2895.12
289611,2896.11
289709,2897.09
289810,2898.1
289912,2899.12
290008,2900.08
290105,2901.05
290195,2901.95
290285,2902.85
290388,2903.88
290481,2904.81
290581,2905.81
290677,2906.77
290772,2907.72
290869,2908.69
290968,2909.68
291070,2910.7
291172,2911.72
291275,2912.75
291379,2913.79
291484,2914.84
291587,2915.87
291690,2916.9
291794,2917.94
291897,2918.97
291999,2919.99
292099,2920.99
292195,2921.95
292290,2922.9
292384,2923.84
292477,2924.77
292570,2925.7
292661,2926.61
292754,2927.54
292847,2928.47
292941,2929.41
293037,2930.37
293132,2931.32
293229,2932.29
293327,2933.27
293423,2934.23
293520,2935.2
293618,2936.18
293718,2937.18
293820,2938.2
293921,2939.21
294022,2940.22
294124,2941.24
294225,2942.25
294324,2943.24
294423,2944.23
294523,2945.23
294622,2946.22
294720,2947.2
294815,2948.15
294911,2949.11
295007,2950.07
295104,2951.04
295200,2952.0
295294,2952.94
295388,2953.88
295482,2954.82
295577,2955.77
295672,2956.72
295765,2957.65
295860,2958.6
295957,2959.57
296054,2960.54
296150,2961.5
296249,2962.49
296350,2963.5
296453,2964.53
296562,2965.62
296672,2966.72
296774,2967.74
296877,2968.77
296982,2969.82
297085,2970.85
297184,2971.84
297280,2972.8
297374,2973.74
297466,2974.66
297560,2975.6
297655,2976.55
297751,2977.51
297848,2978.48
297945,2979.45
298043,2980.43
298142,2981.42
298239,2982.39
298337,2983.37
298434,2984.34
298531,2985.31
298626,2986.26
298721,2987.21
298815,2988.15
298909,2989.09
299002,2990.02
299094,2990.94
299186,2991.86
299278,2992.78
299371,2993.71
299462,2994.62
299554,2995.54
299647,2996.47
299741,2997.41
299836,2998.36
299934,2999.34
300034,3000.34
300132,3001.32
300228,3002.28
300328,3003.28
300429,3004.29
300529,3005.29
300629,3006.29
300731,3007.31
300831,3008.31
300931,3009.31
301032,3010.32
301132,3011.32
301232,3012.32
301332,3013.32
301433,3014.33
301531,3015.31
301629,3016.29
301729,3017.29
301827,3018.27
301924,3019.24
302022,3020.22
302120,3021.2
302216,3022.16
302311,3023.11
302408,3024.08
302504,3025.04
302600,3026.0
302695,3026.95
302791,3027.91
302887,3028.87
302983,3029.83
303082,3030.82
303182,3031.82
303279,3032.79
303376,3033.76
303474,3034.74
303571,3035.71
303666,3036.66
303759,3037.59
303854,3038.54
303950,3039.5
304044,3040.44
304141,3041.41
304239,3042.39
304336,3043.36
304438,3044.38
304541,3045.41
304643,3046.43
304746,3047.46
304850,3048.5
304953,3049.53
305055,3050.55
305154,3051.54
305253,3052.53
305350,3053.5
305447,3054.47
305543,3055.43
305639,3056.39
305734,3057.34
305828,3058.28
305924,3059.24
306018,3060.18
306114,3061.14
306213,3062.13
306312,3063.12
306411,3064.11
306509,3065.09
306610,3066.1
306712,3067.12
306814,3068.14
306912,3069.12
307009,3070.09
307102,3071.02
307194,3071.94
307286,3072.86
307380,3073.8
307473,3074.73
307566,3075.66
307663,3076.63
307761,3077.61
307859,3078.59
307959,3079.59
308060,3080.6
308159,3081.59
308260,3082.6
308361,3083.61
308461,3084.61
308563,3085.63
308665,3086.65
308767,3087.67
308868,3088.68
308969,3089.69
309070,3090.7
309168,3091.68
309264,3092.64
309361,3093.61
309457,3094.57
309551,3095.51
309648,3096.48
309750,3097.5
309851,3098.51
309950,3099.5
310048,3100.48
310151,3101.51
310253,3102.53
310353,3103.53
310454,3104.54
310557,3105.57
310658,3106.58
310760,3107.6
310861,3108.61
310960,3109.6
311061,3110.61
311161,3111.61
311260,3112.6
311359,3113.59
311459,3114.59
311560,3115.6
311661,3116.61
311759,3117.59
311857,3118.57
311955,3119.55
312054,3120.54
312153,3121.53
312251,3122.51
312349,3123.49
312448,3124.48
312545,3125.45
312643,3126.43
312740,3127.4
312839,3128.39
312938,3129.38
313036,3130.36
313137,3131.37
313239,3132.39
313337,3133.37
313433,3134.33
313527,3135.27
313621,3136.21
313719,3137.19
313815,3138.15
313912,3139.12
314011,3140.11
314110,3141.1
314207,3142.07
314307,3143.07
314408,3144.08
314508,3145.08
314609,3146.09
314711,3147.11
314812,3148.12
314912,3149.12
315012,3150.12
315111,3151.11
315209,3152.09
315305,3153.05
315400,3154.0
315494,3154.94
315588,3155.88
315683,3156.83
315777,3157.77
315870,3158.7
315964,3159.64
316059,3160.59
316156,3161.56
316251,3162.51
316347,3163.47
316447,3164.47
316548,3165.48
316647,3166.47
316744,3167.44
316843,3168.43
316941,3169.41
317038,3170.38
317138,3171.38
317239,3172.39
317339,3173.39
317439,3174.39
317541,3175.41
317641,3176.41
317743,3177.43
317846,3178.46
317949,3179.49
318050,3180.5
318150,3181.5
318250,3182.5
318348,3183.48
318445,3184.45
318542,3185.42
318640,3186.4
318738,3187.38
318836,3188.36
318933,3189.33
319033,3190.33
319133,3191.33
319233,3192.33
319332,3193.32
319430,3194.3
319529,3195.29
319628,3196.28
319725,3197.25
319824,3198.24
319924,3199.24
320022,3200.22
320121,3201.21
320221,3202.21
320317,3203.17
320413,3204.13
320505,3205.05
320598,3205.98
320693,3206.93
320785,3207.85
320877,3208.77
320970,3209.7
321062,3210.62
321155,3211.55
321249,3212.49
321340,3213.4
321434,3214.34
321528,3215.28
321620,3216.2
321713,3217.13
321807,3218.07
321902,3219.02
321997,3219.97
322092,3220.92
322187,3221.87
322282,3222.82
322377,3223.77
322470,3224.7
322564,3225.64
322658,3226.58
322753,3227.53
322846,3228.46
322939,3229.39
323033,3230.33
323128,3231.28
323223,3232.23
323317,3233.17
323412,3234.12
323509,3235.09
323605,3236.05
323701,3237.01
323799,3237.99
323897,3238.97
323997,3239.97
324094,3240.94
324193,3241.93
324291,3242.91
324386,3243.86
324482,3244.82
324579,3245.79
324675,3246.75
324772,3247.72
324871,3248.71
324971,3249.71
325072,3250.72
325174,3251.74
325276,3252.76
325378,3253.78
325480,3254.8
325584,3255.84
325687,3256.87
325790,3257.9
325891,3258.91
325991,3259.91
326091,3260.91
326191,3261.91
326289,3262.89
326385,3263.85
326481,3264.81
326576,3265.76
326671,3266.71
326763,3267.63
326856,3268.56
326951,3269.51
327050,3270.5
327148,3271.48
327245,3272.45
327342,3273.42
327439,3274.39
327536,3275.36
327633,3276.33
327735,3277.35
327835,3278.35
327938,3279.38
328043,3280.43
328148,3281.48
328252,3282.52
328357,3283.57
328462,3284.62
328565,3285.65
328664,3286.64
328764,3287.64
328864,3288.64
328961,3289.61
329057,3290.57
329153,3291.53
329249,3292.49
329343,3293.43
329438,3294.38
329533,3295.33
329629,3296.29
329725,3297.25
329821,3298.21
329920,3299.2
330018,3300.18
330116,3301.16
330212,3302.12
330309,3303.09
330403,3304.03
330501,3305.01
330600,3306.0
330698,3306.98
330798,3307.98
330900,3309.0
331000,3310.0
331101,3311.01
331202,3312.02
331301,3313.01
331399,3313.99
331496,3314.96
331593,3315.93
331689,3316.89
331784,3317.84
331879,3318.79
331974,3319.74
332068,3320.68
332161,3321.61
332253,3322.53
332347,3323.47
332441,3324.41
332537,3325.37
332631,3326.31
332725,3327.25
332820,3328.2
332917,3329.17
333013,3330.13
333110,3331.1
333209,3332.09
333309,3333.09
333403,3334.03
333498,3334.98
333589,3335.89
333680,3336.8
333773,3337.73
333870,3338.7
333967,3339.67
334065,3340.65
334165,3341.65
334265,3342.65
334366,3343.66
334468,3344.68
334572,3345.72
334675,3346.75
334778,3347.78
334880,3348.8
334981,3349.81
335078,3350.78
335176,3351.76
335272,3352.72
335366,3353.66
335460,3354.6
335556,3355.56
335650,3356.5
335744,3357.44
335840,3358.4
335934,3359.34
336029,3360.29
336124,3361.24
336220,3362.2
336315,3363.15
336412,3364.12
336509,3365.09
336610,3366.1
336704,3367.04
336799,3367.99
336891,3368.91
336982,3369.82
337073,3370.73
337166,3371.66
337257,3372.57
337350,3373.5
337445,3374.45
337541,3375.41
337637,3376.37
337734,3377.34
337832,3378.32
337930,3379.3
338028,3380.28
338124,3381.24
338219,3382.19
338314,3383.14
338408,3384.08
338499,3384.99
338592,3385.92
338685,3386.85
338777,3387.77
338870,3388.7
338963,3389.63
339056,3390.56
339149,3391.49
339243,3392.43
339337,3393.37
339432,3394.32
339527,3395.27
339622,3396.22
339716,3397.16
339812,3398.12
339909,3399.09
340007,3400.07
340104,3401.04
340201,3402.01
340300,3403.0
340399,3403.99
340496,3404.96
340593,3405.93
340689,3406.89
340787,3407.87
340883,3408.83
340980,3409.8
341079,3410.79
341177,3411.77
341274,3412.74
341373,3413.73
341470,3414.7
341566,3415.66
341664,3416.64
341762,3417.62
341858,3418.58
341953,3419.53
342049,3420.49
342144,3421.44
342238,3422.38
342334,3423.34
342431,3424.31
342530,3425.3
342627,3426.27
342723,3427.23
342821,3428.21
342919,3429.19
343015,3430.15
343112,3431.12
343208,3432.08
343304,3433.04
343400,3434.0
343495,3434.95
343592,3435.92
343687,3436.87
343784,3437.84
343882,3438.82
343981,3439.81
344077,3440.77
344173,3441.73
344266,3442.66
344358,3443.58
344450,3444.5
344546,3445.46
344639,3446.39
344735,3447.35
344833,3448.33
344933,3449.33
345032,3450.32
345131,3451.31
345232,3452.32
345330,3453.3
345428,3454.28
345527,3455.27
345627,3456.27
345724,3457.24
345821,3458.21
345919,3459.19
346018,3460.18
346116,3461.16
346213,3462.13
346310,3463.1
346407,3464.07
346504,3465.04
346599,3465.99
346694,3466.94
346790,3467.9
346886,3468.86
346982,3469.82
347078,3470.78
347179,3471.79
347280,3472.8
347380,3473.8
347477,3474.77
347577,3475.77
347674,3476.74
347774,3477.74
347874,3478.74
347972,3479.72
348075,3480.75
348178,3481.78
348280,3482.8
348384,3483.84
348488,3484.88
348590,3485.9
348692,3486.92
348795,3487.95
348895,3488.95
348995,3489.95
349094,3490.94
349193,3491.93
349292,3492.92
349392,3493.92
349491,3494.91
349589,3495.89
349687,3496.87
349782,3497.82
349878,3498.78
349974,3499.74
350071,3500.71
350169,3501.69
350263,3502.63
350359,3503.59
350457,3504.57
350554,3505.54
350654,3506.54
350759,3507.59
350859,3508.59
350960,3509.6
351064,3510.64
351165,3511.65
351265,3512.65
351366,3513.66
351467,3514.67
351565,3515.65
351664,3516.64
351763,3517.63
351862,3518.62
351960,3519.6
352057,3520.57
352154,3521.54
352251,3522.51
352347,3523.47
352442,3524.42
352538,3525.38
352636,3526.36
352732,3527.32
352828,3528.28
352925,3529.25
353023,3530.23
353122,3531.22
353221,3532.21
353320,3533.2
353420,3534.2
353515,3535.15
353608,3536.08
353700,3537.0
353791,3537.91
353884,3538.84
353979,3539.79
354072,3540.72
354167,3541.67
354265,3542.65
354364,3543.64
354464,3544.64
354566,3545.66
354669,3546.69
354771,3547.71
354873,3548.73
354976,3549.76
355079,3550.79
355179,3551.79
355280,3552.8
355380,3553.8
355479,3554.79
355577,3555.77
355673,3556.73
355768,3557.68
355863,3558.63
355958,3559.58
356053,3560.53
356149,3561.49
356246,3562.46
356345,3563.45
356443,3564.43
356541,3565.41
356640,3566.4
356739,3567.39
356840,3568.4
356943,3569.43
357044,3570.44
357141,3571.41
357239,3572.39
357339,3573.39
357437,3574.37
357537,3575.37
357635,3576.35
357736,3577.36
357840,3578.4
357942,3579.42
358047,3580.47
358154,3581.54
358261,3582.61
358366,3583.66
358472,3584.72
358579,3585.79
358683,3586.83
358786,3587.86
358888,3588.88
358990,3589.9
359090,3590.9
359188,3591.88
359287,3592.87
359385,3593.85
359484,3594.84
359580,3595.8
359677,3596.77
359774,3597.74
359873,3598.73
359971,3599.71
360069,3600.69
360170,3601.7
360271,3602.71
360373,3603.73
360470,3604.7
360569,3605.69
360665,3606.65
360762,3607.62
360863,3608.63
360962,3609.62
361061,3610.61
361162,3611.62
361263,3612.63
361363,3613.63
361464,3614.64
361563,3615.63
361662,3616.62
361761,3617.61
361859,3618.59
361957,3619.57
362055,3620.55
362152,3621.52
362248,3622.48
362342,3623.42
362437,3624.37
362533,3625.33
362630,3626.3
362726,3627.26
362820,3628.2
362915,3629.15
363010,3630.1
363107,3631.07
363205,3632.05
363303,3633.03
363403,3634.03
363505,3635.05
363608,3636.08
363710,3637.1
363815,3638.15
363920,3639.2
364023,3640.23
364127,3641.27
364231,3642.31
364330,3643.3
364427,3644.27
364522,3645.22
364618,3646.18
364717,3647.17
364814,3648.14
364914,3649.14
365015,3650.15
365113,3651.13
365213,3652.13
365313,3653.13
365411,3654.11
365511,3655.11
365611,3656.11
365708,3657.08
365805,3658.05
365903,3659.03
365999,3659.99
366095,3660.95
366191,3661.91
366288,3662.88
366384,3663.84
366479,3664.79
366573,3665.73
366667,3666.67
366761,3667.61
366855,3668.55
366949,3669.49
367044,3670.44
367137,3671.37
367233,3672.33
367324,3673.24
367417,3674.17
367510,3675.1
367603,3676.03
367699,3676.99
367798,3677.98
367898,3678.98
367997,3679.97
368096,3680.96
368196,3681.96
368295,3682.95
368396,3683.96
368496,3684.96
368595,3685.95
368696,3686.96
368798,3687.98
368897,3688.97
368994,3689.94
369091,3690.91
369188,3691.88
369284,3692.84
369384,3693.84
369483,3694.83
369581,3695.81
369682,3696.82
369782,3697.82
369881,3698.81
369982,3699.82
370084,3700.84
370185,3701.85
370288,3702.88
370392,3703.92
370496,3704.96
370598,3705.98
370701,3707.01
370803,3708.03
370906,3709.06
371005,3710.05
371103,3711.03
371201,3712.01
371299,3712.99
371397,3713.97
371493,3714.93
371589,3715.89
371685,3716.85
371781,3717.81
371877,3718.77
371973,3719.73
372071,3720.71
372167,3721.67
372265,3722.65
372364,3723.64
372462,3724.62
372563,3725.63
372664,3726.64
372764,3727.64
372866,3728.66
372966,3729.66
373067,3730.67
373170,3731.7
373273,3732.73
373374,3733.74
373476,3734.76
373579,3735.79
373681,3736.81
373782,3737.82
373882,3738.82
373982,3739.82
374081,3740.81
374179,3741.79
374277,3742.77
374374,3743.74
374472,3744.72
374567,3745.67
374662,3746.62
374757,3747.57
374851,3748.51
374946,3749.46
375041,3750.41
375135,3751.35
375231,3752.31
375329,3753.29
375429,3754.29
375526,3755.26
375622,3756.22
375719,3757.19
375814,3758.14
375911,3759.11
376009,3760.09
376106,3761.06
376205,3762.05
376306,3763.06
376406,3764.06
376506,3765.06
376605,3766.05
376705,3767.05
376804,3768.04
376904,3769.04
377004,3770.04
377102,3771.02
377200,3772.0
377299,3772.99
377397,3773.97
377493,3774.93
377589,3775.89
377686,3776.86
377784,3777.84
377882,3778.82
377978,3779.78
378073,3780.73
378168,3781.68
378264,3782.64
378360,3783.6
378457,3784.57
378554,3785.54
378652,3786.52
378749,3787.49
378847,3788.47
378948,3789.48
379048,3790.48
379151,3791.51
379257,3792.57
379361,3793.61
379465,3794.65
379570,3795.7
379675,3796.75
379779,3797.79
379884,3798.84
379988,3799.88
380091,3800.91
380193,3801.93
380295,3802.95
380394,3803.94
380494,3804.94
380593,3805.93
380692,3806.92
380789,3807.89
380886,3808.86
380983,3809.83
381079,3810.79
381174,3811.74
381269,3812.69
381367,3813.67
381467,3814.67
381568,3815.68
381664,3816.64
381761,3817.61
381860,3818.6
381957,3819.57
382055,3820.55
382157,3821.57
382258,3822.58
382359,3823.59
382464,3824.64
382569,3825.69
382672,3826.72
382777,3827.77
382884,3828.84
382991,3829.91
383096,3830.96
383201,3832.01
383305,3833.05
383407,3834.07
383506,3835.06
383603,3836.03
383700,3837.0
383796,3837.96
383892,3838.92
383987,3839.87
384082,3840.82
384179,3841.79
384277,3842.77
384373,3843.73
384470,3844.7
384568,3845.68
384667,3846.67
384767,3847.67
384867,3848.67
384968,3849.68
385070,3850.7
385168,3851.68
385266,3852.66
385365,3853.65
385465,3854.65
385565,3855.65
385667,3856.67
385770,3857.7
385871,3858.71
385974,3859.74
386079,3860.79
386184,3861.84
386287,3862.87
386392,3863.92
386497,3864.97
386600,3866.0
386702,3867.02
386806,3868.06
386908,3869.08
387010,3870.1
387112,3871.12
387213,3872.13
387315,3873.15
387415,3874.15
387514,3875.14
387612,3876.12
387710,3877.1
387807,3878.07
387903,3879.03
388000,3880.0
388099,3880.99
388196,3881.96
388294,3882.94
388397,3883.97
388500,3885.0
388599,3885.99
388697,3886.97
388793,3887.93
388888,3888.88
388987,3889.87
389088,3890.88
389187,3891.87
389289,3892.89
389391,3893.91
389492,3894.92
389595,3895.95
389699,3896.99
389802,3898.02
389904,3899.04
390007,3900.07
390110,3901.1
390210,3902.1
390310,3903.1
390410,3904.1
390509,3905.09
390607,3906.07
390704,3907.04
390802,3908.02
390900,3909.0
390996,3909.96
391092,3910.92
391189,3911.89
391286,3912.86
391383,3913.83
391479,3914.79
391575,3915.75
391673,3916.73
391770,3917.7
391868,3918.68
391967,3919.67
392066,3920.66
392165,3921.65
392263,3922.63
392364,3923.64
392466,3924.66
392566,3925.66
392671,3926.71
392777,3927.77
392879,3928.79
392982,3929.82
393080,3930.8
393175,3931.75
393269,3932.69
393365,3933.65
393458,3934.58
393555,3935.55
393649,3936.49
393746,3937.46
393844,3938.44
393942,3939.42
394040,3940.4
394139,3941.39
394239,3942.39
394338,3943.38
394436,3944.36
394534,3945.34
394632,3946.32
394730,3947.3
394828,3948.28
394924,3949.24
395020,3950.2
395116,3951.16
395210,3952.1
395303,3953.03
395397,3953.97
395493,3954.93
395591,3955.91
395687,3956.87
395784,3957.84
395883,3958.83
395984,3959.84
396082,3960.82
396182,3961.82
396283,3962.83
396383,3963.83
396483,3964.83
396586,3965.86
396688,3966.88
396789,3967.89
396891,3968.91
396992,3969.92
397091,3970.91
397191,3971.91
397290,3972.9
397387,3973.87
397484,3974.84
397582,3975.82
397681,3976.81
397779,3977.79
397877,3978.77
397976,3979.76
398077,3980.77
398179,3981.79
398280,3982.8
398382,3983.82
398484,3984.84
398586,3985.86
398685,3986.85
398784,3987.84
398885,3988.85
398987,3989.87
399085,3990.85
399184,3991.84
399284,3992.84
399381,3993.81
399478,3994.78
399579,3995.79
399678,3996.78
399778,3997.78
399880,3998.8
399983,3999.83
400084,4000.84
400186,4001.86
400287,4002.87
400387,4003.87
400487,4004.87
400587,4005.87
400686,4006.86
400784,4007.84
400883,4008.83
400982,4009.82
401080,4010.8
401176,4011.76
401272,4012.72
401369,4013.69
401465,4014.65
401561,4015.61
401657,4016.57
401752,4017.52
401846,4018.46
401941,4019.41
402036,4020.36
402129,4021.29
402222,4022.22
402317,4023.17
402412,4024.12
402508,4025.08
402605,4026.05
402703,4027.03
402805,4028.05
402906,4029.06
403007,4030.07
403105,4031.05
403204,4032.04
403299,4032.99
403395,4033.95
403493,4034.93
403592,4035.92
403690,4036.9
403791,4037.91
403893,4038.93
403995,4039.95
404098,4040.98
404201,4042.01
404303,4043.03
404404,4044.04
404505,4045.05
404605,4046.05
404704,4047.04
404802,4048.02
404901,4049.01
405000,4050.0
405100,4051.0
405198,4051.98
405296,4052.96
405395,4053.95
405492,4054.92
405588,4055.88
405685,4056.85
405782,4057.82
405878,4058.78
405974,4059.74
406072,4060.72
406171,4061.71
406269,4062.69
406368,4063.68
406468,4064.68
406568,4065.68
406669,4066.69
406768,4067.68
406866,4068.66
406962,4069.62
407056,4070.56
407149,4071.49
407241,4072.41
407324,4073.24
407408,4074.08
407520,4075.2
407614,4076.14
407708,4077.08
407804,4078.04
407899,4078.99
407997,4079.97
408096,4080.96
408196,4081.96
408296,4082.96
408396,4083.96
408496,4084.96
408596,4085.96
408694,4086.94
408793,4087.93
408891,4088.91
408989,4089.89
409084,4090.84
409181,4091.81
409277,4092.77
409373,4093.73
409466,4094.66
409561,4095.61
409658,4096.58
409759,4097.59
409858,4098.58
409958,4099.58
410059,4100.59
410161,4101.61
410262,4102.62
410361,4103.61
410460,4104.6
410557,4105.57
410657,4106.57
410759,4107.59
410859,4108.59
410963,4109.63
411068,4110.68
411171,4111.71
411275,4112.75
411380,4113.8
411483,4114.83
411585,4115.85
411687,4116.87
411788,4117.88
411888,4118.88
411984,4119.84
412081,4120.81
412178,4121.78
412276,4122.76
412373,4123.73
412470,4124.7
412567,4125.67
412665,4126.65
412760,4127.6
412855,4128.55
412950,4129.5
413047,4130.47
413143,4131.43
413240,4132.4
413338,4133.38
413439,4134.39
413539,4135.39
413638,4136.38
413740,4137.4
413842,4138.42
413937,4139.37
414035,4140.35
414130,4141.3
414226,4142.26
414325,4143.25
414422,4144.22
414523,4145.23
414623,4146.23
414724,4147.24
414829,4148.29
414934,4149.34
415037,4150.37
415141,4151.41
415245,4152.45
415350,4153.5
415452,4154.52
415555,4155.55
415657,4156.57
415758,4157.58
415859,4158.59
415956,4159.56
416051,4160.51
416146,4161.46
416242,4162.42
416337,4163.37
416431,4164.31
416527,4165.27
416625,4166.25
416723,4167.23
416820,4168.2
416920,4169.2
417021,4170.21
417121,4171.21
417220,4172.2
417322,4173.22
417425,4174.25
417523,4175.23
417624,4176.24
417725,4177.25
417824,4178.24
417927,4179.27
418027,4180.27
418128,4181.28
418231,4182.31
418332,4183.32
418432,4184.32
418535,4185.35
418637,4186.37
418738,4187.38
418840,4188.4
418941,4189.41
419043,4190.43
419142,4191.42
419242,4192.42
419343,4193.43
419443,4194.43
419542,4195.42
419640,4196.4
419738,4197.38
419834,4198.34
419928,4199.28
420022,4200.22
420116,4201.16
420212,4202.12
420307,4203.07
420401,4204.01
420499,4204.99
420599,4205.99
420701,4207.01
420799,4207.99
420895,4208.95
420993,4209.93
421090,4210.9
421187,4211.87
421287,4212.87
421384,4213.84
421481,4214.81
421580,4215.8
421680,4216.8
421779,4217.79
421878,4218.78
421979,4219.79
422080,4220.8
422180,4221.8
422280,4222.8
422382,4223.82
422481,4224.81
422579,4225.79
422676,4226.76
422773,4227.73
422869,4228.69
422964,4229.64
423059,4230.59
423155,4231.55
423254,4232.54
423351,4233.51
423448,4234.48
423546,4235.46
423645,4236.45
423741,4237.41
423837,4238.37
423934,4239.34
424034,4240.34
424136,4241.36
424240,4242.4
424342,4243.42
424445,4244.45
424548,4245.48
424650,4246.5
424752,4247.52
424853,4248.53
424954,4249.54
425053,4250.53
425152,4251.52
425250,4252.5
425349,4253.49
425446,4254.46
425542,4255.42
425639,4256.39
425739,4257.39
425837,4258.37
425935,4259.35
426033,4260.33
426131,4261.31
426227,4262.27
426326,4263.26
426425,4264.25
426530,4265.3
426631,4266.31
426731,4267.31
426835,4268.35
426935,4269.35
427039,4270.39
427142,4271.42
427242,4272.42
427345,4273.45
427447,4274.47
427546,4275.46
427647,4276.47
427747,4277.47
427846,4278.46
427946,4279.46
428043,4280.43
428141,4281.41
428238,4282.38
428337,4283.37
428435,4284.35
428532,4285.32
428629,4286.29
428725,4287.25
428819,4288.19
428914,4289.14
429009,4290.09
429105,4291.05
429201,4292.01
429297,4292.97
429394,4293.94
429491,4294.91
429587,4295.87
429683,4296.83
429780,4297.8
429878,4298.78
429973,4299.73
430069,4300.69
430167,4301.67
430265,4302.65
430363,4303.63
430461,4304.61
430560,4305.6
430659,4306.59
430758,4307.58
430858,4308.58
430960,4309.6
431063,4310.63
431158,4311.58
431253,4312.53
431346,4313.46
431443,4314.43
431541,4315.41
431637,4316.37
431738,4317.38
431839,4318.39
431941,4319.41
432042,4320.42
432146,4321.46
432248,4322.48
432351,4323.51
432455,4324.55
432559,4325.59
432661,4326.61
432764,4327.64
432867,4328.67
432969,4329.69
433070,4330.7
433169,4331.69
433270,4332.7
433371,4333.71
433471,4334.71
433569,4335.69
433667,4336.67
433765,4337.65
433863,4338.63
433961,4339.61
434058,4340.58
434157,4341.57
434254,4342.54
434351,4343.51
434449,4344.49
434550,4345.5
434652,4346.52
434756,4347.56
434861,4348.61
434965,4349.65
435067,4350.67
435169,4351.69
435272,4352.72
435374,4353.74
435475,4354.75
435574,4355.74
435675,4356.75
435777,4357.77
435878,4358.78
435979,4359.79
436081,4360.81
436184,4361.84
436284,4362.84
436384,4363.84
436484,4364.84
436584,4365.84
436683,4366.83
436782,4367.82
436881,4368.81
436980,4369.8
437077,4370.77
437175,4371.75
437273,4372.73
437373,4373.73
437472,4374.72
437572,4375.72
437673,4376.73
437776,4377.76
437876,4378.76
437977,4379.77
438082,4380.82
438183,4381.83
438281,4382.81
438383,4383.83
438485,4384.85
438588,4385.88
438691,4386.91
438792,4387.92
438891,4388.91
438992,4389.92
439092,4390.92
439190,4391.9
439289,4392.89
439391,4393.91
439489,4394.89
439590,4395.9
439691,4396.91
439792,4397.92
439892,4398.92
439993,4399.93
440094,4400.94
440195,4401.95
440296,4402.96
440394,4403.94
440494,4404.94
440594,4405.94
440691,4406.91
440788,4407.88
440887,4408.87
440988,4409.88
441090,4410.9
441193,4411.93
441293,4412.93
441395,4413.95
441495,4414.95
441594,4415.94
441696,4416.96
441797,4417.97
441898,4418.98
442002,4420.02
442105,4421.05
442206,4422.06
442307,4423.07
442409,4424.09
442508,4425.08
442608,4426.08
442708,4427.08
442807,4428.07
442906,4429.06
443003,4430.03
443102,4431.02
443201,4432.01
443300,4433.0
443397,4433.97
443494,4434.94
443592,4435.92
443690,4436.9
443788,4437.88
443885,4438.85
443983,4439.83
444082,4440.82
444180,4441.8
444277,4442.77
444376,4443.76
444472,4444.72
444570,4445.7
444671,4446.71
444770,4447.7
444871,4448.71
444974,4449.74
445076,4450.76
445179,4451.79
445284,4452.84
445389,4453.89
445493,4454.93
445598,4455.98
445703,4457.03
445806,4458.06
445906,4459.06
446006,4460.06
446105,4461.05
446202,4462.02
446299,4462.99
446396,4463.96
446493,4464.93
446589,4465.89
446686,4466.86
446785,4467.85
446883,4468.83
446980,4469.8
447075,4470.75
447172,4471.72
447269,4472.69
447363,4473.63
447461,4474.61
447560,4475.6
447658,4476.58
447757,4477.57
447859,4478.59
447961,4479.61
448063,4480.63
448167,4481.67
448271,4482.71
448372,4483.72
448473,4484.73
448574,4485.74
448675,4486.75
448775,4487.75
448873,4488.73
448972,4489.72
449071,4490.71
449168,4491.68
449265,4492.65
449364,4493.64
449463,4494.63
449561,4495.61
449659,4496.59
449760,4497.6
449859,4498.59
449958,4499.58
450059,4500.59
450162,4501.62
450264,4502.64
450367,4503.67
450467,4504.67
450566,4505.66
450666,4506.66
450764,4507.64
450859,4508.59
450956,4509.56
451054,4510.54
451153,4511.53
451250,4512.5
451349,4513.49
451448,4514.48
451545,4515.45
451641,4516.41
451738,4517.38
451836,4518.36
451933,4519.33
452031,4520.31
452131,4521.31
452233,4522.33
452334,4523.34
452435,4524.35
452536,4525.36
452637,4526.37
452738,4527.38
452837,4528.37
452935,4529.35
453034,4530.34
453131,4531.31
453228,4532.28
453324,4533.24
453420,4534.2
453518,4535.18
453615,4536.15
453713,4537.13
453813,4538.13
453912,4539.12
454012,4540.12
454118,4541.18
454224,4542.24
454329,4543.29
454435,4544.35
454541,4545.41
454647,4546.47
454756,4547.56
454866,4548.66
454973,4549.73
455080,4550.8
455186,4551.86
455293,4552.93
455399,4553.99
455503,4555.03
455607,4556.07
455709,4557.09
455809,4558.09
455907,4559.07
456005,4560.05
456102,4561.02
456198,4561.98
456292,4562.92
456387,4563.87
456481,4564.81
456576,4565.76
456671,4566.71
456766,4567.66
456859,4568.59
456953,4569.53
457048,4570.48
457145,4571.45
457244,4572.44
457341,4573.41
457441,4574.41
457543,4575.43
457645,4576.45
457745,4577.45
457846,4578.46
457949,4579.49
458054,4580.54
458156,4581.56
458259,4582.59
458364,4583.64
458469,4584.69
458573,4585.73
458678,4586.78
458782,4587.82
458888,4588.88
458995,4589.95
459099,4590.99
459206,4592.06
459311,4593.11
459413,4594.13
459515,4595.15
459617,4596.17
459716,4597.16
459816,4598.16
459915,4599.15
460013,4600.13
460112,4601.12
460211,4602.11
460310,4603.1
460407,4604.07
460505,4605.05
460603,4606.03
460701,4607.01
460799,4607.99
460898,4608.98
460997,4609.97
461095,4610.95
461191,4611.91
461286,4612.86
461381,4613.81
461476,4614.76
461572,4615.72
461667,4616.67
461762,4617.62
461859,4618.59
461956,4619.56
462054,4620.54
462153,4621.53
462259,4622.59
462365,4623.65
462466,4624.66
462570,4625.7
462672,4626.72
462776,4627.76
462884,4628.84
462988,4629.88
463094,4630.94
463200,4632.0
463305,4633.05
463411,4634.11
463517,4635.17
463622,4636.22
463727,4637.27
463833,4638.33
463938,4639.38
464042,4640.42
464147,4641.47
464248,4642.48
464349,4643.49
464447,4644.47
464546,4645.46
464644,4646.44
464741,4647.41
464838,4648.38
464935,4649.35
465032,4650.32
465128,4651.28
465226,4652.26
465325,4653.25
465423,4654.23
465524,4655.24
465627,4656.27
465727,4657.27
465828,4658.28
465932,4659.32
466034,4660.34
466134,4661.34
466235,4662.35
466334,4663.34
466434,4664.34
466535,4665.35
466635,4666.35
466737,4667.37
466837,4668.37
466937,4669.37
467038,4670.38
467139,4671.39
467239,4672.39
467339,4673.39
467440,4674.4
467541,4675.41
467641,4676.41
467741,4677.41
467841,4678.41
467942,4679.42
468042,4680.42
468140,4681.4
468238,4682.38
468336,4683.36
468433,4684.33
468532,4685.32
468629,4686.29
468726,4687.26
468824,4688.24
468925,4689.25
469024,4690.24
469125,4691.25
469228,4692.28
469331,4693.31
469432,4694.32
469534,4695.34
469637,4696.37
469738,4697.38
469836,4698.36
469935,4699.35
470030,4700.3
470126,4701.26
470223,4702.23
470322,4703.22
470419,4704.19
470518,4705.18
470617,4706.17
470717,4707.17
470819,4708.19
470922,4709.22
471024,4710.24
471126,4711.26
471229,4712.29
471332,4713.32
471432,4714.32
471532,4715.32
471633,4716.33
471734,4717.34
471834,4718.34
471931,4719.31
472030,4720.3
472130,4721.3
472231,4722.31
472331,4723.31
472431,4724.31
472531,4725.31
472632,4726.32
472731,4727.31
472829,4728.29
472927,4729.27
473026,4730.26
473123,4731.23
473220,4732.2
473327,4733.27
473435,4734.35
473540,4735.4
473645,4736.45
473749,4737.49
473854,4738.54
473952,4739.52
474049,4740.49
474143,4741.43
474239,4742.39
474334,4743.34
474427,4744.27
474523,4745.23
474620,4746.2
474714,4747.14
474809,4748.09
474906,4749.06
475000,4750.0
475096,4750.96
475192,4751.92
475286,4752.86
475381,4753.81
475477,4754.77
475572,4755.72
475666,4756.66
475761,4757.61
475856,4758.56
475951,4759.51
476047,4760.47
476143,4761.43
476238,4762.38
476333,4763.33
476427,4764.27
476521,4765.21
476615,4766.15
476709,4767.09
476803,4768.03
476897,4768.97
476990,4769.9
477086,4770.86
477183,4771.83
477280,4772.8
477381,4773.81
477483,4774.83
477582,4775.82
477681,4776.81
477782,4777.82
477884,4778.84
477984,4779.84
478085,4780.85
478189,4781.89
478290,4782.9
478393,4783.93
478495,4784.95
478597,4785.97
478700,4787.0
478801,4788.01
478901,4789.01
479001,4790.01
479100,4791.0
479199,4791.99
479295,4792.95
479391,4793.91
479486,4794.86
479581,4795.81
479675,4796.75
479769,4797.69
479860,4798.6
479951,4799.51
480043,4800.43
480134,4801.34
480225,4802.25
480317,4803.17
480412,4804.12
480508,4805.08
480603,4806.03
480700,4807.0
480799,4807.99
480897,4808.97
480995,4809.95
481101,4811.01
481208,4812.08
481310,4813.1
481411,4814.11
481513,4815.13
481610,4816.1
481705,4817.05
481798,4817.98
481891,4818.91
481985,4819.85
482078,4820.78
482172,4821.72
482257,4822.57
482343,4823.43
482447,4824.47
482551,4825.51
482642,4826.42
482741,4827.41
482835,4828.35
482930,4829.3
483024,4830.24
483119,4831.19
483216,4832.16
483313,4833.13
483410,4834.1
483509,4835.09
483607,4836.07
483704,4837.04
483800,4838.0
483896,4838.96
483992,4839.92
484086,4840.86
484181,4841.81
484275,4842.75
484369,4843.69
484462,4844.62
484554,4845.54
484648,4846.48
484741,4847.41
484836,4848.36
484931,4849.31
485024,4850.24
485118,4851.18
485213,4852.13
485308,4853.08
485401,4854.01
485496,4854.96
485593,4855.93
485691,4856.91
485791,4857.91
485890,4858.9
485992,4859.92
486095,4860.95
486198,4861.98
486299,4862.99
486402,4864.02
486504,4865.04
486605,4866.05
486704,4867.04
486804,4868.04
486903,4869.03
487002,4870.02
487099,4870.99
487196,4871.96
487294,4872.94
487391,4873.91
487488,4874.88
487585,4875.85
487683,4876.83
487781,4877.81
487878,4878.78
487977,4879.77
488073,4880.73
488170,4881.7
488265,4882.65
488361,4883.61
488459,4884.59
488555,4885.55
488654,4886.54
488755,4887.55
488854,4888.54
488954,4889.54
489055,4890.55
489155,4891.55
489255,4892.55
489354,4893.54
489453,4894.53
489552,4895.52
489649,4896.49
489745,4897.45
489841,4898.41
489935,4899.35
490030,4900.3
490125,4901.25
490220,4902.2
490314,4903.14
490410,4904.1
490506,4905.06
490604,4906.04
490702,4907.02
490802,4908.02
490903,4909.03
491002,4910.02
491101,4911.01
491201,4912.01
491301,4913.01
491402,4914.02
491504,4915.04
491605,4916.05
491708,4917.08
491809,4918.09
491910,4919.1
492012,4920.12
492114,4921.14
492213,4922.13
492313,4923.13
492412,4924.12
492510,4925.1
492607,4926.07
492702,4927.02
492798,4927.98
492893,4928.93
492990,4929.9
493084,4930.84
493178,4931.78
493273,4932.73
493368,4933.68
493460,4934.6
493553,4935.53
493646,4936.46
493744,4937.44
493843,4938.43
493942,4939.42
494043,4940.43
494145,4941.45
494248,4942.48
494350,4943.5
494447,4944.47
494546,4945.46
494643,4946.43
494738,4947.38
494835,4948.35
494932,4949.32
495029,4950.29
495128,4951.28
495228,4952.28
495329,4953.29
495428,4954.28
495527,4955.27
495625,4956.25
495721,4957.21
495819,4958.19
495916,4959.16
496012,4960.12
496110,4961.1
496209,4962.09
496309,4963.09
496408,4964.08
496505,4965.05
496604,4966.04
496702,4967.02
496799,4967.99
496897,4968.97
496993,4969.93
497089,4970.89
497185,4971.85
497282,4972.82
497379,4973.79
497475,4974.75
497571,4975.71
497667,4976.67
497765,4977.65
497863,4978.63
497961,4979.61
498060,4980.6
498159,4981.59
498259,4982.59
498357,4983.57
498457,4984.57
498560,4985.6
498662,4986.62
498759,4987.59
498858,4988.58
498953,4989.53
499049,4990.49
499142,4991.42
499234,4992.34
499326,4993.26
499420,4994.2
499516,4995.16
499612,4996.12
499711,4997.11
499811,4998.11
499909,4999.09
500009,5000.09
500110,5001.1
500211,5002.11
500310,5003.1
500408,5004.08
500503,5005.03
500597,5005.97
500691,5006.91
500785,5007.85
500876,5008.76
500968,5009.68
501060,5010.6
501152,5011.52
501244,5012.44
501337,5013.37
501431,5014.31
501525,5015.25
501620,5016.2
501715,5017.15
501811,5018.11
501905,5019.05
501998,5019.98
502090,5020.9
502182,5021.82
502273,5022.73
502364,5023.64
502457,5024.57
502549,5025.49
502641,5026.41
502735,5027.35
502832,5028.32
502929,5029.29
503027,5030.27
503127,5031.27
503228,5032.28
503326,5033.26
503424,5034.24
503524,5035.24
503622,5036.22
503723,5037.23
503826,5038.26
503928,5039.28
504028,5040.28
504130,5041.3
504230,5042.3
504328,5043.28
504426,5044.26
504525,5045.25
504625,5046.25
504723,5047.23
504819,5048.19
504916,5049.16
505012,5050.12
505108,5051.08
505205,5052.05
505300,5053.0
505394,5053.94
505489,5054.89
505582,5055.82
505677,5056.77
505770,5057.7
505862,5058.62
505956,5059.56
506050,5060.5
506143,5061.43
506236,5062.36
506331,5063.31
506427,5064.27
506527,5065.27
506625,5066.25
506722,5067.22
506818,5068.18
506913,5069.13
507009,5070.09
507103,5071.03
507197,5071.97
507292,5072.92
507386,5073.86
507481,5074.81
507578,5075.78
507674,5076.74
507770,5077.7
507868,5078.68
507966,5079.66
508063,5080.63
508162,5081.62
508260,5082.6
508357,5083.57
508453,5084.53
508550,5085.5
508646,5086.46
508741,5087.41
508835,5088.35
508928,5089.28
509021,5090.21
509112,5091.12
509205,5092.05
509298,5092.98
509391,5093.91
509486,5094.86
509582,5095.82
509680,5096.8
509777,5097.77
509876,5098.76
509976,5099.76
510076,5100.76
510177,5101.77
510275,5102.75
510373,5103.73
510471,5104.71
510569,5105.69
510666,5106.66
510761,5107.61
510855,5108.55
510949,5109.49
511044,5110.44
511137,5111.37
511232,5112.32
511327,5113.27
511424,5114.24
511518,5115.18
511608,5116.08
511701,5117.01
511795,5117.95
511889,5118.89
511983,5119.83
512082,5120.82
512180,5121.8
512279,5122.79
512380,5123.8
512482,5124.82
512582,5125.82
512682,5126.82
512784,5127.84
512884,5128.84
512983,5129.83
513080,5130.8
513177,5131.77
513273,5132.73
513369,5133.69
513462,5134.62
513555,5135.55
513646,5136.46
513737,5137.37
513828,5138.28
513919,5139.19
514011,5140.11
514104,5141.04
514199,5141.99
514296,5142.96
514392,5143.92
514489,5144.89
514591,5145.91
514691,5146.91
514790,5147.9
514889,5148.89
514988,5149.88
515090,5150.9
515191,5151.91
515287,5152.87
515386,5153.86
515484,5154.84
515582,5155.82
515684,5156.84
515783,5157.83
515885,5158.85
515988,5159.88
516089,5160.89
516189,5161.89
516290,5162.9
516392,5163.92
516492,5164.92
516593,5165.93
516694,5166.94
516795,5167.95
516894,5168.94
516994,5169.94
517092,5170.92
517190,5171.9
517290,5172.9
517390,5173.9
517489,5174.89
517589,5175.89
517690,5176.9
517790,5177.9
517889,5178.89
517987,5179.87
518085,5180.85
518184,5181.84
518283,5182.83
518380,5183.8
518480,5184.8
518581,5185.81
518680,5186.8
518777,5187.77
518874,5188.74
518967,5189.67
519059,5190.59
519149,5191.49
519243,5192.43
519337,5193.37
519431,5194.31
519528,5195.28
519626,5196.26
519724,5197.24
519821,5198.21
519919,5199.19
520017,5200.17
520114,5201.14
520210,5202.1
520306,5203.06
520401,5204.01
520496,5204.96
520590,5205.9
520686,5206.86
520782,5207.82
520878,5208.78
520974,5209.74
521069,5210.69
521166,5211.66
521263,5212.63
521360,5213.6
521455,5214.55
521552,5215.52
521649,5216.49
521745,5217.45
521842,5218.42
521940,5219.4
522041,5220.41
522141,5221.41
522236,5222.36
522334,5223.34
522429,5224.29
522525,5225.25
522625,5226.25
522723,5227.23
522823,5228.23
522923,5229.23
523021,5230.21
523121,5231.21
523221,5232.21
523319,5233.19
523417,5234.17
523515,5235.15
523612,5236.12
523708,5237.08
523802,5238.02
523896,5238.96
523990,5239.9
524084,5240.84
524176,5241.76
524269,5242.69
524361,5243.61
524453,5244.53
524545,5245.45
524636,5246.36
524729,5247.29
524823,5248.23
524919,5249.19
525013,5250.13
525108,5251.08
525205,5252.05
525303,5253.03
525403,5254.03
525502,5255.02
525601,5256.01
525701,5257.01
525801,5258.01
525897,5258.97
525994,5259.94
526094,5260.94
526194,5261.94
526293,5262.93
526393,5263.93
526494,5264.94
526597,5265.97
526698,5266.98
526801,5268.01
526902,5269.02
527003,5270.03
527106,5271.06
527211,5272.11
527311,5273.11
527409,5274.09
527506,5275.06
527602,5276.02
527696,5276.96
527790,5277.9
527883,5278.83
527977,5279.77
528070,5280.7
528162,5281.62
528256,5282.56
528350,5283.5
528445,5284.45
528538,5285.38
528634,5286.34
528731,5287.31
528827,5288.27
528921,5289.21
529017,5290.17
529116,5291.16
529216,5292.16
529315,5293.15
529415,5294.15
529515,5295.15
529618,5296.18
529722,5297.22
529824,5298.24
529928,5299.28
530029,5300.29
530130,5301.3
530232,5302.32
530332,5303.32
530431,5304.31
530530,5305.3
530629,5306.29
530727,5307.27
530824,5308.24
530923,5309.23
531024,5310.24
531122,5311.22
531217,5312.17
531313,5313.13
531408,5314.08
531502,5315.02
531596,5315.96
531693,5316.93
531792,5317.92
531891,5318.91
531991,5319.91
532092,5320.92
532192,5321.92
532292,5322.92
532390,5323.9
532488,5324.88
532587,5325.87
532686,5326.86
532783,5327.83
532881,5328.81
532980,5329.8
533078,5330.78
533176,5331.76
533275,5332.75
533375,5333.75
533476,5334.76
533576,5335.76
533676,5336.76
533776,5337.76
533874,5338.74
533971,5339.71
534067,5340.67
534160,5341.6
534255,5342.55
534348,5343.48
534443,5344.43
534539,5345.39
534634,5346.34
534729,5347.29
534826,5348.26
534922,5349.22
535018,5350.18
535115,5351.15
535211,5352.11
535307,5353.07
535402,5354.02
535498,5354.98
535594,5355.94
535689,5356.89
535783,5357.83
535878,5358.78
535972,5359.72
536065,5360.65
536157,5361.57
536251,5362.51
536344,5363.44
536438,5364.38
536532,5365.32
536625,5366.25
536720,5367.2
536815,5368.15
536911,5369.11
537005,5370.05
537099,5370.99
537195,5371.95
537293,5372.93
537392,5373.92
537487,5374.87
537582,5375.82
537679,5376.79
537777,5377.77
537878,5378.78
537979,5379.79
538079,5380.79
538181,5381.81
538282,5382.82
538383,5383.83
538485,5384.85
538586,5385.86
538687,5386.87
538786,5387.86
538886,5388.86
538986,5389.86
539085,5390.85
539184,5391.84
539285,5392.85
539386,5393.86
539484,5394.84
539580,5395.8
539676,5396.76
539771,5397.71
539864,5398.64
539959,5399.59
540055,5400.55
540149,5401.49
540243,5402.43
540340,5403.4
540438,5404.38
540536,5405.36
540636,5406.36
540740,5407.4
540844,5408.44
540944,5409.44
541044,5410.44
541144,5411.44
541240,5412.4
541337,5413.37
541430,5414.3
541522,5415.22
541612,5416.12
541705,5417.05
541800,5418.0
541895,5418.95
541991,5419.91
542089,5420.89
542189,5421.89
542289,5422.89
542388,5423.88
542486,5424.86
542585,5425.85
542683,5426.83
542780,5427.8
542876,5428.76
542973,5429.73
543070,5430.7
543169,5431.69
543265,5432.65
543361,5433.61
543457,5434.57
543554,5435.54
543652,5436.52
543746,5437.46
543840,5438.4
543937,5439.37
544032,5440.32
544128,5441.28
544228,5442.28
544326,5443.26
544424,5444.24
544527,5445.27
544629,5446.29
544730,5447.3
544832,5448.32
544935,5449.35
545037,5450.37
545138,5451.38
545241,5452.41
545343,5453.43
545445,5454.45
545546,5455.46
545646,5456.46
545744,5457.44
545840,5458.4
545936,5459.36
546032,5460.32
546126,5461.26
546220,5462.2
546316,5463.16
546413,5464.13
546511,5465.11
546609,5466.09
546709,5467.09
546809,5468.09
546907,5469.07
547003,5470.03
547100,5471.0
547199,5471.99
547297,5472.97
547394,5473.94
547493,5474.93
547592,5475.92
547693,5476.93
547790,5477.9
547884,5478.84
547976,5479.76
548070,5480.7
548166,5481.66
548260,5482.6
548357,5483.57
548454,5484.54
548550,5485.5
548649,5486.49
548748,5487.48
548844,5488.44
548942,5489.42
549041,5490.41
549138,5491.38
549234,5492.34
549331,5493.31
549427,5494.27
549525,5495.25
549622,5496.22
549718,5497.18
549816,5498.16
549913,5499.13
550011,5500.11
550107,5501.07
550204,5502.04
550300,5503.0
550396,5503.96
550492,5504.92
550586,5505.86
550680,5506.8
550773,5507.73
550866,5508.66
550962,5509.62
551057,5510.57
551152,5511.52
551248,5512.48
551347,5513.47
551444,5514.44
551544,5515.44
551644,5516.44
551746,5517.46
551847,5518.47
551945,5519.45
552045,5520.45
552143,5521.43
552242,5522.42
552343,5523.43
552442,5524.42
552541,5525.41
552642,5526.42
552741,5527.41
552841,5528.41
552943,5529.43
553045,5530.45
553146,5531.46
553246,5532.46
553347,5533.47
553447,5534.47
553545,5535.45
553643,5536.43
553741,5537.41
553838,5538.38
553935,5539.35
554030,5540.3
554124,5541.24
554218,5542.18
554312,5543.12
554407,5544.07
554500,5545.0
554595,5545.95
554691,5546.91
554790,5547.9
554887,5548.87
554984,5549.84
555082,5550.82
555182,5551.82
555283,5552.83
555383,5553.83
555486,5554.86
555594,5555.94
555694,5556.94
555796,5557.96
555895,5558.95
555996,5559.96
556098,5560.98
556195,5561.95
556293,5562.93
556388,5563.88
556480,5564.8
556570,5565.7
556661,5566.61
556753,5567.53
556842,5568.42
556935,5569.35
557028,5570.28
557121,5571.21
557213,5572.13
557307,5573.07
557402,5574.02
557497,5574.97
557592,5575.92
557688,5576.88
557784,5577.84
557880,5578.8
557977,5579.77
558074,5580.74
558169,5581.69
558264,5582.64
558360,5583.6
558456,5584.56
558552,5585.52
558648,5586.48
558745,5587.45
558843,5588.43
558941,5589.41
559038,5590.38
559138,5591.38
559236,5592.36
559333,5593.33
559430,5594.3
559529,5595.29
559627,5596.27
559729,5597.29
559831,5598.31
559931,5599.31
560032,5600.32
560133,5601.33
560233,5602.33
560332,5603.32
560431,5604.31
560531,5605.31
560629,5606.29
560727,5607.27
560825,5608.25
560922,5609.22
561019,5610.19
561118,5611.18
561216,5612.16
561312,5613.12
561410,5614.1
561508,5615.08
561606,5616.06
561703,5617.03
561800,5618.0
561898,5618.98
561995,5619.95
562091,5620.91
562188,5621.88
562287,5622.87
562385,5623.85
562484,5624.84
562582,5625.82
562683,5626.83
562780,5627.8
562880,5628.8
562981,5629.81
563079,5630.79
563181,5631.81
563283,5632.83
563382,5633.82
563482,5634.82
563581,5635.81
563681,5636.81
563780,5637.8
563879,5638.79
563979,5639.79
564079,5640.79
564178,5641.78
564275,5642.75
564373,5643.73
564471,5644.71
564569,5645.69
564667,5646.67
564763,5647.63
564858,5648.58
564953,5649.53
565048,5650.48
565142,5651.42
565235,5652.35
565331,5653.31
565428,5654.28
565524,5655.24
565620,5656.2
565721,5657.21
565818,5658.18
565913,5659.13
566011,5660.11
566107,5661.07
566207,5662.07
566309,5663.09
566410,5664.1
566511,5665.11
566613,5666.13
566714,5667.14
566815,5668.15
566917,5669.17
567016,5670.16
567115,5671.15
567215,5672.15
567314,5673.14
567413,5674.13
567511,5675.11
567609,5676.09
567709,5677.09
567810,5678.1
567909,5679.09
568008,5680.08
568109,5681.09
568209,5682.09
568309,5683.09
568407,5684.07
568505,5685.05
568605,5686.05
568704,5687.04
568803,5688.03
568902,5689.02
569000,5690.0
569097,5690.97
569193,5691.93
569293,5692.93
569396,5693.96
569500,5695.0
569600,5696.0
569703,5697.03
569803,5698.03
569906,5699.06
570010,5700.1
570111,5701.11
570213,5702.13
570316,5703.16
570417,5704.17
570519,5705.19
570621,5706.21
570724,5707.24
570824,5708.24
570925,5709.25
571027,5710.27
571127,5711.27
571226,5712.26
571325,5713.25
571424,5714.24
571522,5715.22
571619,5716.19
571716,5717.16
571813,5718.13
571909,5719.09
572003,5720.03
572098,5720.98
572194,5721.94
572291,5722.91
572388,5723.88
572487,5724.87
572587,5725.87
572685,5726.85
572784,5727.84
572884,5728.84
572984,5729.84
573084,5730.84
573181,5731.81
573279,5732.79
573376,5733.76
573472,5734.72
573571,5735.71
573672,5736.72
573774,5737.74
573873,5738.73
573973,5739.73
574074,5740.74
574175,5741.75
574274,5742.74
574373,5743.73
574473,5744.73
574573,5745.73
574671,5746.71
574770,5747.7
574869,5748.69
574968,5749.68
575065,5750.65
575162,5751.62
575260,5752.6
575358,5753.58
575455,5754.55
575552,5755.52
575650,5756.5
575750,5757.5
575851,5758.51
575953,5759.53
576053,5760.53
576154,5761.54
576256,5762.56
576358,5763.58
576454,5764.54
576552,5765.52
576647,5766.47
576743,5767.43
576843,5768.43
576942,5769.42
577042,5770.42
577145,5771.45
577247,5772.47
577349,5773.49
577454,5774.54
577557,5775.57
577658,5776.58
577759,5777.59
577861,5778.61
577960,5779.6
578060,5780.6
578161,5781.61
578262,5782.62
578363,5783.63
578461,5784.61
578559,5785.59
578656,5786.56
578754,5787.54
578853,5788.53
578951,5789.51
579048,5790.48
579147,5791.47
579247,5792.47
579346,5793.46
579443,5794.43
579543,5795.43
579644,5796.44
579743,5797.43
579843,5798.43
579944,5799.44
580044,5800.44
580143,5801.43
580243,5802.43
580343,5803.43
580442,5804.42
580540,5805.4
580640,5806.4
580735,5807.35
580831,5808.31
580930,5809.3
581029,5810.29
581127,5811.27
581227,5812.27
581325,5813.25
581421,5814.21
581521,5815.21
581620,5816.2
581719,5817.19
581818,5818.18
581917,5819.17
582016,5820.16
582114,5821.14
582212,5822.12
582309,5823.09
582407,5824.07
582505,5825.05
582602,5826.02
582699,5826.99
582794,5827.94
582890,5828.9
582985,5829.85
583078,5830.78
583171,5831.71
583264,5832.64
583358,5833.58
583452,5834.52
583545,5835.45
583638,5836.38
583735,5837.35
583832,5838.32
583930,5839.3
584030,5840.3
584132,5841.32
584232,5842.32
584334,5843.34
584439,5844.39
584542,5845.42
584642,5846.42
584743,5847.43
584844,5848.44
584945,5849.45
585041,5850.41
585138,5851.38
585233,5852.33
585328,5853.28
585425,5854.25
585519,5855.19
585617,5856.17
585715,5857.15
585813,5858.13
585912,5859.12
586013,5860.13
586114,5861.14
586213,5862.13
586312,5863.12
586411,5864.11
586510,5865.1
586606,5866.06
586702,5867.02
586798,5867.98
586894,5868.94
586990,5869.9
587083,5870.83
587177,5871.77
587272,5872.72
587368,5873.68
587465,5874.65
587560,5875.6
587657,5876.57
587754,5877.54
587852,5878.52
587948,5879.48
588044,5880.44
588143,5881.43
588243,5882.43
588343,5883.43
588444,5884.44
588548,5885.48
588650,5886.5
588752,5887.52
588856,5888.56
588959,5889.59
589055,5890.55
589152,5891.52
589247,5892.47
589340,5893.4
589437,5894.37
589533,5895.33
589629,5896.29
589727,5897.27
589826,5898.26
589925,5899.25
590025,5900.25
590127,5901.27
590226,5902.26
590325,5903.25
590425,5904.25
590526,5905.26
590626,5906.26
590724,5907.24
590822,5908.22
590919,5909.19
591016,5910.16
591113,5911.13
591210,5912.1
591305,5913.05
591399,5913.99
591494,5914.94
591589,5915.89
591684,5916.84
591778,5917.78
591872,5918.72
591968,5919.68
592066,5920.66
592163,5921.63
592260,5922.6
592359,5923.59
592459,5924.59
592558,5925.58
592658,5926.58
592760,5927.6
592860,5928.6
592962,5929.62
593064,5930.64
593167,5931.67
593266,5932.66
593366,5933.66
593464,5934.64
593561,5935.61
593660,5936.6
593759,5937.59
593861,5938.61
593962,5939.62
594062,5940.62
594163,5941.63
594266,5942.66
594365,5943.65
594465,5944.65
594564,5945.64
594663,5946.63
594759,5947.59
594856,5948.56
594953,5949.53
595051,5950.51
595145,5951.45
595240,5952.4
595336,5953.36
595431,5954.31
595526,5955.26
595621,5956.21
595717,5957.17
595814,5958.14
595910,5959.1
596007,5960.07
596108,5961.08
596212,5962.12
596315,5963.15
596417,5964.17
596521,5965.21
596625,5966.25
596726,5967.26
596825,5968.25
596919,5969.19
597014,5970.14
597108,5971.08
597202,5972.02
597297,5972.97
597391,5973.91
597489,5974.89
597588,5975.88
597686,5976.86
597784,5977.84
597884,5978.84
597985,5979.85
598083,5980.83
598181,5981.81
598278,5982.78
598375,5983.75
598469,5984.69
598564,5985.64
598659,5986.59
598754,5987.54
598849,5988.49
598944,5989.44
599040,5990.4
599136,5991.36
599235,5992.35
599333,5993.33
599432,5994.32
599534,5995.34
599637,5996.37
599737,5997.37
599836,5998.36
599934,5999.34
600034,6000.34
600129,6001.29
600225,6002.25
600324,6003.24
600423,6004.23
600521,6005.21
600623,6006.23
600725,6007.25
600826,6008.26
600930,6009.3
601034,6010.34
601137,6011.37
601241,6012.41
601346,6013.46
601451,6014.51
601554,6015.54
601657,6016.57
601760,6017.6
601862,6018.62
601962,6019.62
602061,6020.61
602160,6021.6
602260,6022.6
602359,6023.59
602458,6024.58
602555,6025.55
602654,6026.54
602752,6027.52
602851,6028.51
602946,6029.46
603041,6030.41
603137,6031.37
603234,6032.34
603329,6033.29
603426,6034.26
603524,6035.24
603620,6036.2
603722,6037.22
603824,6038.24
603927,6039.27
604031,6040.31
604135,6041.35
604237,6042.37
604341,6043.41
604445,6044.45
604549,6045.49
604651,6046.51
604755,6047.55
604860,6048.6
604962,6049.62
605065,6050.65
605168,6051.68
605270,6052.7
605370,6053.7
605470,6054.7
605570,6055.7
605667,6056.67
605764,6057.64
605862,6058.62
605962,6059.62
606060,6060.6
606160,6061.6
606262,6062.62
606364,6063.64
606461,6064.61
606559,6065.59
606658,6066.58
606755,6067.55
606852,6068.52
606951,6069.51
607049,6070.49
607147,6071.47
607248,6072.48
607347,6073.47
607449,6074.49
607551,6075.51
607656,6076.56
607759,6077.59
607863,6078.63
607968,6079.68
608074,6080.74
608176,6081.76
608278,6082.78
608380,6083.8
608481,6084.81
608581,6085.81
608680,6086.8
608776,6087.76
608872,6088.72
608967,6089.67
609064,6090.64
609160,6091.6
609256,6092.56
609354,6093.54
609454,6094.54
609553,6095.53
609651,6096.51
609750,6097.5
609851,6098.51
609950,6099.5
610050,6100.5
610152,6101.52
610252,6102.52
610354,6103.54
610456,6104.56
610556,6105.56
610657,6106.57
610759,6107.59
610857,6108.57
610955,6109.55
611052,6110.52
611148,6111.48
611243,6112.43
611338,6113.38
611432,6114.32
611527,6115.27
611622,6116.22
611716,6117.16
611810,6118.1
611906,6119.06
612003,6120.03
612099,6120.99
612196,6121.96
612295,6122.95
612394,6123.94
612493,6124.93
612592,6125.92
612693,6126.93
612793,6127.93
612892,6128.92
612990,6129.9
613091,6130.91
613190,6131.9
613287,6132.87
613385,6133.85
613486,6134.86
613587,6135.87
613689,6136.89
613787,6137.87
613882,6138.82
613980,6139.8
614079,6140.79
614176,6141.76
614275,6142.75
614373,6143.73
614470,6144.7
614569,6145.69
614668,6146.68
614766,6147.66
614864,6148.64
614963,6149.63
615062,6150.62
615160,6151.6
615259,6152.59
615359,6153.59
615460,6154.6
615561,6155.61
615660,6156.6
615761,6157.61
615862,6158.62
615964,6159.64
616066,6160.66
616168,6161.68
616267,6162.67
616365,6163.65
616465,6164.65
616564,6165.64
616663,6166.63
616762,6167.62
616860,6168.6
616958,6169.58
617058,6170.58
617156,6171.56
617254,6172.54
617352,6173.52
617451,6174.51
617550,6175.5
617650,6176.5
617754,6177.54
617855,6178.55
617952,6179.52
618049,6180.49
618143,6181.43
618242,6182.42
618340,6183.4
618437,6184.37
618537,6185.37
618637,6186.37
618734,6187.34
618833,6188.33
618932,6189.32
619030,6190.3
619128,6191.28
619225,6192.25
619323,6193.23
619418,6194.18
619514,6195.14
619611,6196.11
619709,6197.09
619807,6198.07
619904,6199.04
620002,6200.02
620101,6201.01
620199,6201.99
620296,6202.96
620391,6203.91
620486,6204.86
620582,6205.82
620678,6206.78
620773,6207.73
620867,6208.67
620962,6209.62
621058,6210.58
621155,6211.55
621252,6212.52
621349,6213.49
621446,6214.46
621545,6215.45
621640,6216.4
621736,6217.36
621832,6218.32
621926,6219.26
622022,6220.22
622120,6221.2
622217,6222.17
622317,6223.17
622417,6224.17
622516,6225.16
622616,6226.16
622717,6227.17
622817,6228.17
622915,6229.15
623014,6230.14
623113,6231.13
623213,6232.13
623312,6233.12
623409,6234.09
623507,6235.07
623607,6236.07
623707,6237.07
623808,6238.08
623906,6239.06
624004,6240.04
624102,6241.02
624200,6242.0
624296,6242.96
624394,6243.94
624492,6244.92
624592,6245.92
624690,6246.9
624788,6247.88
624887,6248.87
624986,6249.86
625086,6250.86
625187,6251.87
625289,6252.89
625389,6253.89
625487,6254.87
625587,6255.87
625687,6256.87
625785,6257.85
625885,6258.85
625984,6259.84
626081,6260.81
626179,6261.79
626276,6262.76
626371,6263.71
626467,6264.67
626564,6265.64
626661,6266.61
626757,6267.57
626854,6268.54
626953,6269.53
627051,6270.51
627149,6271.49
627246,6272.46
627341,6273.41
627437,6274.37
627533,6275.33
627630,6276.3
627727,6277.27
627823,6278.23
627918,6279.18
628014,6280.14
628109,6281.09
628205,6282.05
628299,6282.99
628394,6283.94
628491,6284.91
628590,6285.9
628687,6286.87
628784,6287.84
628886,6288.86
628988,6289.88
629087,6290.87
629187,6291.87
629289,6292.89
629389,6293.89
629485,6294.85
629583,6295.83
629679,6296.79
629776,6297.76
629875,6298.75
629974,6299.74
630072,6300.72
630169,6301.69
630265,6302.65
630361,6303.61
630457,6304.57
630552,6305.52
630647,6306.47
630743,6307.43
630839,6308.39
630935,6309.35
631030,6310.3
631125,6311.25
631220,6312.2
631316,6313.16
631414,6314.14
631510,6315.1
631606,6316.06
631703,6317.03
631800,6318.0
631898,6318.98
631997,6319.97
632094,6320.94
632192,6321.92
632290,6322.9
632389,6323.89
632488,6324.88
632587,6325.87
632687,6326.87
632787,6327.87
632891,6328.91
632991,6329.91
633086,6330.86
633183,6331.83
633279,6332.79
633374,6333.74
633470,6334.7
633566,6335.66
633664,6336.64
633764,6337.64
633865,6338.65
633964,6339.64
634063,6340.63
634163,6341.63
634263,6342.63
634363,6343.63
634464,6344.64
634565,6345.65
634666,6346.66
634767,6347.67
634869,6348.69
634971,6349.71
635071,6350.71
635170,6351.7
635269,6352.69
635369,6353.69
635467,6354.67
635564,6355.64
635660,6356.6
635756,6357.56
635853,6358.53
635949,6359.49
636045,6360.45
636142,6361.42
636240,6362.4
636337,6363.37
636434,6364.34
636532,6365.32
636630,6366.3
636724,6367.24
636818,6368.18
636909,6369.09
636999,6369.99
637093,6370.93
637186,6371.86
637282,6372.82
637381,6373.81
637480,6374.8
637579,6375.79
637680,6376.8
637782,6377.82
637884,6378.84
637986,6379.86
638089,6380.89
638192,6381.92
638295,6382.95
638396,6383.96
638498,6384.98
638599,6385.99
638701,6387.01
638802,6388.02
638902,6389.02
639001,6390.01
639098,6390.98
639195,6391.95
639292,6392.92
639389,6393.89
639488,6394.88
639587,6395.87
639686,6396.86
639785,6397.85
639884,6398.84
639985,6399.85
640088,6400.88
640188,6401.88
640286,6402.86
640387,6403.87
640488,6404.88
640586,6405.86
640683,6406.83
640780,6407.8
640874,6408.74
640971,6409.71
641068,6410.68
641165,6411.65
641265,6412.65
641363,6413.63
641461,6414.61
641561,6415.61
641662,6416.62
641761,6417.61
641860,6418.6
641960,6419.6
642060,6420.6
642158,6421.58
642257,6422.57
642355,6423.55
642452,6424.52
642548,6425.48
642644,6426.44
642741,6427.41
642836,6428.36
642932,6429.32
643027,6430.27
643121,6431.21
643214,6432.14
643308,6433.08
643401,6434.01
643495,6434.95
643589,6435.89
643681,6436.81
643775,6437.75
643872,6438.72
643971,6439.71
644068,6440.68
644166,6441.66
644266,6442.66
644368,6443.68
644468,6444.68
644575,6445.75
644682,6446.82
644784,6447.84
644888,6448.88
644990,6449.9
645092,6450.92
645196,6451.96
645298,6452.98
645401,6454.01
645505,6455.05
645607,6456.07
645710,6457.1
645812,6458.12
645912,6459.12
646012,6460.12
646112,6461.12
646210,6462.1
646307,6463.07
646405,6464.05
646503,6465.03
646599,6465.99
646696,6466.96
646794,6467.94
646892,6468.92
646990,6469.9
647088,6470.88
647187,6471.87
647287,6472.87
647385,6473.85
647485,6474.85
647585,6475.85
647687,6476.87
647786,6477.86
647883,6478.83
647982,6479.82
648080,6480.8
648177,6481.77
648274,6482.74
648373,6483.73
648473,6484.73
648571,6485.71
648671,6486.71
648772,6487.72
648873,6488.73
648971,6489.71
649067,6490.67
649161,6491.61
649253,6492.53
649343,6493.43
649437,6494.37
649536,6495.36
649633,6496.33
649733,6497.33
649836,6498.36
649938,6499.38
650040,6500.4
650144,6501.44
650247,6502.47
650349,6503.49
650449,6504.49
650550,6505.5
650649,6506.49
650745,6507.45
650842,6508.42
650939,6509.39
651035,6510.35
651130,6511.3
651227,6512.27
651325,6513.25
651423,6514.23
651520,6515.2
651616,6516.16
651714,6517.14
651814,6518.14
651916,6519.16
652019,6520.19
652124,6521.24
652230,6522.3
652328,6523.28
652428,6524.28
652526,6525.26
652624,6526.24
652724,6527.24
652822,6528.22
652921,6529.21
653022,6530.22
653122,6531.22
653222,6532.22
653324,6533.24
653427,6534.27
653528,6535.28
653630,6536.3
653732,6537.32
653833,6538.33
653932,6539.32
654030,6540.3
654128,6541.28
654226,6542.26
654323,6543.23
654419,6544.19
654516,6545.16
654614,6546.14
654712,6547.12
654809,6548.09
654907,6549.07
655007,6550.07
655107,6551.07
655205,6552.05
655303,6553.03
655402,6554.02
655503,6555.03
655605,6556.05
655702,6557.02
655801,6558.01
655898,6558.98
655998,6559.98
656100,6561.0
656200,6562.0
656300,6563.0
656402,6564.02
656502,6565.02
656602,6566.02
656702,6567.02
656801,6568.01
656899,6568.99
656999,6569.99
657100,6571.0
657198,6571.98
657297,6572.97
657397,6573.97
657496,6574.96
657594,6575.94
657692,6576.92
657792,6577.92
657893,6578.93
657993,6579.93
658091,6580.91
658191,6581.91
658291,6582.91
658389,6583.89
658487,6584.87
658585,6585.85
658684,6586.84
658782,6587.82
658881,6588.81
658984,6589.84
659087,6590.87
659184,6591.84
659282,6592.82
659379,6593.79
659476,6594.76
659576,6595.76
659676,6596.76
659776,6597.76
659878,6598.78
659980,6599.8
660082,6600.82
660184,6601.84
660288,6602.88
660389,6603.89
660490,6604.9
660591,6605.91
660691,6606.91
660789,6607.89
660885,6608.85
660982,6609.82
661077,6610.77
661171,6611.71
661265,6612.65
661360,6613.6
661455,6614.55
661549,6615.49
661643,6616.43
661737,6617.37
661830,6618.3
661922,6619.22
662014,6620.14
662107,6621.07
662202,6622.02
662296,6622.96
662391,6623.91
662487,6624.87
662586,6625.86
662683,6626.83
662777,6627.77
662872,6628.72
662964,6629.64
663055,6630.55
663147,6631.47
663242,6632.42
663339,6633.39
663436,6634.36
663537,6635.37
663641,6636.41
663744,6637.44
663847,6638.47
663952,6639.52
664056,6640.56
664158,6641.58
664260,6642.6
664362,6643.62
664464,6644.64
664564,6645.64
664663,6646.63
664762,6647.62
664860,6648.6
664957,6649.57
665052,6650.52
665147,6651.47
665241,6652.41
665337,6653.37
665431,6654.31
665525,6655.25
665622,6656.22
665720,6657.2
665818,6658.18
665918,6659.18
666022,6660.22
666124,6661.24
666226,6662.26
666329,6663.29
666434,6664.34
666536,6665.36
666639,6666.39
666740,6667.4
666839,6668.39
666940,6669.4
667040,6670.4
667144,6671.44
667248,6672.48
667349,6673.49
667451,6674.51
667555,6675.55
667657,6676.57
667760,6677.6
667863,6678.63
667965,6679.65
668067,6680.67
668167,6681.67
668265,6682.65
668363,6683.63
668461,6684.61
668558,6685.58
668653,6686.53
668748,6687.48
668843,6688.43
668937,6689.37
669032,6690.32
669126,6691.26
669221,6692.21
669317,6693.17
669416,6694.16
669514,6695.14
669611,6696.11
669708,6697.08
669805,6698.05
669903,6699.03
670003,6700.03
670102,6701.02
670203,6702.03
670307,6703.07
670411,6704.11
670513,6705.13
670615,6706.15
670719,6707.19
670823,6708.23
670921,6709.21
671019,6710.19
671115,6711.15
671208,6712.08
671305,6713.05
671401,6714.01
671496,6714.96
671595,6715.95
671695,6716.95
671794,6717.94
671895,6718.95
671998,6719.98
672101,6721.01
672203,6722.03
672305,6723.05
672408,6724.08
672508,6725.08
672607,6726.07
672706,6727.06
672805,6728.05
672904,6729.04
673003,6730.03
673101,6731.01
673199,6731.99
673297,6732.97
673395,6733.95
673493,6734.93
673589,6735.89
673685,6736.85
673784,6737.84
673884,6738.84
673983,6739.83
674082,6740.82
674183,6741.83
674284,6742.84
674383,6743.83
674480,6744.8
674579,6745.79
674676,6746.76
674771,6747.71
674869,6748.69
674966,6749.66
675063,6750.63
675158,6751.58
675253,6752.53
675345,6753.45
675439,6754.39
675533,6755.33
675627,6756.27
675724,6757.24
675821,6758.21
675917,6759.17
676014,6760.14
676113,6761.13
676210,6762.1
676307,6763.07
676407,6764.07
676506,6765.06
676603,6766.03
676701,6767.01
676798,6767.98
676895,6768.95
676991,6769.91
677087,6770.87
677183,6771.83
677279,6772.79
677374,6773.74
677469,6774.69
677565,6775.65
677661,6776.61
677757,6777.57
677854,6778.54
677951,6779.51
678047,6780.47
678142,6781.42
678238,6782.38
678336,6783.36
678432,6784.32
678524,6785.24
678616,6786.16
678708,6787.08
678798,6787.98
678886,6788.86
678977,6789.77
679070,6790.7
679162,6791.62
679256,6792.56
679352,6793.52
679448,6794.48
679545,6795.45
679644,6796.44
679743,6797.43
679844,6798.44
679943,6799.43
680043,6800.43
680144,6801.44
680245,6802.45
680346,6803.46
680445,6804.45
680546,6805.46
680647,6806.47
680746,6807.46
680844,6808.44
680942,6809.42
681039,6810.39
681135,6811.35
681231,6812.31
681327,6813.27
681425,6814.25
681525,6815.25
681624,6816.24
681723,6817.23
681824,6818.24
681924,6819.24
682022,6820.22
682125,6821.25
682228,6822.28
682329,6823.29
682433,6824.33
682537,6825.37
682639,6826.39
682741,6827.41
682843,6828.43
682944,6829.44
683045,6830.45
683145,6831.45
683244,6832.44
683344,6833.44
683441,6834.41
683540,6835.4
683641,6836.41
683742,6837.42
683843,6838.43
683943,6839.43
684043,6840.43
684144,6841.44
684244,6842.44
684344,6843.44
684444,6844.44
684541,6845.41
684639,6846.39
684736,6847.36
684832,6848.32
684929,6849.29
685023,6850.23
685117,6851.17
685214,6852.14
685309,6853.09
685405,6854.05
685503,6855.03
685601,6856.01
685698,6856.98
685795,6857.95
685896,6858.96
685997,6859.97
686085,6860.85
686189,6861.89
686281,6862.81
686389,6863.89
686487,6864.87
686584,6865.84
686679,6866.79
686775,6867.75
686872,6868.72
686971,6869.71
687070,6870.7
687171,6871.71
687275,6872.75
687379,6873.79
687482,6874.82
687585,6875.85
687688,6876.88
687791,6877.91
687892,6878.92
687992,6879.92
688090,6880.9
688188,6881.88
688285,6882.85
688381,6883.81
688477,6884.77
688571,6885.71
688665,6886.65
688758,6887.58
688851,6888.51
688945,6889.45
689042,6890.42
689136,6891.36
689230,6892.3
689325,6893.25
689418,6894.18
689511,6895.11
689602,6896.02
689697,6896.97
689793,6897.93
689887,6898.87
689985,6899.85
690083,6900.83
690180,6901.8
690276,6902.76
690374,6903.74
690472,6904.72
690569,6905.69
690665,6906.65
690763,6907.63
690862,6908.62
690960,6909.6
691057,6910.57
691155,6911.55
691253,6912.53
691352,6913.52
691451,6914.51
691547,6915.47
691641,6916.41
691735,6917.35
691829,6918.29
691923,6919.23
692015,6920.15
692109,6921.09
692204,6922.04
692303,6923.03
692402,6924.02
692503,6925.03
692608,6926.08
692714,6927.14
692818,6928.18
692923,6929.23
693028,6930.28
693127,6931.27
693228,6932.28
693329,6933.29
693428,6934.28
693530,6935.3
693633,6936.33
693735,6937.35
693838,6938.38
693939,6939.39
694041,6940.41
694143,6941.43
694243,6942.43
694343,6943.43
694444,6944.44
694542,6945.42
694640,6946.4
694738,6947.38
694836,6948.36
694932,6949.32
695028,6950.28
695124,6951.24
695220,6952.2
695315,6953.15
695411,6954.11
695505,6955.05
695599,6955.99
695692,6956.92
695786,6957.86
695881,6958.81
695975,6959.75
696070,6960.7
696166,6961.66
696264,6962.64
696363,6963.63
696461,6964.61
696558,6965.58
696656,6966.56
696753,6967.53
696848,6968.48
696945,6969.45
697044,6970.44
697144,6971.44
697241,6972.41
697338,6973.38
697434,6974.34
697531,6975.31
697629,6976.29
697728,6977.28
697826,6978.26
697926,6979.26
698024,6980.24
698123,6981.23
698224,6982.24
698325,6983.25
698425,6984.25
698524,6985.24
698624,6986.24
698723,6987.23
698820,6988.2
698916,6989.16
699011,6990.11
699104,6991.04
699198,6991.98
699291,6992.91
699383,6993.83
699477,6994.77
699572,6995.72
699667,6996.67
699760,6997.6
699855,6998.55
699950,6999.5
700046,7000.46
700143,7001.43
700239,7002.39
700337,7003.37
700436,7004.36
700536,7005.36
700631,7006.31
700727,7007.27
700822,7008.22
700915,7009.15
701011,7010.11
701107,7011.07
701202,7012.02
701300,7013.0
701400,7014.0
701499,7014.99
701598,7015.98
701699,7016.99
701799,7017.99
701898,7018.98
701996,7019.96
702093,7020.93
702188,7021.88
702283,7022.83
702377,7023.77
702470,7024.7
702564,7025.64
702659,7026.59
702753,7027.53
702849,7028.49
702943,7029.43
703037,7030.37
703133,7031.33
703228,7032.28
703323,7033.23
703417,7034.17
703513,7035.13
703610,7036.1
703706,7037.06
703804,7038.04
703901,7039.01
703998,7039.98
704093,7040.93
704189,7041.89
704287,7042.87
704385,7043.85
704487,7044.87
704587,7045.87
704688,7046.88
704792,7047.92
704895,7048.95
704998,7049.98
705100,7051.0
705204,7052.04
705309,7053.09
705411,7054.11
705513,7055.13
705614,7056.14
705714,7057.14
705814,7058.14
705909,7059.09
706005,7060.05
706100,7061.0
706196,7061.96
706294,7062.94
706389,7063.89
706483,7064.83
706577,7065.77
706672,7066.72
706767,7067.67
706861,7068.61
706956,7069.56
707051,7070.51
707146,7071.46
707241,7072.41
707339,7073.39
707436,7074.36
707532,7075.32
707628,7076.28
707722,7077.22
707815,7078.15
707910,7079.1
708006,7080.06
708105,7081.05
708202,7082.02
708302,7083.02
708402,7084.02
708502,7085.02
708603,7086.03
708706,7087.06
708810,7088.1
708911,7089.11
709013,7090.13
709114,7091.14
709216,7092.16
709317,7093.17
709417,7094.17
709515,7095.15
709612,7096.12
709711,7097.11
709810,7098.1
709907,7099.07
710002,7100.02
710098,7100.98
710194,7101.94
710290,7102.9
710387,7103.87
710487,7104.87
710588,7105.88
710691,7106.91
710789,7107.89
710886,7108.86
710982,7109.82
711076,7110.76
711171,7111.71
711268,7112.68
711364,7113.64
711462,7114.62
711559,7115.59
711657,7116.57
711756,7117.56
711858,7118.58
711960,7119.6
712060,7120.6
712161,7121.61
712264,7122.64
712367,7123.67
712468,7124.68
712568,7125.68
712669,7126.69
712768,7127.68
712866,7128.66
712961,7129.61
713055,7130.55
713149,7131.49
713243,7132.43
713336,7133.36
713430,7134.3
713528,7135.28
713626,7136.26
713723,7137.23
713821,7138.21
713921,7139.21
714022,7140.22
714123,7141.23
714220,7142.2
714319,7143.19
714415,7144.15
714514,7145.14
714614,7146.14
714699,7146.99
714800,7148.0
714890,7148.9
714996,7149.96
715090,7150.9
715186,7151.86
715284,7152.84
715381,7153.81
715480,7154.8
715580,7155.8
715682,7156.82
715784,7157.84
715886,7158.86
715988,7159.88
716089,7160.89
716190,7161.9
716291,7162.91
716392,7163.92
716492,7164.92
716591,7165.91
716688,7166.88
716784,7167.84
716880,7168.8
716976,7169.76
717073,7170.73
717170,7171.7
717266,7172.66
717365,7173.65
717464,7174.64
717564,7175.64
717663,7176.63
717762,7177.62
717859,7178.59
717956,7179.56
718054,7180.54
718153,7181.53
718249,7182.49
718347,7183.47
718445,7184.45
718544,7185.44
718644,7186.44
718744,7187.44
718841,7188.41
718941,7189.41
719039,7190.39
719136,7191.36
719235,7192.35
719333,7193.33
719429,7194.29
719525,7195.25
719621,7196.21
719717,7197.17
719812,7198.12
719908,7199.08
720003,7200.03
720098,7200.98
720194,7201.94
720288,7202.88
720383,7203.83
720479,7204.79
720575,7205.75
720669,7206.69
720765,7207.65
720862,7208.62
720957,7209.57
721051,7210.51
721145,7211.45
721240,7212.4
721336,7213.36
721432,7214.32
721531,7215.31
721632,7216.32
721732,7217.32
721832,7218.32
721934,7219.34
722039,7220.39
722141,7221.41
722238,7222.38
722336,7223.36
722432,7224.32
722528,7225.28
722627,7226.27
722726,7227.26
722826,7228.26
722927,7229.27
723027,7230.27
723127,7231.27
723229,7232.29
723330,7233.3
723428,7234.28
723527,7235.27
723625,7236.25
723721,7237.21
723816,7238.16
723910,7239.1
724004,7240.04
724097,7240.97
724191,7241.91
724285,7242.85
724379,7243.79
724472,7244.72
724565,7245.65
724658,7246.58
724751,7247.51
724842,7248.42
724934,7249.34
725026,7250.26
725118,7251.18
725209,7252.09
725301,7253.01
725393,7253.93
725487,7254.87
725581,7255.81
725675,7256.75
725772,7257.72
725870,7258.7
725967,7259.67
726064,7260.64
726164,7261.64
726263,7262.63
726363,7263.63
726426,7264.26
726490,7264.9
726585,7265.85
726664,7266.64
726766,7267.66
726868,7268.68
726967,7269.67
727069,7270.69
727169,7271.69
727271,7272.71
727375,7273.75
727478,7274.78
727577,7275.77
727674,7276.74
727769,7277.69
727862,7278.62
727954,7279.54
728047,7280.47
728139,7281.39
728230,7282.3
728322,7283.22
728415,7284.15
728508,7285.08
728601,7286.01
728693,7286.93
728786,7287.86
728878,7288.78
728971,7289.71
729064,7290.64
729157,7291.57
729250,7292.5
729345,7293.45
729438,7294.38
729531,7295.31
729625,7296.25
729718,7297.18
729812,7298.12
729906,7299.06
730000,7300.0
730097,7300.97
730196,7301.96
730294,7302.94
730393,7303.93
730494,7304.94
730595,7305.95
730691,7306.91
730788,7307.88
730885,7308.85
730980,7309.8
731077,7310.77
731173,7311.73
731270,7312.7
731369,7313.69
731467,7314.67
731564,7315.64
731663,7316.63
731764,7317.64
731864,7318.64
731963,7319.63
732064,7320.64
732165,7321.65
732264,7322.64
732362,7323.62
732461,7324.61
732559,7325.59
732657,7326.57
732752,7327.52
732847,7328.47
732943,7329.43
733038,7330.38
733133,7331.33
733226,7332.26
733319,7333.19
733413,7334.13
733509,7335.09
733605,7336.05
733704,7337.04
733801,7338.01
733900,7339.0
734000,7340.0
734098,7340.98
734196,7341.96
734293,7342.93
734389,7343.89
734484,7344.84
734579,7345.79
734673,7346.73
734769,7347.69
734867,7348.67
734963,7349.63
735062,7350.62
735161,7351.61
735259,7352.59
735357,7353.57
735457,7354.57
735556,7355.56
735655,7356.55
735755,7357.55
735854,7358.54
735952,7359.52
736052,7360.52
736152,7361.52
736252,7362.52
736351,7363.51
736450,7364.5
736549,7365.49
736648,7366.48
736747,7367.47
736843,7368.43
736938,7369.38
737033,7370.33
737128,7371.28
737223,7372.23
737317,7373.17
737413,7374.13
737511,7375.11
737610,7376.1
737707,7377.07
737804,7378.04
737902,7379.02
737997,7379.97
738093,7380.93
738192,7381.92
738290,7382.9
738389,7383.89
738489,7384.89
738587,7385.87
738687,7386.87
738788,7387.88
738886,7388.86
738985,7389.85
739084,7390.84
739184,7391.84
739282,7392.82
739379,7393.79
739475,7394.75
739571,7395.71
739665,7396.65
739757,7397.57
739851,7398.51
739945,7399.45
740039,7400.39
740133,7401.33
740228,7402.28
740323,7403.23
740418,7404.18
740512,7405.12
740607,7406.07
740703,7407.03
740797,7407.97
740891,7408.91
740987,7409.87
741083,7410.83
741178,7411.78
741273,7412.73
741368,7413.68
741463,7414.63
741561,7415.61
741657,7416.57
741752,7417.52
741846,7418.46
741940,7419.4
742036,7420.36
742130,7421.3
742227,7422.27
742324,7423.24
742421,7424.21
742521,7425.21
742621,7426.21
742720,7427.2
742821,7428.21
742922,7429.22
743022,7430.22
743121,7431.21
743221,7432.21
743319,7433.19
743415,7434.15
743511,7435.11
743607,7436.07
743702,7437.02
743795,7437.95
743889,7438.89
743982,7439.82
744076,7440.76
744169,7441.69
744262,7442.62
744358,7443.58
744454,7444.54
744549,7445.49
744643,7446.43
744737,7447.37
744831,7448.31
744930,7449.3
745028,7450.28
745125,7451.25
745223,7452.23
745323,7453.23
745423,7454.23
745523,7455.23
745625,7456.25
745724,7457.24
745824,7458.24
745925,7459.25
746027,7460.27
746127,7461.27
746225,7462.25
746325,7463.25
746424,7464.24
746520,7465.2
746617,7466.17
746716,7467.16
746816,7468.16
746914,7469.14
747010,7470.1
747105,7471.05
747198,7471.98
747289,7472.89
747379,7473.79
747468,7474.68
747557,7475.57
747646,7476.46
747739,7477.39
747832,7478.32
747927,7479.27
748025,7480.25
748124,7481.24
748223,7482.23
748322,7483.22
748421,7484.21
748519,7485.19
748616,7486.16
748713,7487.13
748811,7488.11
748907,7489.07
749003,7490.03
749099,7490.99
749195,7491.95
749291,7492.91
749389,7493.89
749487,7494.87
749583,7495.83
749678,7496.78
749772,7497.72
749865,7498.65
749957,7499.57
750048,7500.48
750139,7501.39
750231,7502.31
750324,7503.24
750416,7504.16
750509,7505.09
750605,7506.05
750702,7507.02
750797,7507.97
750893,7508.93
750988,7509.88
751081,7510.81
751176,7511.76
751260,7512.6
751357,7513.57
751448,7514.48
751551,7515.51
751641,7516.41
751740,7517.4
751834,7518.34
751927,7519.27
752022,7520.22
752119,7521.19
752218,7522.18
752316,7523.16
752415,7524.15
752516,7525.16
752617,7526.17
752717,7527.17
752816,7528.16
752914,7529.14
753011,7530.11
753107,7531.07
753202,7532.02
753295,7532.95
753389,7533.89
753482,7534.82
753576,7535.76
753670,7536.7
753763,7537.63
753858,7538.58
753953,7539.53
754050,7540.5
754148,7541.48
754244,7542.44
754340,7543.4
754438,7544.38
754535,7545.35
754637,7546.37
754739,7547.39
754838,7548.38
754934,7549.34
755030,7550.3
755124,7551.24
755217,7552.17
755310,7553.1
755402,7554.02
755492,7554.92
755586,7555.86
755680,7556.8
755774,7557.74
755869,7558.69
755964,7559.64
756060,7560.6
756154,7561.54
756249,7562.49
756345,7563.45
756442,7564.42
756538,7565.38
756634,7566.34
756730,7567.3
756827,7568.27
756924,7569.24
757022,7570.22
757119,7571.19
757216,7572.16
757310,7573.1
757405,7574.05
757499,7574.99
757595,7575.95
757692,7576.92
757788,7577.88
757881,7578.81
757974,7579.74
758067,7580.67
758157,7581.57
758249,7582.49
758342,7583.42
758437,7584.37
758535,7585.35
758634,7586.34
758729,7587.29
758826,7588.26
758921,7589.21
759016,7590.16
759114,7591.14
759210,7592.1
759306,7593.06
759402,7594.02
759498,7594.98
759593,7595.93
759689,7596.89
759784,7597.84
759878,7598.78
759973,7599.73
760069,7600.69
760163,7601.63
760258,7602.58
760354,7603.54
760450,7604.5
760547,7605.47
760644,7606.44
760741,7607.41
760840,7608.4
760939,7609.39
761038,7610.38
761134,7611.34
761231,7612.31
761328,7613.28
761425,7614.25
761522,7615.22
761620,7616.2
761719,7617.19
761818,7618.18
761914,7619.14
762011,7620.11
762110,7621.1
762211,7622.11
762311,7623.11
762411,7624.11
762510,7625.1
762609,7626.09
762709,7627.09
762809,7628.09
762909,7629.09
763010,7630.1
763110,7631.1
763211,7632.11
763311,7633.11
763408,7634.08
763507,7635.07
763605,7636.05
763701,7637.01
763797,7637.97
763892,7638.92
763988,7639.88
764081,7640.81
764175,7641.75
764270,7642.7
764363,7643.63
764456,7644.56
764550,7645.5
764644,7646.44
764740,7647.4
764835,7648.35
764930,7649.3
765026,7650.26
765122,7651.22
765220,7652.2
765317,7653.17
765413,7654.13
765509,7655.09
765606,7656.06
765702,7657.02
765797,7657.97
765892,7658.92
765989,7659.89
766087,7660.87
766184,7661.84
766280,7662.8
766378,7663.78
766477,7664.77
766574,7665.74
766671,7666.71
766765,7667.65
766860,7668.6
766956,7669.56
767051,7670.51
767150,7671.5
767249,7672.49
767348,7673.48
767448,7674.48
767547,7675.47
767646,7676.46
767746,7677.46
767845,7678.45
767943,7679.43
768041,7680.41
768140,7681.4
768236,7682.36
768333,7683.33
768429,7684.29
768525,7685.25
768620,7686.2
768716,7687.16
768811,7688.11
768908,7689.08
769003,7690.03
769099,7690.99
769194,7691.94
769290,7692.9
769384,7693.84
769481,7694.81
769580,7695.8
769678,7696.78
769777,7697.77
769879,7698.79
769979,7699.79
770078,7700.78
770180,7701.8
770283,7702.83
770385,7703.85
770484,7704.84
770584,7705.84
770682,7706.82
770778,7707.78
770875,7708.75
770969,7709.69
771061,7710.61
771151,7711.51
771239,7712.39
771326,7713.26
771414,7714.14
771501,7715.01
771586,7715.86
771673,7716.73
771760,7717.6
771846,7718.46
771933,7719.33
772021,7720.21
772108,7721.08
772196,7721.96
772284,7722.84
772373,7723.73
772462,7724.62
772553,7725.53
772644,7726.44
772736,7727.36
772828,7728.28
772922,7729.22
773014,7730.14
773106,7731.06
773197,7731.97
773289,7732.89
773382,7733.82
773473,7734.73
773565,7735.65
773657,7736.57
773749,7737.49
773841,7738.41
773935,7739.35
774029,7740.29
774123,7741.23
774218,7742.18
774313,7743.13
774410,7744.1
774506,7745.06
774603,7746.03
774700,7747.0
774799,7747.99
774897,7748.97
774994,7749.94
775090,7750.9
775185,7751.85
775277,7752.77
775368,7753.68
775461,7754.61
775553,7755.53
775647,7756.47
775745,7757.45
775843,7758.43
775944,7759.44
776046,7760.46
776148,7761.48
776250,7762.5
776354,7763.54
776457,7764.57
776559,7765.59
776662,7766.62
776764,7767.64
776866,7768.66
776967,7769.67
777067,7770.67
777166,7771.66
777264,7772.64
777361,7773.61
777458,7774.58
777553,7775.53
777647,7776.47
777742,7777.42
777833,7778.33
777923,7779.23
778013,7780.13
778104,7781.04
778193,7781.93
778284,7782.84
778380,7783.8
778478,7784.78
778577,7785.77
778675,7786.75
778773,7787.73
778874,7788.74
778973,7789.73
779075,7790.75
779177,7791.77
779279,7792.79
779379,7793.79
779479,7794.79
779580,7795.8
779680,7796.8
779778,7797.78
779876,7798.76
779973,7799.73
780068,7800.68
780164,7801.64
780261,7802.61
780361,7803.61
780458,7804.58
780555,7805.55
780652,7806.52
780750,7807.5
780847,7808.47
780943,7809.43
781042,7810.42
781142,7811.42
781241,7812.41
781337,7813.37
781434,7814.34
781529,7815.29
781623,7816.23
781721,7817.21
781816,7818.16
781913,7819.13
782011,7820.11
782108,7821.08
782204,7822.04
782302,7823.02
782401,7824.01
782500,7825.0
782599,7825.99
782698,7826.98
782799,7827.99
782898,7828.98
782997,7829.97
783094,7830.94
783188,7831.88
783280,7832.8
783371,7833.71
783461,7834.61
783552,7835.52
783645,7836.45
783738,7837.38
783831,7838.31
783926,7839.26
784021,7840.21
784118,7841.18
784213,7842.13
784308,7843.08
784405,7844.05
784502,7845.02
784599,7845.99
784694,7846.94
784790,7847.9
784886,7848.86
784983,7849.83
785080,7850.8
785178,7851.78
785276,7852.76
785372,7853.72
785467,7854.67
785564,7855.64
785658,7856.58
785755,7857.55
785853,7858.53
785950,7859.5
786049,7860.49
786150,7861.5
786250,7862.5
786349,7863.49
786449,7864.49
786549,7865.49
786646,7866.46
786743,7867.43
786839,7868.39
786933,7869.33
787026,7870.26
787117,7871.17
787208,7872.08
787300,7873.0
787393,7873.93
787486,7874.86
