sample,time_sec
51,0.51
127,1.27
203,2.03
279,2.79
357,3.57
436,4.36
516,5.16
597,5.97
677,6.77
756,7.56
834,8.34
916,9.16
1001,10.01
1084,10.84
1165,11.65
1245,12.45
1325,13.25
1404,14.04
1484,14.84
1563,15.63
1641,16.41
1719,17.19
1796,17.96
1874,18.74
1952,19.52
2028,20.28
2104,21.04
2180,21.8
2256,22.56
2332,23.32
2408,24.08
2483,24.83
2558,25.58
2634,26.34
2710,27.1
2786,27.86
2862,28.62
2939,29.39
3016,30.16
3092,30.92
3168,31.68
3244,32.44
3322,33.22
3399,33.99
3476,34.76
3552,35.52
3628,36.28
3705,37.05
3783,37.83
3861,38.61
3940,39.4
4017,40.17
4094,40.94
4172,41.72
4250,42.5
4327,43.27
4403,44.03
4479,44.79
4554,45.54
4627,46.27
4700,47.0
4773,47.73
4847,48.47
4921,49.21
4994,49.94
5066,50.66
5139,51.39
5211,52.11
5284,52.84
5356,53.56
5429,54.29
5502,55.02
5576,55.76
5651,56.51
5726,57.26
5801,58.01
5877,58.77
5955,59.55
6034,60.34
6115,61.15
6195,61.95
6274,62.74
6352,63.52
6431,64.31
6510,65.1
6590,65.9
6670,66.7
6749,67.49
6828,68.28
6904,69.04
6980,69.8
7055,70.55
7130,71.3
7205,72.05
7280,72.8
7353,73.53
7426,74.26
7499,74.99
7571,75.71
7643,76.43
7717,77.17
7794,77.94
7875,78.75
7956,79.56
8032,80.32
8110,81.1
8187,81.87
8263,82.63
8337,83.37
8411,84.11
8486,84.86
8562,85.62
8638,86.38
8713,87.13
8789,87.89
8866,88.66
8945,89.45
9024,90.24
9105,91.05
9185,91.85
9264,92.64
9344,93.44
9424,94.24
9505,95.05
9587,95.87
9668,96.68
9749,97.49
9831,98.31
9912,99.12
9992,99.92
10072,100.72
10151,101.51
10227,102.27
10303,103.03
10377,103.77
10452,104.52
10526,105.26
10600,106.0
10675,106.75
10748,107.48
10820,108.2
10890,108.9
10962,109.62
11033,110.33
11104,111.04
11178,111.78
11257,112.57
11337,113.37
11415,114.15
11491,114.91
11569,115.69
11644,116.44
11717,117.17
11790,117.9
11866,118.66
11948,119.48
12027,120.27
12104,121.04
12179,121.79
12252,122.52
12327,123.27
12406,124.06
12490,124.9
12582,125.82
12672,126.72
12761,127.61
12850,128.5
12937,129.37
13023,130.23
13108,131.08
13194,131.94
13278,132.78
13361,133.61
13444,134.44
13526,135.26
13608,136.08
13689,136.89
13769,137.69
13848,138.48
13927,139.27
14006,140.06
14083,140.83
14162,141.62
14240,142.4
14320,143.2
14400,144.0
14480,144.8
14560,145.6
14641,146.41
14724,147.24
14804,148.04
14882,148.82
14957,149.57
15032,150.32
15107,151.07
15182,151.82
15256,152.56
15330,153.3
15405,154.05
15480,154.8
15555,155.55
15630,156.3
15705,157.05
15782,157.82
15860,158.6
15939,159.39
16019,160.19
16099,160.99
16177,161.77
16255,162.55
16335,163.35
16415,164.15
16495,164.95
16575,165.75
16653,166.53
16731,167.31
16808,168.08
16885,168.85
16961,169.61
17038,170.38
17115,171.15
17190,171.9
17263,172.63
17336,173.36
17408,174.08
17481,174.81
17556,175.56
17633,176.33
17711,177.11
17787,177.87
17861,178.61
17935,179.35
18009,180.09
18083,180.83
18156,181.56
18229,182.29
18302,183.02
18376,183.76
18449,184.49
18522,185.22
18595,185.95
18671,186.71
18747,187.47
18824,188.24
18901,189.01
18982,189.82
19065,190.65
19149,191.49
19232,192.32
19316,193.16
19401,194.01
19485,194.85
19570,195.7
19654,196.54
19737,197.37
19820,198.2
19901,199.01
19982,199.82
20063,200.63
20144,201.44
20224,202.24
20305,203.05
20387,203.87
20469,204.69
20551,205.51
20633,206.33
20715,207.15
20798,207.98
20879,208.79
20959,209.59
21040,210.4
21119,211.19
21197,211.97
21275,212.75
21351,213.51
21427,214.27
21503,215.03
21579,215.79
21656,216.56
21734,217.34
21810,218.1
21885,218.85
21959,219.59
22033,220.33
22108,221.08
22184,221.84
22260,222.6
22337,223.37
22415,224.15
22494,224.94
22573,225.73
22651,226.51
22728,227.28
22806,228.06
22884,228.84
22964,229.64
23043,230.43
23120,231.2
23196,231.96
23274,232.74
23352,233.52
23431,234.31
23511,235.11
23590,235.9
23667,236.67
23744,237.44
23821,238.21
23901,239.01
23980,239.8
24058,240.58
24136,241.36
24215,242.15
24293,242.93
24370,243.7
24445,244.45
24521,245.21
24597,245.97
24674,246.74
24751,247.51
24828,248.28
24905,249.05
24981,249.81
25058,250.58
25136,251.36
25215,252.15
25291,252.91
25365,253.65
25439,254.39
25515,255.15
25590,255.9
25665,256.65
25742,257.42
25820,258.2
25898,258.98
25977,259.77
26056,260.56
26135,261.35
26214,262.14
26294,262.94
26374,263.74
26453,264.53
26533,265.33
26613,266.13
26694,266.94
26776,267.76
26859,268.59
26942,269.42
27027,270.27
27110,271.1
27193,271.93
27276,272.76
27358,273.58
27442,274.42
27526,275.26
27609,276.09
27693,276.93
27776,277.76
27857,278.57
27936,279.36
28013,280.13
28090,280.9
28166,281.66
28243,282.43
28321,283.21
28397,283.97
28471,284.71
28543,285.43
28616,286.16
28689,286.89
28762,287.62
28835,288.35
28908,289.08
28982,289.82
29057,290.57
29131,291.31
29205,292.05
29280,292.8
29356,293.56
29434,294.34
29512,295.12
29592,295.92
29673,296.73
29760,297.6
29847,298.47
29933,299.33
30019,300.19
30104,301.04
30187,301.87
30269,302.69
30350,303.5
30431,304.31
30514,305.14
30596,305.96
30679,306.79
30761,307.61
30842,308.42
30922,309.22
31001,310.01
31080,310.8
31159,311.59
31239,312.39
31318,313.18
31395,313.95
31471,314.71
31547,315.47
31623,316.23
31700,317.0
31777,317.77
31853,318.53
31928,319.28
32003,320.03
32080,320.8
32158,321.58
32235,322.35
32310,323.1
32385,323.85
32459,324.59
32533,325.33
32609,326.09
32683,326.83
32757,327.57
32830,328.3
32904,329.04
32978,329.78
33052,330.52
33124,331.24
33196,331.96
33268,332.68
33340,333.4
33411,334.11
33481,334.81
33551,335.51
33622,336.22
33694,336.94
33771,337.71
33851,338.51
33938,339.38
34027,340.27
34114,341.14
34202,342.02
34287,342.87
34373,343.73
34459,344.59
34543,345.43
34627,346.27
34710,347.1
34793,347.93
34876,348.76
34956,349.56
35035,350.35
35114,351.14
35192,351.92
35272,352.72
35350,353.5
35427,354.27
35504,355.04
35581,355.81
35658,356.58
35734,357.34
35811,358.11
35888,358.88
35965,359.65
36041,360.41
36116,361.16
36192,361.92
36268,362.68
36342,363.42
36416,364.16
36490,364.9
36563,365.63
36637,366.37
36711,367.11
36784,367.84
36856,368.56
36929,369.29
37003,370.03
37077,370.77
37152,371.52
37229,372.29
37306,373.06
37383,373.83
37461,374.61
37539,375.39
37618,376.18
37698,376.98
37779,377.79
37860,378.6
37942,379.42
38024,380.24
38106,381.06
38187,381.87
38266,382.66
38347,383.47
38426,384.26
38507,385.07
38587,385.87
38667,386.67
38745,387.45
38820,388.2
38896,388.96
38973,389.73
39048,390.48
39124,391.24
39199,391.99
39274,392.74
39351,393.51
39428,394.28
39504,395.04
39580,395.8
39659,396.59
39739,397.39
39819,398.19
39900,399.0
39982,399.82
40064,400.64
40146,401.46
40227,402.27
40308,403.08
40390,403.9
40469,404.69
40546,405.46
40625,406.25
40704,407.04
40784,407.84
40863,408.63
40944,409.44
41024,410.24
41103,411.03
41181,411.81
41261,412.61
41340,413.4
41420,414.2
41500,415.0
41581,415.81
41663,416.63
41744,417.44
41824,418.24
41904,419.04
41983,419.83
42063,420.63
42144,421.44
42225,422.25
42305,423.05
42385,423.85
42465,424.65
42544,425.44
42621,426.21
42698,426.98
42775,427.75
42851,428.51
42927,429.27
43002,430.02
43079,430.79
43157,431.57
43235,432.35
43313,433.13
43391,433.91
43471,434.71
43552,435.52
43632,436.32
43711,437.11
43790,437.9
43872,438.72
43958,439.58
44043,440.43
44128,441.28
44211,442.11
44293,442.93
44375,443.75
44458,444.58
44540,445.4
44622,446.22
44704,447.04
44785,447.85
44865,448.65
44944,449.44
45023,450.23
45099,450.99
45177,451.77
45254,452.54
45331,453.31
45408,454.08
45486,454.86
45563,455.63
45640,456.4
45718,457.18
45795,457.95
45873,458.73
45951,459.51
46030,460.3
46110,461.1
46187,461.87
46261,462.61
46335,463.35
46410,464.1
46488,464.88
46567,465.67
46647,466.47
46727,467.27
46808,468.08
46890,468.9
46973,469.73
47057,470.57
47139,471.39
47222,472.22
47304,473.04
47385,473.85
47466,474.66
47546,475.46
47625,476.25
47703,477.03
47782,477.82
47860,478.6
47936,479.36
48012,480.12
48088,480.88
48163,481.63
48236,482.36
48311,483.11
48385,483.85
48459,484.59
48534,485.34
48610,486.1
48686,486.86
48762,487.62
48839,488.39
48917,489.17
48996,489.96
49074,490.74
49152,491.52
49230,492.3
49308,493.08
49387,493.87
49468,494.68
49549,495.49
49630,496.3
49709,497.09
49789,497.89
49870,498.7
49950,499.5
50030,500.3
50110,501.1
50189,501.89
50267,502.67
50343,503.43
50421,504.21
50500,505.0
50579,505.79
50659,506.59
50740,507.4
50820,508.2
50901,509.01
50982,509.82
51063,510.63
51144,511.44
51225,512.25
51305,513.05
51385,513.85
51466,514.66
51547,515.47
51628,516.28
51708,517.08
51789,517.89
51870,518.7
51948,519.48
52025,520.25
52102,521.02
52178,521.78
52254,522.54
52329,523.29
52404,524.04
52477,524.77
52551,525.51
52625,526.25
52697,526.97
52769,527.69
52839,528.39
52909,529.09
52980,529.8
53050,530.5
53122,531.22
53196,531.96
53272,532.72
53349,533.49
53426,534.26
53503,535.03
53582,535.82
53661,536.61
53743,537.43
53823,538.23
53904,539.04
53985,539.85
54065,540.65
54145,541.45
54226,542.26
54306,543.06
54385,543.85
54464,544.64
54543,545.43
54623,546.23
54704,547.04
54783,547.83
54860,548.6
54936,549.36
55013,550.13
55089,550.89
55166,551.66
55243,552.43
55318,553.18
55392,553.92
55468,554.68
55543,555.43
55619,556.19
55693,556.93
55766,557.66
55840,558.4
55915,559.15
55990,559.9
56064,560.64
56139,561.39
56215,562.15
56292,562.92
56371,563.71
56449,564.49
56529,565.29
56610,566.1
56691,566.91
56770,567.7
56851,568.51
56933,569.33
57013,570.13
57093,570.93
57172,571.72
57249,572.49
57327,573.27
57404,574.04
57481,574.81
57557,575.57
57633,576.33
57707,577.07
57782,577.82
57858,578.58
57935,579.35
58014,580.14
58091,580.91
58166,581.66
58241,582.41
58316,583.16
58393,583.93
58468,584.68
58543,585.43
58618,586.18
58697,586.97
58779,587.79
58862,588.62
58943,589.43
59025,590.25
59107,591.07
59189,591.89
59268,592.68
59348,593.48
59429,594.29
59513,595.13
59597,595.97
59679,596.79
59759,597.59
59837,598.37
59912,599.12
59986,599.86
60062,600.62
60139,601.39
60218,602.18
60297,602.97
60377,603.77
60459,604.59
60541,605.41
60624,606.24
60709,607.09
60794,607.94
60878,608.78
60962,609.62
61046,610.46
61130,611.3
61214,612.14
61297,612.97
61379,613.79
61461,614.61
61543,615.43
61623,616.23
61701,617.01
61777,617.77
61851,618.51
61925,619.25
62000,620.0
62076,620.76
62152,621.52
62228,622.28
62304,623.04
62380,623.8
62455,624.55
62529,625.29
62604,626.04
62679,626.79
62756,627.56
62833,628.33
62910,629.1
62989,629.89
63070,630.7
63153,631.53
63237,632.37
63319,633.19
63401,634.01
63483,634.83
63565,635.65
63647,636.47
63729,637.29
63811,638.11
63892,638.92
63973,639.73
64053,640.53
64131,641.31
64207,642.07
64285,642.85
64363,643.63
64444,644.44
64524,645.24
64604,646.04
64681,646.81
64757,647.57
64830,648.3
64902,649.02
64976,649.76
65048,650.48
65120,651.2
65191,651.91
65264,652.64
65339,653.39
65412,654.12
65484,654.84
65556,655.56
65629,656.29
65700,657.0
65771,657.71
65842,658.42
65914,659.14
65988,659.88
66065,660.65
66142,661.42
66221,662.21
66304,663.04
66392,663.92
66485,664.85
66576,665.76
66666,666.66
66753,667.53
66840,668.4
66926,669.26
67010,670.1
67092,670.92
67169,671.69
67247,672.47
67326,673.26
67402,674.02
67477,674.77
67552,675.52
67626,676.26
67701,677.01
67775,677.75
67849,678.49
67925,679.25
68000,680.0
68076,680.76
68152,681.52
68228,682.28
68305,683.05
68382,683.82
68459,684.59
68536,685.36
68614,686.14
68691,686.91
68768,687.68
68845,688.45
68921,689.21
68997,689.97
69071,690.71
69144,691.44
69217,692.17
69291,692.91
69367,693.67
69443,694.43
69521,695.21
69600,696.0
69682,696.82
69767,697.67
69851,698.51
69935,699.35
70020,700.2
70104,701.04
70188,701.88
70271,702.71
70353,703.53
70434,704.34
70517,705.17
70599,705.99
70682,706.82
70765,707.65
70846,708.46
70925,709.25
71005,710.05
71083,710.83
71162,711.62
71240,712.4
71316,713.16
71392,713.92
71468,714.68
71544,715.44
71620,716.2
71695,716.95
71770,717.7
71847,718.47
71925,719.25
72004,720.04
72083,720.83
72160,721.6
72240,722.4
72320,723.2
72402,724.02
72483,724.83
72562,725.62
72642,726.42
72722,727.22
72803,728.03
72883,728.83
72960,729.6
73038,730.38
73116,731.16
73193,731.93
73272,732.72
73351,733.51
73428,734.28
73504,735.04
73578,735.78
73651,736.51
73723,737.23
73795,737.95
73866,738.66
73939,739.39
74015,740.15
74091,740.91
74167,741.67
74242,742.42
74319,743.19
74397,743.97
74473,744.73
74549,745.49
74626,746.26
74705,747.05
74786,747.86
74867,748.67
74945,749.45
75024,750.24
75104,751.04
75186,751.86
75269,752.69
75353,753.53
75434,754.34
75513,755.13
75593,755.93
75674,756.74
75756,757.56
75839,758.39
75921,759.21
76002,760.02
76081,760.81
76161,761.61
76240,762.4
76320,763.2
76398,763.98
76475,764.75
76550,765.5
76624,766.24
76696,766.96
76769,767.69
76844,768.44
76922,769.22
77000,770.0
77077,770.77
77155,771.55
77234,772.34
77313,773.13
77390,773.9
77466,774.66
77541,775.41
77616,776.16
77692,776.92
77766,777.66
77841,778.41
77918,779.18
77998,779.98
78083,780.83
78168,781.68
78253,782.53
78342,783.42
78432,784.32
78519,785.19
78606,786.06
78693,786.93
78778,787.78
78863,788.63
78948,789.48
79033,790.33
79118,791.18
79203,792.03
79287,792.87
79370,793.7
79452,794.52
79535,795.35
79617,796.17
79697,796.97
79776,797.76
79852,798.52
79929,799.29
80006,800.06
80085,800.85
80165,801.65
80243,802.43
80318,803.18
80397,803.97
80479,804.79
80563,805.63
80644,806.44
80723,807.23
80802,808.02
80883,808.83
80964,809.64
81045,810.45
81125,811.25
81207,812.07
81290,812.9
81376,813.76
81464,814.64
81553,815.53
81638,816.38
81724,817.24
81810,818.1
81894,818.94
81977,819.77
82058,820.58
82137,821.37
82216,822.16
82292,822.92
82369,823.69
82444,824.44
82519,825.19
82593,825.93
82668,826.68
82743,827.43
82819,828.19
82894,828.94
82970,829.7
83047,830.47
83124,831.24
83202,832.02
83280,832.8
83359,833.59
83440,834.4
83519,835.19
83599,835.99
83678,836.78
83757,837.57
83835,838.35
83914,839.14
83991,839.91
84067,840.67
84143,841.43
84217,842.17
84289,842.89
84361,843.61
84435,844.35
84509,845.09
84586,845.86
84665,846.65
84743,847.43
84822,848.22
84900,849.0
84979,849.79
85056,850.56
85134,851.34
85211,852.11
85289,852.89
85367,853.67
85444,854.44
85521,855.21
85597,855.97
85672,856.72
85747,857.47
85823,858.23
85898,858.98
85975,859.75
86051,860.51
86129,861.29
86206,862.06
86281,862.81
86356,863.56
86431,864.31
86505,865.05
86580,865.8
86656,866.56
86730,867.3
86805,868.05
86880,868.8
86957,869.57
87034,870.34
87111,871.11
87190,871.9
87268,872.68
87344,873.44
87421,874.21
87498,874.98
87573,875.73
87649,876.49
87723,877.23
87796,877.96
87868,878.68
87938,879.38
88010,880.1
88082,880.82
88156,881.56
88231,882.31
88306,883.06
88381,883.81
88457,884.57
88534,885.34
88610,886.1
88686,886.86
88763,887.63
88840,888.4
88918,889.18
88996,889.96
89075,890.75
89153,891.53
89231,892.31
89308,893.08
89383,893.83
89457,894.57
89531,895.31
89605,896.05
89679,896.79
89753,897.53
89827,898.27
89901,899.01
89975,899.75
90047,900.47
90121,901.21
90195,901.95
90270,902.7
90345,903.45
90421,904.21
90497,904.97
90575,905.75
90654,906.54
90734,907.34
90813,908.13
90891,908.91
90968,909.68
91046,910.46
91123,911.23
91200,912.0
91277,912.77
91354,913.54
91430,914.3
91505,915.05
91581,915.81
91656,916.56
91731,917.31
91806,918.06
91881,918.81
91958,919.58
92034,920.34
92110,921.1
92186,921.86
92264,922.64
92340,923.4
92416,924.16
92490,924.9
92563,925.63
92637,926.37
92711,927.11
92785,927.85
92859,928.59
92934,929.34
93006,930.06
93079,930.79
93150,931.5
93222,932.22
93295,932.95
93367,933.67
93440,934.4
93514,935.14
93589,935.89
93663,936.63
93736,937.36
93807,938.07
93877,938.77
93947,939.47
94018,940.18
94089,940.89
94161,941.61
94234,942.34
94309,943.09
94385,943.85
94461,944.61
94537,945.37
94612,946.12
94688,946.88
94763,947.63
94839,948.39
94916,949.16
94991,949.91
95066,950.66
95141,951.41
95215,952.15
95289,952.89
95365,953.65
95441,954.41
95516,955.16
95591,955.91
95665,956.65
95738,957.38
95811,958.11
95883,958.83
95955,959.55
96028,960.28
96103,961.03
96178,961.78
96253,962.53
96327,963.27
96401,964.01
96477,964.77
96553,965.53
96630,966.3
96707,967.07
96783,967.83
96858,968.58
96934,969.34
97010,970.1
97086,970.86
97161,971.61
97236,972.36
97311,973.11
97385,973.85
97459,974.59
97534,975.34
97609,976.09
97685,976.85
97761,977.61
97838,978.38
97914,979.14
97990,979.9
98065,980.65
98140,981.4
98214,982.14
98288,982.88
98361,983.61
98432,984.32
98503,985.03
98573,985.73
98644,986.44
98716,987.16
98789,987.89
98861,988.61
98932,989.32
99004,990.04
99075,990.75
99145,991.45
99214,992.14
99283,992.83
99353,993.53
99423,994.23
99496,994.96
99572,995.72
99654,996.54
99736,997.36
99818,998.18
99901,999.01
99985,999.85
100068,1000.68
100152,1001.52
100235,1002.35
100318,1003.18
100399,1003.99
100478,1004.78
100558,1005.58
100640,1006.4
100725,1007.25
100809,1008.09
100891,1008.91
100972,1009.72
101052,1010.52
101132,1011.32
101211,1012.11
101289,1012.89
101366,1013.66
101442,1014.42
101517,1015.17
101592,1015.92
101667,1016.67
101742,1017.42
101818,1018.18
101894,1018.94
101969,1019.69
102043,1020.43
102116,1021.16
102192,1021.92
102269,1022.69
102346,1023.46
102424,1024.24
102503,1025.03
102581,1025.81
102660,1026.6
102740,1027.4
102821,1028.21
102903,1029.03
102985,1029.85
103067,1030.67
103149,1031.49
103232,1032.32
103315,1033.15
103397,1033.97
103478,1034.78
103559,1035.59
103640,1036.4
103718,1037.18
103795,1037.95
103870,1038.7
103946,1039.46
104021,1040.21
104095,1040.95
104170,1041.7
104244,1042.44
104318,1043.18
104392,1043.92
104465,1044.65
104539,1045.39
104613,1046.13
104687,1046.87
104762,1047.62
104836,1048.36
104911,1049.11
104985,1049.85
105058,1050.58
105132,1051.32
105206,1052.06
105281,1052.81
105356,1053.56
105431,1054.31
105506,1055.06
105581,1055.81
105657,1056.57
105731,1057.31
105806,1058.06
105880,1058.8
105954,1059.54
106028,1060.28
106103,1061.03
106176,1061.76
106249,1062.49
106322,1063.22
106394,1063.94
106465,1064.65
106537,1065.37
106607,1066.07
106676,1066.76
106745,1067.45
106814,1068.14
106883,1068.83
106953,1069.53
107027,1070.27
107100,1071.0
107177,1071.77
107254,1072.54
107334,1073.34
107415,1074.15
107498,1074.98
107580,1075.8
107662,1076.62
107742,1077.42
107822,1078.22
107902,1079.02
107981,1079.81
108061,1080.61
108140,1081.4
108220,1082.2
108300,1083.0
108378,1083.78
108455,1084.55
108533,1085.33
108610,1086.1
108688,1086.88
108766,1087.66
108842,1088.42
108918,1089.18
108994,1089.94
109071,1090.71
109148,1091.48
109226,1092.26
109303,1093.03
109379,1093.79
109455,1094.55
109531,1095.31
109607,1096.07
109684,1096.84
109760,1097.6
109835,1098.35
109911,1099.11
109986,1099.86
110062,1100.62
110139,1101.39
110215,1102.15
110291,1102.91
110369,1103.69
110446,1104.46
110524,1105.24
110602,1106.02
110679,1106.79
110758,1107.58
110836,1108.36
110914,1109.14
110991,1109.91
111068,1110.68
111145,1111.45
111223,1112.23
111302,1113.02
111381,1113.81
111459,1114.59
111536,1115.36
111613,1116.13
111691,1116.91
111770,1117.7
111849,1118.49
111928,1119.28
112005,1120.05
112081,1120.81
112156,1121.56
112232,1122.32
112308,1123.08
112385,1123.85
112460,1124.6
112536,1125.36
112613,1126.13
112689,1126.89
112767,1127.67
112843,1128.43
112919,1129.19
112997,1129.97
113074,1130.74
113152,1131.52
113229,1132.29
113305,1133.05
113381,1133.81
113457,1134.57
113535,1135.35
113613,1136.13
113691,1136.91
113771,1137.71
113851,1138.51
113930,1139.3
114008,1140.08
114085,1140.85
114163,1141.63
114239,1142.39
114316,1143.16
114393,1143.93
114470,1144.7
114549,1145.49
114629,1146.29
114709,1147.09
114787,1147.87
114863,1148.63
114939,1149.39
115013,1150.13
115088,1150.88
115162,1151.62
115237,1152.37
115311,1153.11
115384,1153.84
115456,1154.56
115529,1155.29
115600,1156.0
115670,1156.7
115739,1157.39
115808,1158.08
115878,1158.78
115950,1159.5
116023,1160.23
116098,1160.98
116173,1161.73
116251,1162.51
116333,1163.33
116416,1164.16
116500,1165.0
116583,1165.83
116666,1166.66
116748,1167.48
116832,1168.32
116914,1169.14
116992,1169.92
117070,1170.7
117146,1171.46
117221,1172.21
117297,1172.97
117371,1173.71
117447,1174.47
117524,1175.24
117603,1176.03
117684,1176.84
117765,1177.65
117844,1178.44
117921,1179.21
117999,1179.99
118076,1180.76
118155,1181.55
118236,1182.36
118318,1183.18
118400,1184.0
118483,1184.83
118568,1185.68
118652,1186.52
118735,1187.35
118816,1188.16
118896,1188.96
118976,1189.76
119055,1190.55
119136,1191.36
119215,1192.15
119294,1192.94
119373,1193.73
119449,1194.49
119525,1195.25
119599,1195.99
119673,1196.73
119747,1197.47
119821,1198.21
119895,1198.95
119969,1199.69
120042,1200.42
120116,1201.16
120192,1201.92
120266,1202.66
120342,1203.42
120417,1204.17
120494,1204.94
120570,1205.7
120647,1206.47
120725,1207.25
120803,1208.03
120881,1208.81
120958,1209.58
121032,1210.32
121105,1211.05
121176,1211.76
121248,1212.48
121321,1213.21
121396,1213.96
121472,1214.72
121548,1215.48
121624,1216.24
121699,1216.99
121774,1217.74
121848,1218.48
121925,1219.25
122004,1220.04
122087,1220.87
122167,1221.67
122247,1222.47
122327,1223.27
122408,1224.08
122490,1224.9
122573,1225.73
122657,1226.57
122743,1227.43
122829,1228.29
122914,1229.14
122999,1229.99
123081,1230.81
123164,1231.64
123246,1232.46
123326,1233.26
123407,1234.07
123486,1234.86
123568,1235.68
123650,1236.5
123734,1237.34
123818,1238.18
123904,1239.04
123988,1239.88
124071,1240.71
124153,1241.53
124233,1242.33
124312,1243.12
124391,1243.91
124471,1244.71
124552,1245.52
124633,1246.33
124712,1247.12
124790,1247.9
124869,1248.69
124948,1249.48
125029,1250.29
125110,1251.1
125191,1251.91
125273,1252.73
125353,1253.53
125434,1254.34
125512,1255.12
125589,1255.89
125666,1256.66
125745,1257.45
125822,1258.22
125900,1259.0
125977,1259.77
126055,1260.55
126133,1261.33
126210,1262.1
126289,1262.89
126366,1263.66
126445,1264.45
126524,1265.24
126603,1266.03
126682,1266.82
126761,1267.61
126841,1268.41
126920,1269.2
126998,1269.98
127076,1270.76
127153,1271.53
127231,1272.31
127309,1273.09
127386,1273.86
127462,1274.62
127539,1275.39
127616,1276.16
127693,1276.93
127770,1277.7
127844,1278.44
127919,1279.19
127992,1279.92
128065,1280.65
128136,1281.36
128206,1282.06
128277,1282.77
128348,1283.48
128420,1284.2
128493,1284.93
128567,1285.67
128642,1286.42
128717,1287.17
128792,1287.92
128868,1288.68
128944,1289.44
129021,1290.21
129098,1290.98
129173,1291.73
129248,1292.48
129323,1293.23
129398,1293.98
129474,1294.74
129550,1295.5
129625,1296.25
129701,1297.01
129778,1297.78
129854,1298.54
129930,1299.3
130004,1300.04
130078,1300.78
130152,1301.52
130227,1302.27
130302,1303.02
130376,1303.76
130450,1304.5
130524,1305.24
130599,1305.99
130674,1306.74
130750,1307.5
130827,1308.27
130903,1309.03
130978,1309.78
131053,1310.53
131130,1311.3
131208,1312.08
131286,1312.86
131363,1313.63
131441,1314.41
131521,1315.21
131604,1316.04
131687,1316.87
131769,1317.69
131849,1318.49
131930,1319.3
132009,1320.09
132088,1320.88
132166,1321.66
132242,1322.42
132318,1323.18
132392,1323.92
132466,1324.66
132542,1325.42
132616,1326.16
132692,1326.92
132767,1327.67
132843,1328.43
132919,1329.19
132995,1329.95
133072,1330.72
133148,1331.48
133223,1332.23
133297,1332.97
133371,1333.71
133443,1334.43
133515,1335.15
133585,1335.85
133655,1336.55
133725,1337.25
133797,1337.97
133869,1338.69
133941,1339.41
134013,1340.13
134084,1340.84
134156,1341.56
134229,1342.29
134303,1343.03
134379,1343.79
134457,1344.57
134537,1345.37
134617,1346.17
134696,1346.96
134777,1347.77
134857,1348.57
134937,1349.37
135017,1350.17
135096,1350.96
135174,1351.74
135252,1352.52
135329,1353.29
135406,1354.06
135484,1354.84
135561,1355.61
135638,1356.38
135717,1357.17
135795,1357.95
135871,1358.71
135947,1359.47
136024,1360.24
136100,1361.0
136177,1361.77
136254,1362.54
136331,1363.31
136410,1364.1
136488,1364.88
136567,1365.67
136644,1366.44
136721,1367.21
136798,1367.98
136875,1368.75
136952,1369.52
137029,1370.29
137107,1371.07
137184,1371.84
137260,1372.6
137335,1373.35
137410,1374.1
137485,1374.85
137560,1375.6
137636,1376.36
137712,1377.12
137788,1377.88
137863,1378.63
137937,1379.37
138011,1380.11
138084,1380.84
138158,1381.58
138231,1382.31
138304,1383.04
138379,1383.79
138453,1384.53
138527,1385.27
138602,1386.02
138677,1386.77
138751,1387.51
138827,1388.27
138905,1389.05
138986,1389.86
139067,1390.67
139147,1391.47
139226,1392.26
139301,1393.01
139377,1393.77
139450,1394.5
139524,1395.24
139599,1395.99
139672,1396.72
139745,1397.45
139819,1398.19
139896,1398.96
139973,1399.73
140049,1400.49
140127,1401.27
140209,1402.09
140294,1402.94
140380,1403.8
140466,1404.66
140548,1405.48
140631,1406.31
140712,1407.12
140792,1407.92
140872,1408.72
140952,1409.52
141031,1410.31
141110,1411.1
141188,1411.88
141265,1412.65
141342,1413.42
141422,1414.22
141500,1415.0
141578,1415.78
141655,1416.55
141733,1417.33
141810,1418.1
141885,1418.85
141961,1419.61
142037,1420.37
142114,1421.14
142190,1421.9
142265,1422.65
142340,1423.4
142414,1424.14
142488,1424.88
142563,1425.63
142636,1426.36
142709,1427.09
142782,1427.82
142856,1428.56
142928,1429.28
143001,1430.01
143074,1430.74
143148,1431.48
143223,1432.23
143296,1432.96
143370,1433.7
143445,1434.45
143520,1435.2
143596,1435.96
143674,1436.74
143752,1437.52
143833,1438.33
143916,1439.16
143999,1439.99
144082,1440.82
144163,1441.63
144244,1442.44
144326,1443.26
144408,1444.08
144489,1444.89
144569,1445.69
144648,1446.48
144726,1447.26
144803,1448.03
144879,1448.79
144956,1449.56
145034,1450.34
145109,1451.09
145182,1451.82
145254,1452.54
145324,1453.24
145393,1453.93
145461,1454.61
145529,1455.29
145598,1455.98
145668,1456.68
145739,1457.39
145810,1458.1
145885,1458.85
145963,1459.63
146043,1460.43
146127,1461.27
146211,1462.11
146291,1462.91
146372,1463.72
146455,1464.55
146538,1465.38
146621,1466.21
146703,1467.03
146785,1467.85
146865,1468.65
146944,1469.44
147023,1470.23
147101,1471.01
147180,1471.8
147258,1472.58
147335,1473.35
147411,1474.11
147487,1474.87
147564,1475.64
147642,1476.42
147721,1477.21
147802,1478.02
147882,1478.82
147961,1479.61
148040,1480.4
148118,1481.18
148196,1481.96
148273,1482.73
148352,1483.52
148430,1484.3
148508,1485.08
148587,1485.87
148664,1486.64
148742,1487.42
148821,1488.21
148898,1488.98
148976,1489.76
149052,1490.52
149128,1491.28
149204,1492.04
149281,1492.81
149358,1493.58
149435,1494.35
149510,1495.1
149585,1495.85
149660,1496.6
149734,1497.34
149809,1498.09
149885,1498.85
149959,1499.59
150034,1500.34
150109,1501.09
150184,1501.84
150260,1502.6
150336,1503.36
150413,1504.13
150489,1504.89
150563,1505.63
150638,1506.38
150713,1507.13
150790,1507.9
150867,1508.67
150944,1509.44
151022,1510.22
151098,1510.98
151173,1511.73
151246,1512.46
151318,1513.18
151390,1513.9
151463,1514.63
151536,1515.36
151609,1516.09
151681,1516.81
151754,1517.54
151827,1518.27
151901,1519.01
151975,1519.75
152049,1520.49
152123,1521.23
152197,1521.97
152273,1522.73
152348,1523.48
152423,1524.23
152499,1524.99
152577,1525.77
152655,1526.55
152732,1527.32
152810,1528.1
152887,1528.87
152965,1529.65
153043,1530.43
153120,1531.2
153197,1531.97
153274,1532.74
153352,1533.52
153431,1534.31
153507,1535.07
153582,1535.82
153658,1536.58
153736,1537.36
153813,1538.13
153890,1538.9
153966,1539.66
154042,1540.42
154117,1541.17
154192,1541.92
154268,1542.68
154343,1543.43
154418,1544.18
154491,1544.91
154564,1545.64
154637,1546.37
154710,1547.1
154782,1547.82
154853,1548.53
154924,1549.24
154993,1549.93
155064,1550.64
155136,1551.36
155208,1552.08
155280,1552.8
155354,1553.54
155428,1554.28
155502,1555.02
155575,1555.75
155649,1556.49
155723,1557.23
155799,1557.99
155875,1558.75
155947,1559.47
156019,1560.19
156089,1560.89
156160,1561.6
156231,1562.31
156306,1563.06
156382,1563.82
156461,1564.61
156543,1565.43
156626,1566.26
156710,1567.1
156790,1567.9
156870,1568.7
156949,1569.49
157026,1570.26
157103,1571.03
157179,1571.79
157256,1572.56
157333,1573.33
157411,1574.11
157488,1574.88
157564,1575.64
157640,1576.4
157716,1577.16
157793,1577.93
157872,1578.72
157950,1579.5
158030,1580.3
158109,1581.09
158188,1581.88
158266,1582.66
158345,1583.45
158426,1584.26
158506,1585.06
158587,1585.87
158668,1586.68
158748,1587.48
158828,1588.28
158908,1589.08
158988,1589.88
159069,1590.69
159150,1591.5
159231,1592.31
159311,1593.11
159390,1593.9
159469,1594.69
159549,1595.49
159629,1596.29
159711,1597.11
159794,1597.94
159878,1598.78
159960,1599.6
160041,1600.41
160121,1601.21
160200,1602.0
160279,1602.79
160358,1603.58
160435,1604.35
160508,1605.08
160581,1605.81
160655,1606.55
160729,1607.29
160804,1608.04
160878,1608.78
160952,1609.52
161027,1610.27
161103,1611.03
161177,1611.77
161251,1612.51
161325,1613.25
161401,1614.01
161476,1614.76
161552,1615.52
161630,1616.3
161709,1617.09
161790,1617.9
161873,1618.73
161956,1619.56
162038,1620.38
162119,1621.19
162199,1621.99
162279,1622.79
162358,1623.58
162437,1624.37
162514,1625.14
162590,1625.9
162667,1626.67
162744,1627.44
162820,1628.2
162897,1628.97
162974,1629.74
163048,1630.48
163122,1631.22
163196,1631.96
163270,1632.7
163344,1633.44
163419,1634.19
163493,1634.93
163568,1635.68
163644,1636.44
163720,1637.2
163795,1637.95
163870,1638.7
163946,1639.46
164023,1640.23
164101,1641.01
164179,1641.79
164257,1642.57
164339,1643.39
164422,1644.22
164508,1645.08
164595,1645.95
164679,1646.79
164764,1647.64
164848,1648.48
164931,1649.31
165016,1650.16
165101,1651.01
165185,1651.85
165269,1652.69
165351,1653.51
165434,1654.34
165516,1655.16
165598,1655.98
165680,1656.8
165761,1657.61
165841,1658.41
165918,1659.18
165993,1659.93
166067,1660.67
166141,1661.41
166216,1662.16
166295,1662.95
166371,1663.71
166448,1664.48
166523,1665.23
166598,1665.98
166671,1666.71
166743,1667.43
166814,1668.14
166886,1668.86
166960,1669.6
167035,1670.35
167112,1671.12
167193,1671.93
167274,1672.74
167355,1673.55
167438,1674.38
167524,1675.24
167610,1676.1
167695,1676.95
167778,1677.78
167860,1678.6
167942,1679.42
168024,1680.24
168105,1681.05
168184,1681.84
168262,1682.62
168341,1683.41
168420,1684.2
168497,1684.97
168575,1685.75
168652,1686.52
168731,1687.31
168810,1688.1
168888,1688.88
168966,1689.66
169045,1690.45
169123,1691.23
169200,1692.0
169278,1692.78
169357,1693.57
169436,1694.36
169512,1695.12
169590,1695.9
169668,1696.68
169746,1697.46
169822,1698.22
169898,1698.98
169976,1699.76
170055,1700.55
170136,1701.36
170219,1702.19
170302,1703.02
170387,1703.87
170471,1704.71
170554,1705.54
170637,1706.37
170720,1707.2
170802,1708.02
170885,1708.85
170967,1709.67
171048,1710.48
171129,1711.29
171208,1712.08
171285,1712.85
171360,1713.6
171434,1714.34
171508,1715.08
171582,1715.82
171657,1716.57
171733,1717.33
171808,1718.08
171883,1718.83
171957,1719.57
172032,1720.32
172107,1721.07
172181,1721.81
172255,1722.55
172331,1723.31
172408,1724.08
172486,1724.86
172565,1725.65
172647,1726.47
172731,1727.31
172818,1728.18
172903,1729.03
172989,1729.89
173074,1730.74
173157,1731.57
173239,1732.39
173321,1733.21
173402,1734.02
173484,1734.84
173566,1735.66
173648,1736.48
173729,1737.29
173811,1738.11
173890,1738.9
173970,1739.7
174050,1740.5
174130,1741.3
174211,1742.11
174294,1742.94
174377,1743.77
174462,1744.62
174547,1745.47
174633,1746.33
174716,1747.16
174798,1747.98
174879,1748.79
174960,1749.6
175041,1750.41
175120,1751.2
175197,1751.97
175272,1752.72
175347,1753.47
175422,1754.22
175497,1754.97
175573,1755.73
175646,1756.46
175717,1757.17
175788,1757.88
175859,1758.59
175930,1759.3
176003,1760.03
176076,1760.76
176150,1761.5
176223,1762.23
176298,1762.98
176373,1763.73
176448,1764.48
176523,1765.23
176598,1765.98
176675,1766.75
176750,1767.5
176827,1768.27
176905,1769.05
176982,1769.82
177058,1770.58
177134,1771.34
177209,1772.09
177284,1772.84
177357,1773.57
177431,1774.31
177503,1775.03
177576,1775.76
177649,1776.49
177722,1777.22
177793,1777.93
177864,1778.64
177936,1779.36
178007,1780.07
178077,1780.77
178147,1781.47
178219,1782.19
178292,1782.92
178365,1783.65
178437,1784.37
178510,1785.1
178583,1785.83
178655,1786.55
178728,1787.28
178801,1788.01
178875,1788.75
178949,1789.49
179022,1790.22
179095,1790.95
179167,1791.67
179239,1792.39
179312,1793.12
179383,1793.83
179453,1794.53
179522,1795.22
179591,1795.91
179661,1796.61
179733,1797.33
179806,1798.06
179880,1798.8
179954,1799.54
180030,1800.3
180105,1801.05
180179,1801.79
180255,1802.55
180329,1803.29
180403,1804.03
180477,1804.77
180550,1805.5
180623,1806.23
180697,1806.97
180770,1807.7
180845,1808.45
180919,1809.19
180995,1809.95
181070,1810.7
181146,1811.46
181221,1812.21
181297,1812.97
181372,1813.72
181446,1814.46
181522,1815.22
181598,1815.98
181674,1816.74
181752,1817.52
181830,1818.3
181908,1819.08
181985,1819.85
182062,1820.62
182139,1821.39
182217,1822.17
182295,1822.95
182373,1823.73
182452,1824.52
182529,1825.29
182605,1826.05
182679,1826.79
182753,1827.53
182828,1828.28
182904,1829.04
182979,1829.79
183053,1830.53
183125,1831.25
183197,1831.97
183270,1832.7
183345,1833.45
183422,1834.22
183499,1834.99
183577,1835.77
183657,1836.57
183738,1837.38
183819,1838.19
183901,1839.01
183983,1839.83
184063,1840.63
184145,1841.45
184226,1842.26
184307,1843.07
184388,1843.88
184470,1844.7
184551,1845.51
184630,1846.3
184707,1847.07
184782,1847.82
184856,1848.56
184930,1849.3
185004,1850.04
185078,1850.78
185153,1851.53
185229,1852.29
185306,1853.06
185382,1853.82
185458,1854.58
185535,1855.35
185612,1856.12
185690,1856.9
185768,1857.68
185847,1858.47
185927,1859.27
186007,1860.07
186086,1860.86
186164,1861.64
186242,1862.42
186320,1863.2
186397,1863.97
186476,1864.76
186553,1865.53
186632,1866.32
186710,1867.1
186788,1867.88
186865,1868.65
186941,1869.41
187017,1870.17
187094,1870.94
187171,1871.71
187248,1872.48
187326,1873.26
187403,1874.03
187480,1874.8
187556,1875.56
187633,1876.33
187709,1877.09
187786,1877.86
187863,1878.63
187940,1879.4
188018,1880.18
188096,1880.96
188174,1881.74
188252,1882.52
188329,1883.29
188407,1884.07
188484,1884.84
188560,1885.6
188636,1886.36
188711,1887.11
188788,1887.88
188864,1888.64
188940,1889.4
189015,1890.15
189090,1890.9
189164,1891.64
189239,1892.39
189314,1893.14
189388,1893.88
189461,1894.61
189535,1895.35
189609,1896.09
189685,1896.85
189759,1897.59
189834,1898.34
189910,1899.1
189986,1899.86
190063,1900.63
190140,1901.4
190216,1902.16
190294,1902.94
190372,1903.72
190450,1904.5
190529,1905.29
190609,1906.09
190688,1906.88
190765,1907.65
190841,1908.41
190915,1909.15
190987,1909.87
191058,1910.58
191129,1911.29
191200,1912.0
191273,1912.73
191348,1913.48
191424,1914.24
191501,1915.01
191582,1915.82
191663,1916.63
191744,1917.44
191825,1918.25
191904,1919.04
191983,1919.83
192063,1920.63
192144,1921.44
192224,1922.24
192303,1923.03
192380,1923.8
192457,1924.57
192535,1925.35
192608,1926.08
192682,1926.82
192755,1927.55
192827,1928.27
192901,1929.01
192976,1929.76
193051,1930.51
193126,1931.26
193202,1932.02
193277,1932.77
193352,1933.52
193427,1934.27
193503,1935.03
193578,1935.78
193653,1936.53
193728,1937.28
193803,1938.03
193877,1938.77
193953,1939.53
194031,1940.31
194110,1941.1
194191,1941.91
194270,1942.7
194350,1943.5
194429,1944.29
194509,1945.09
194591,1945.91
194674,1946.74
194757,1947.57
194839,1948.39
194919,1949.19
194998,1949.98
195077,1950.77
195155,1951.55
195234,1952.34
195315,1953.15
195396,1953.96
195476,1954.76
195555,1955.55
195632,1956.32
195708,1957.08
195783,1957.83
195857,1958.57
195933,1959.33
196006,1960.06
196079,1960.79
196153,1961.53
196227,1962.27
196300,1963.0
196372,1963.72
196443,1964.43
196514,1965.14
196584,1965.84
196654,1966.54
196723,1967.23
196789,1967.89
196855,1968.55
196923,1969.23
196991,1969.91
197057,1970.57
197124,1971.24
197189,1971.89
197255,1972.55
197323,1973.23
197387,1973.87
197452,1974.52
197515,1975.15
197579,1975.79
197643,1976.43
197706,1977.06
197769,1977.69
197831,1978.31
197894,1978.94
197958,1979.58
198022,1980.22
198087,1980.87
198152,1981.52
198218,1982.18
198285,1982.85
198353,1983.53
198422,1984.22
198491,1984.91
198562,1985.62
198634,1986.34
198707,1987.07
198782,1987.82
198856,1988.56
198932,1989.32
199008,1990.08
199086,1990.86
199163,1991.63
199241,1992.41
199320,1993.2
199398,1993.98
199475,1994.75
199552,1995.52
199626,1996.26
199701,1997.01
199776,1997.76
199852,1998.52
199929,1999.29
200006,2000.06
200082,2000.82
200158,2001.58
200235,2002.35
200311,2003.11
200387,2003.87
200461,2004.61
200535,2005.35
200609,2006.09
200684,2006.84
200760,2007.6
200835,2008.35
200909,2009.09
200983,2009.83
201059,2010.59
201135,2011.35
201211,2012.11
201286,2012.86
201360,2013.6
201434,2014.34
201509,2015.09
201584,2015.84
201658,2016.58
201733,2017.33
201807,2018.07
201883,2018.83
201959,2019.59
202035,2020.35
202110,2021.1
202185,2021.85
202261,2022.61
202338,2023.38
202415,2024.15
202491,2024.91
202567,2025.67
202643,2026.43
202721,2027.21
202799,2027.99
202878,2028.78
202955,2029.55
203031,2030.31
203109,2031.09
203187,2031.87
203264,2032.64
203342,2033.42
203418,2034.18
203496,2034.96
203574,2035.74
203652,2036.52
203726,2037.26
203799,2037.99
203872,2038.72
203947,2039.47
204022,2040.22
204095,2040.95
204168,2041.68
204244,2042.44
204322,2043.22
204402,2044.02
204481,2044.81
204560,2045.6
204639,2046.39
204720,2047.2
204800,2048.0
204880,2048.8
204959,2049.59
205038,2050.38
205117,2051.17
205197,2051.97
205277,2052.77
205357,2053.57
205438,2054.38
205519,2055.19
205602,2056.02
205686,2056.86
205769,2057.69
205850,2058.5
205932,2059.32
206012,2060.12
206093,2060.93
206172,2061.72
206249,2062.49
206328,2063.28
206407,2064.07
206487,2064.87
206567,2065.67
206646,2066.46
206725,2067.25
206803,2068.03
206882,2068.82
206960,2069.6
207040,2070.4
207118,2071.18
207195,2071.95
207270,2072.7
207344,2073.44
207416,2074.16
207488,2074.88
207559,2075.59
207630,2076.3
207704,2077.04
207779,2077.79
207857,2078.57
207935,2079.35
208012,2080.12
208092,2080.92
208175,2081.75
208258,2082.58
208343,2083.43
208426,2084.26
208508,2085.08
208592,2085.92
208676,2086.76
208761,2087.61
208843,2088.43
208925,2089.25
209008,2090.08
209090,2090.9
209171,2091.71
209249,2092.49
209329,2093.29
209408,2094.08
209491,2094.91
209572,2095.72
209652,2096.52
209733,2097.33
209814,2098.14
209897,2098.97
209980,2099.8
210062,2100.62
210141,2101.41
210220,2102.2
210299,2102.99
210378,2103.78
210457,2104.57
210534,2105.34
210612,2106.12
210691,2106.91
210770,2107.7
210852,2108.52
210934,2109.34
211012,2110.12
211091,2110.91
211171,2111.71
211250,2112.5
211330,2113.3
211408,2114.08
211485,2114.85
211562,2115.62
211639,2116.39
211716,2117.16
211794,2117.94
211873,2118.73
211949,2119.49
212027,2120.27
212105,2121.05
212184,2121.84
212264,2122.64
212342,2123.42
212420,2124.2
212499,2124.99
212577,2125.77
212657,2126.57
212737,2127.37
212815,2128.15
212893,2128.93
212971,2129.71
213050,2130.5
213130,2131.3
213210,2132.1
213287,2132.87
213365,2133.65
213443,2134.43
213522,2135.22
213603,2136.03
213683,2136.83
213763,2137.63
213840,2138.4
213918,2139.18
213996,2139.96
214075,2140.75
214154,2141.54
214233,2142.33
214311,2143.11
214390,2143.9
214469,2144.69
214549,2145.49
214630,2146.3
214709,2147.09
214787,2147.87
214866,2148.66
214945,2149.45
215026,2150.26
215106,2151.06
215185,2151.85
215263,2152.63
215342,2153.42
215421,2154.21
215502,2155.02
215583,2155.83
215665,2156.65
215744,2157.44
215824,2158.24
215903,2159.03
215982,2159.82
216061,2160.61
216138,2161.38
216215,2162.15
216292,2162.92
216370,2163.7
216449,2164.49
216529,2165.29
216607,2166.07
216683,2166.83
216761,2167.61
216839,2168.39
216917,2169.17
216997,2169.97
217076,2170.76
217155,2171.55
217232,2172.32
217309,2173.09
217388,2173.88
217467,2174.67
217550,2175.5
217631,2176.31
217711,2177.11
217792,2177.92
217873,2178.73
217955,2179.55
218037,2180.37
218117,2181.17
218195,2181.95
218273,2182.73
218351,2183.51
218430,2184.3
218509,2185.09
218587,2185.87
218664,2186.64
218742,2187.42
218821,2188.21
218902,2189.02
218980,2189.8
219058,2190.58
219137,2191.37
219216,2192.16
219295,2192.95
219375,2193.75
219453,2194.53
219530,2195.3
219608,2196.08
219685,2196.85
219765,2197.65
219844,2198.44
219922,2199.22
220001,2200.01
220082,2200.82
220163,2201.63
220245,2202.45
220326,2203.26
220406,2204.06
220484,2204.84
220563,2205.63
220643,2206.43
220722,2207.22
220799,2207.99
220876,2208.76
220952,2209.52
221028,2210.28
221105,2211.05
221181,2211.81
221256,2212.56
221331,2213.31
221407,2214.07
221485,2214.85
221563,2215.63
221641,2216.41
221717,2217.17
221795,2217.95
221873,2218.73
221952,2219.52
222030,2220.3
222108,2221.08
222187,2221.87
222266,2222.66
222347,2223.47
222426,2224.26
222504,2225.04
222584,2225.84
222665,2226.65
222747,2227.47
222826,2228.26
222905,2229.05
222985,2229.85
223065,2230.65
223144,2231.44
223222,2232.22
223302,2233.02
223382,2233.82
223464,2234.64
223545,2235.45
223625,2236.25
223706,2237.06
223788,2237.88
223871,2238.71
223954,2239.54
224035,2240.35
224116,2241.16
224198,2241.98
224281,2242.81
224364,2243.64
224448,2244.48
224532,2245.32
224615,2246.15
224696,2246.96
224776,2247.76
224855,2248.55
224936,2249.36
225017,2250.17
225096,2250.96
225173,2251.73
225250,2252.5
225328,2253.28
225406,2254.06
225483,2254.83
225560,2255.6
225635,2256.35
225711,2257.11
225789,2257.89
225867,2258.67
225944,2259.44
226021,2260.21
226098,2260.98
226177,2261.77
226257,2262.57
226337,2263.37
226416,2264.16
226496,2264.96
226578,2265.78
226660,2266.6
226744,2267.44
226826,2268.26
226907,2269.07
226988,2269.88
227070,2270.7
227151,2271.51
227231,2272.31
227310,2273.1
227390,2273.9
227470,2274.7
227552,2275.52
227633,2276.33
227712,2277.12
227790,2277.9
227869,2278.69
227948,2279.48
228027,2280.27
228106,2281.06
228183,2281.83
228260,2282.6
228337,2283.37
228415,2284.15
228493,2284.93
228571,2285.71
228648,2286.48
228725,2287.25
228802,2288.02
228880,2288.8
228958,2289.58
229036,2290.36
229112,2291.12
229188,2291.88
229264,2292.64
229340,2293.4
229415,2294.15
229489,2294.89
229561,2295.61
229633,2296.33
229707,2297.07
229782,2297.82
229859,2298.59
229936,2299.36
230011,2300.11
230087,2300.87
230163,2301.63
230240,2302.4
230317,2303.17
230394,2303.94
230469,2304.69
230542,2305.42
230614,2306.14
230685,2306.85
230758,2307.58
230832,2308.32
230908,2309.08
230988,2309.88
231069,2310.69
231148,2311.48
231226,2312.26
231304,2313.04
231382,2313.82
231460,2314.6
231537,2315.37
231613,2316.13
231688,2316.88
231763,2317.63
231838,2318.38
231913,2319.13
231988,2319.88
232062,2320.62
232136,2321.36
232209,2322.09
232282,2322.82
232354,2323.54
232424,2324.24
232495,2324.95
232568,2325.68
232641,2326.41
232714,2327.14
232790,2327.9
232868,2328.68
232947,2329.47
233027,2330.27
233106,2331.06
233183,2331.83
233261,2332.61
233339,2333.39
233418,2334.18
233495,2334.95
233572,2335.72
233648,2336.48
233725,2337.25
233803,2338.03
233881,2338.81
233959,2339.59
234035,2340.35
234112,2341.12
234189,2341.89
234267,2342.67
234345,2343.45
234422,2344.22
234498,2344.98
234575,2345.75
234652,2346.52
234729,2347.29
234806,2348.06
234883,2348.83
234959,2349.59
235036,2350.36
235114,2351.14
235192,2351.92
235270,2352.7
235348,2353.48
235425,2354.25
235502,2355.02
235580,2355.8
235657,2356.57
235732,2357.32
235807,2358.07
235883,2358.83
235959,2359.59
236036,2360.36
236113,2361.13
236189,2361.89
236264,2362.64
236340,2363.4
236415,2364.15
236491,2364.91
236567,2365.67
236642,2366.42
236717,2367.17
236793,2367.93
236870,2368.7
236947,2369.47
237024,2370.24
237100,2371.0
237175,2371.75
237250,2372.5
237326,2373.26
237403,2374.03
237479,2374.79
237553,2375.53
237627,2376.27
237702,2377.02
237777,2377.77
237852,2378.52
237926,2379.26
237999,2379.99
238074,2380.74
238149,2381.49
238226,2382.26
238305,2383.05
238384,2383.84
238461,2384.61
238539,2385.39
238616,2386.16
238695,2386.95
238773,2387.73
238849,2388.49
238925,2389.25
239000,2390.0
239077,2390.77
239155,2391.55
239232,2392.32
239309,2393.09
239385,2393.85
239462,2394.62
239540,2395.4
239618,2396.18
239696,2396.96
239772,2397.72
239847,2398.47
239922,2399.22
239998,2399.98
240074,2400.74
240149,2401.49
240223,2402.23
240298,2402.98
240375,2403.75
240453,2404.53
240532,2405.32
240608,2406.08
240683,2406.83
240759,2407.59
240836,2408.36
240912,2409.12
240988,2409.88
241063,2410.63
241138,2411.38
241215,2412.15
241292,2412.92
241372,2413.72
241454,2414.54
241538,2415.38
241620,2416.2
241704,2417.04
241786,2417.86
241865,2418.65
241944,2419.44
242022,2420.22
242099,2420.99
242176,2421.76
242251,2422.51
242327,2423.27
242402,2424.02
242477,2424.77
242552,2425.52
242627,2426.27
242703,2427.03
242778,2427.78
242854,2428.54
242928,2429.28
243004,2430.04
243079,2430.79
243154,2431.54
243230,2432.3
243307,2433.07
243384,2433.84
243461,2434.61
243537,2435.37
243613,2436.13
243687,2436.87
243760,2437.6
243832,2438.32
243904,2439.04
243978,2439.78
244055,2440.55
244135,2441.35
244215,2442.15
244294,2442.94
244373,2443.73
244453,2444.53
244535,2445.35
244618,2446.18
244703,2447.03
244786,2447.86
244868,2448.68
244949,2449.49
245030,2450.3
245112,2451.12
245195,2451.95
245278,2452.78
245360,2453.6
245442,2454.42
245524,2455.24
245606,2456.06
245688,2456.88
245771,2457.71
245853,2458.53
245933,2459.33
246014,2460.14
246095,2460.95
246176,2461.76
246255,2462.55
246334,2463.34
246414,2464.14
246492,2464.92
246569,2465.69
246647,2466.47
246725,2467.25
246802,2468.02
246877,2468.77
246954,2469.54
247029,2470.29
247104,2471.04
247177,2471.77
247251,2472.51
247325,2473.25
247400,2474.0
247475,2474.75
247550,2475.5
247625,2476.25
247701,2477.01
247779,2477.79
247858,2478.58
247939,2479.39
248019,2480.19
248100,2481.0
248181,2481.81
248263,2482.63
248343,2483.43
248424,2484.24
248503,2485.03
248582,2485.82
248663,2486.63
248743,2487.43
248822,2488.22
248903,2489.03
248984,2489.84
249066,2490.66
249148,2491.48
249231,2492.31
249312,2493.12
249394,2493.94
249475,2494.75
249556,2495.56
249636,2496.36
249716,2497.16
249794,2497.94
249872,2498.72
249951,2499.51
250029,2500.29
250108,2501.08
250187,2501.87
250265,2502.65
250342,2503.42
250419,2504.19
250498,2504.98
250577,2505.77
250655,2506.55
250734,2507.34
250814,2508.14
250894,2508.94
250975,2509.75
251056,2510.56
251135,2511.35
251215,2512.15
251296,2512.96
251377,2513.77
251461,2514.61
251543,2515.43
251623,2516.23
251703,2517.03
251784,2517.84
251866,2518.66
251947,2519.47
252029,2520.29
252109,2521.09
252188,2521.88
252268,2522.68
252347,2523.47
252429,2524.29
252511,2525.11
252590,2525.9
252669,2526.69
252746,2527.46
252823,2528.23
252900,2529.0
252978,2529.78
253055,2530.55
253133,2531.33
253210,2532.1
253287,2532.87
253365,2533.65
253443,2534.43
253520,2535.2
253598,2535.98
253675,2536.75
253751,2537.51
253828,2538.28
253906,2539.06
253983,2539.83
254059,2540.59
254134,2541.34
254211,2542.11
254288,2542.88
254366,2543.66
254443,2544.43
254520,2545.2
254595,2545.95
254672,2546.72
254749,2547.49
254829,2548.29
254909,2549.09
254987,2549.87
255065,2550.65
255143,2551.43
255222,2552.22
255301,2553.01
255381,2553.81
255460,2554.6
255538,2555.38
255617,2556.17
255695,2556.95
255775,2557.75
255854,2558.54
255932,2559.32
256009,2560.09
256087,2560.87
256165,2561.65
256244,2562.44
256325,2563.25
256404,2564.04
256482,2564.82
256562,2565.62
256642,2566.42
256723,2567.23
256806,2568.06
256886,2568.86
256965,2569.65
257043,2570.43
257121,2571.21
257200,2572.0
257277,2572.77
257354,2573.54
257430,2574.3
257508,2575.08
257586,2575.86
257667,2576.67
257746,2577.46
257825,2578.25
257904,2579.04
257983,2579.83
258063,2580.63
258143,2581.43
258221,2582.21
258298,2582.98
258376,2583.76
258454,2584.54
258532,2585.32
258610,2586.1
258688,2586.88
258765,2587.65
258842,2588.42
258920,2589.2
258998,2589.98
259077,2590.77
259154,2591.54
259231,2592.31
259307,2593.07
259385,2593.85
259463,2594.63
259542,2595.42
259620,2596.2
259698,2596.98
259774,2597.74
259850,2598.5
259928,2599.28
260006,2600.06
260084,2600.84
260163,2601.63
260243,2602.43
260322,2603.22
260402,2604.02
260483,2604.83
260562,2605.62
260640,2606.4
260718,2607.18
260795,2607.95
260874,2608.74
260953,2609.53
261031,2610.31
261109,2611.09
261185,2611.85
261262,2612.62
261339,2613.39
261417,2614.17
261495,2614.95
261572,2615.72
261648,2616.48
261724,2617.24
261801,2618.01
261879,2618.79
261957,2619.57
262033,2620.33
262109,2621.09
262185,2621.85
262262,2622.62
262340,2623.4
262417,2624.17
262494,2624.94
262570,2625.7
262647,2626.47
262725,2627.25
262803,2628.03
262882,2628.82
262959,2629.59
263036,2630.36
263113,2631.13
263191,2631.91
263270,2632.7
263348,2633.48
263425,2634.25
263502,2635.02
263580,2635.8
263660,2636.6
263738,2637.38
263815,2638.15
263891,2638.91
263967,2639.67
264044,2640.44
264121,2641.21
264198,2641.98
264274,2642.74
264349,2643.49
264426,2644.26
264504,2645.04
264581,2645.81
264658,2646.58
264733,2647.33
264808,2648.08
264885,2648.85
264963,2649.63
265041,2650.41
265118,2651.18
265195,2651.95
265272,2652.72
265348,2653.48
265426,2654.26
265504,2655.04
265580,2655.8
265656,2656.56
265733,2657.33
265811,2658.11
265890,2658.9
265968,2659.68
266046,2660.46
266125,2661.25
266204,2662.04
266285,2662.85
266365,2663.65
266443,2664.43
266522,2665.22
266602,2666.02
266682,2666.82
266761,2667.61
266838,2668.38
266914,2669.14
266990,2669.9
267067,2670.67
267145,2671.45
267222,2672.22
267298,2672.98
267373,2673.73
267448,2674.48
267523,2675.23
267598,2675.98
267676,2676.76
267753,2677.53
267829,2678.29
267904,2679.04
267979,2679.79
268054,2680.54
268132,2681.32
268208,2682.08
268284,2682.84
268359,2683.59
268435,2684.35
268512,2685.12
268588,2685.88
268663,2686.63
268738,2687.38
268814,2688.14
268892,2688.92
268969,2689.69
269045,2690.45
269121,2691.21
269198,2691.98
269275,2692.75
269353,2693.53
269432,2694.32
269509,2695.09
269586,2695.86
269663,2696.63
269740,2697.4
269818,2698.18
269895,2698.95
269971,2699.71
270047,2700.47
270123,2701.23
270199,2701.99
270276,2702.76
270356,2703.56
270435,2704.35
270514,2705.14
270591,2705.91
270668,2706.68
270747,2707.47
270827,2708.27
270904,2709.04
270980,2709.8
271056,2710.56
271132,2711.32
271210,2712.1
271288,2712.88
271367,2713.67
271444,2714.44
271520,2715.2
271596,2715.96
271672,2716.72
271749,2717.49
271825,2718.25
271900,2719.0
271979,2719.79
272058,2720.58
272140,2721.4
272221,2722.21
272301,2723.01
272380,2723.8
272459,2724.59
272538,2725.38
272618,2726.18
272697,2726.97
272775,2727.75
272852,2728.52
272930,2729.3
273008,2730.08
273085,2730.85
273164,2731.64
273241,2732.41
273316,2733.16
273394,2733.94
273472,2734.72
273552,2735.52
273633,2736.33
273712,2737.12
273790,2737.9
273868,2738.68
273947,2739.47
274026,2740.26
274106,2741.06
274185,2741.85
274262,2742.62
274340,2743.4
274419,2744.19
274498,2744.98
274578,2745.78
274656,2746.56
274733,2747.33
274810,2748.1
274887,2748.87
274964,2749.64
275043,2750.43
275122,2751.22
275198,2751.98
275273,2752.73
275348,2753.48
275424,2754.24
275500,2755.0
275575,2755.75
275650,2756.5
275725,2757.25
275801,2758.01
275877,2758.77
275954,2759.54
276030,2760.3
276105,2761.05
276180,2761.8
276256,2762.56
276333,2763.33
276411,2764.11
276489,2764.89
276565,2765.65
276642,2766.42
276720,2767.2
276797,2767.97
276875,2768.75
276951,2769.51
277026,2770.26
277101,2771.01
277175,2771.75
277250,2772.5
277326,2773.26
277403,2774.03
277481,2774.81
277557,2775.57
277632,2776.32
277708,2777.08
277786,2777.86
277863,2778.63
277939,2779.39
278015,2780.15
278091,2780.91
278178,2781.78
278264,2782.64
278352,2783.52
278440,2784.4
278525,2785.25
278608,2786.08
278690,2786.9
278772,2787.72
278855,2788.55
278936,2789.36
279016,2790.16
279097,2790.97
279176,2791.76
279256,2792.56
279335,2793.35
279415,2794.15
279493,2794.93
279570,2795.7
279647,2796.47
279725,2797.25
279803,2798.03
279882,2798.82
279960,2799.6
280038,2800.38
280116,2801.16
280196,2801.96
280275,2802.75
280355,2803.55
280432,2804.32
280509,2805.09
280587,2805.87
280665,2806.65
280746,2807.46
280828,2808.28
280908,2809.08
280985,2809.85
281062,2810.62
281138,2811.38
281214,2812.14
281291,2812.91
281366,2813.66
281441,2814.41
281516,2815.16
281592,2815.92
281668,2816.68
281746,2817.46
281824,2818.24
281900,2819.0
281977,2819.77
282054,2820.54
282133,2821.33
282211,2822.11
282288,2822.88
282364,2823.64
282437,2824.37
282511,2825.11
282585,2825.85
282659,2826.59
282733,2827.33
282808,2828.08
282884,2828.84
282962,2829.62
283041,2830.41
283119,2831.19
283196,2831.96
283274,2832.74
283351,2833.51
283428,2834.28
283505,2835.05
283581,2835.81
283656,2836.56
283732,2837.32
283809,2838.09
283886,2838.86
283963,2839.63
284039,2840.39
284113,2841.13
284188,2841.88
284262,2842.62
284338,2843.38
284414,2844.14
284489,2844.89
284564,2845.64
284639,2846.39
284716,2847.16
284792,2847.92
284870,2848.7
284948,2849.48
285025,2850.25
285100,2851.0
285178,2851.78
285256,2852.56
285334,2853.34
285412,2854.12
285489,2854.89
285564,2855.64
285641,2856.41
285719,2857.19
285796,2857.96
285872,2858.72
285947,2859.47
286022,2860.22
286099,2860.99
286175,2861.75
286252,2862.52
286329,2863.29
286406,2864.06
286483,2864.83
286560,2865.6
286636,2866.36
286713,2867.13
286792,2867.92
286867,2868.67
286943,2869.43
287019,2870.19
287095,2870.95
287171,2871.71
287249,2872.49
287326,2873.26
287402,2874.02
287479,2874.79
287556,2875.56
287634,2876.34
287713,2877.13
287790,2877.9
287866,2878.66
287941,2879.41
288018,2880.18
288095,2880.95
288173,2881.73
288250,2882.5
288326,2883.26
288403,2884.03
288481,2884.81
288560,2885.6
288639,2886.39
288719,2887.19
288796,2887.96
288873,2888.73
288951,2889.51
289029,2890.29
289109,2891.09
289189,2891.89
289270,2892.7
289349,2893.49
289426,2894.26
289504,2895.04
289583,2895.83
289665,2896.65
289746,2897.46
289826,2898.26
289904,2899.04
289982,2899.82
290060,2900.6
290139,2901.39
290218,2902.18
290299,2902.99
290377,2903.77
290455,2904.55
290533,2905.33
290612,2906.12
290692,2906.92
290771,2907.71
290850,2908.5
290927,2909.27
291003,2910.03
291082,2910.82
291159,2911.59
291237,2912.37
291314,2913.14
291389,2913.89
291465,2914.65
291541,2915.41
291617,2916.17
291693,2916.93
291767,2917.67
291840,2918.4
291913,2919.13
291986,2919.86
292060,2920.6
292134,2921.34
292209,2922.09
292282,2922.82
292356,2923.56
292432,2924.32
292508,2925.08
292585,2925.85
292664,2926.64
292741,2927.41
292818,2928.18
292897,2928.97
292978,2929.78
293061,2930.61
293143,2931.43
293223,2932.23
293300,2933.0
293379,2933.79
293458,2934.58
293539,2935.39
293620,2936.2
293699,2936.99
293778,2937.78
293861,2938.61
293942,2939.42
294023,2940.23
294103,2941.03
294181,2941.81
294257,2942.57
294334,2943.34
294412,2944.12
294490,2944.9
294570,2945.7
294649,2946.49
294726,2947.26
294804,2948.04
294882,2948.82
294960,2949.6
295041,2950.41
295121,2951.21
295198,2951.98
295275,2952.75
295351,2953.51
295427,2954.27
295505,2955.05
295585,2955.85
295663,2956.63
295741,2957.41
295819,2958.19
295898,2958.98
295978,2959.78
296058,2960.58
296136,2961.36
296212,2962.12
296289,2962.89
296367,2963.67
296447,2964.47
296528,2965.28
296607,2966.07
296684,2966.84
296762,2967.62
296839,2968.39
296918,2969.18
296997,2969.97
297076,2970.76
297153,2971.53
297229,2972.29
297306,2973.06
297383,2973.83
297461,2974.61
297539,2975.39
297616,2976.16
297691,2976.91
297767,2977.67
297842,2978.42
297918,2979.18
297996,2979.96
298075,2980.75
298151,2981.51
298227,2982.27
298301,2983.01
298375,2983.75
298451,2984.51
298528,2985.28
298607,2986.07
298684,2986.84
298760,2987.6
298837,2988.37
298915,2989.15
298993,2989.93
299071,2990.71
299148,2991.48
299224,2992.24
299301,2993.01
299379,2993.79
299459,2994.59
299539,2995.39
299618,2996.18
299697,2996.97
299775,2997.75
299853,2998.53
299934,2999.34
300016,3000.16
300097,3000.97
300177,3001.77
300253,3002.53
300330,3003.3
300408,3004.08
300487,3004.87
300566,3005.66
300644,3006.44
300721,3007.21
300798,3007.98
300878,3008.78
300961,3009.61
301045,3010.45
301128,3011.28
301209,3012.09
301287,3012.87
301366,3013.66
301447,3014.47
301529,3015.29
301609,3016.09
301689,3016.89
301766,3017.66
301843,3018.43
301919,3019.19
301996,3019.96
302074,3020.74
302153,3021.53
302230,3022.3
302307,3023.07
302385,3023.85
302463,3024.63
302543,3025.43
302623,3026.23
302701,3027.01
302778,3027.78
302855,3028.55
302933,3029.33
303012,3030.12
303092,3030.92
303169,3031.69
303246,3032.46
303323,3033.23
303399,3033.99
303476,3034.76
303553,3035.53
303630,3036.3
303705,3037.05
303779,3037.79
303855,3038.55
303930,3039.3
304007,3040.07
304081,3040.81
304156,3041.56
304231,3042.31
304307,3043.07
304383,3043.83
304461,3044.61
304537,3045.37
304613,3046.13
304689,3046.89
304767,3047.67
304845,3048.45
304922,3049.22
304998,3049.98
305073,3050.73
305148,3051.48
305223,3052.23
305299,3052.99
305374,3053.74
305449,3054.49
305524,3055.24
305599,3055.99
305675,3056.75
305754,3057.54
305832,3058.32
305908,3059.08
305986,3059.86
306063,3060.63
306140,3061.4
306216,3062.16
306291,3062.91
306366,3063.66
306441,3064.41
306517,3065.17
306596,3065.96
306674,3066.74
306751,3067.51
306827,3068.27
306905,3069.05
306983,3069.83
307061,3070.61
307138,3071.38
307217,3072.17
307293,3072.93
307372,3073.72
307453,3074.53
307535,3075.35
307618,3076.18
307697,3076.97
307775,3077.75
307852,3078.52
307931,3079.31
308010,3080.1
308088,3080.88
308165,3081.65
308240,3082.4
308316,3083.16
308393,3083.93
308470,3084.7
308547,3085.47
308626,3086.26
308703,3087.03
308778,3087.78
308855,3088.55
308933,3089.33
309012,3090.12
309091,3090.91
309169,3091.69
309246,3092.46
309324,3093.24
309403,3094.03
309483,3094.83
309563,3095.63
309643,3096.43
309720,3097.2
309797,3097.97
309874,3098.74
309951,3099.51
310028,3100.28
310105,3101.05
310181,3101.81
310256,3102.56
310331,3103.31
310406,3104.06
310481,3104.81
310557,3105.57
310634,3106.34
310710,3107.1
310785,3107.85
310861,3108.61
310936,3109.36
311013,3110.13
311088,3110.88
311164,3111.64
311239,3112.39
311315,3113.15
311392,3113.92
311470,3114.7
311547,3115.47
311622,3116.22
311698,3116.98
311774,3117.74
311851,3118.51
311929,3119.29
312006,3120.06
312082,3120.82
312157,3121.57
312233,3122.33
312309,3123.09
312385,3123.85
312461,3124.61
312536,3125.36
312611,3126.11
312687,3126.87
312763,3127.63
312840,3128.4
312919,3129.19
312997,3129.97
313074,3130.74
313151,3131.51
313229,3132.29
313306,3133.06
313384,3133.84
313461,3134.61
313538,3135.38
313613,3136.13
313689,3136.89
313765,3137.65
313842,3138.42
313918,3139.18
313994,3139.94
314069,3140.69
314146,3141.46
314224,3142.24
314302,3143.02
314380,3143.8
314456,3144.56
314532,3145.32
314608,3146.08
314685,3146.85
314763,3147.63
314843,3148.43
314922,3149.22
314997,3149.97
315073,3150.73
315150,3151.5
315227,3152.27
315307,3153.07
315388,3153.88
315468,3154.68
315546,3155.46
315623,3156.23
315702,3157.02
315780,3157.8
315859,3158.59
315940,3159.4
316019,3160.19
316096,3160.96
316173,3161.73
316250,3162.5
316329,3163.29
316408,3164.08
316486,3164.86
316564,3165.64
316643,3166.43
316722,3167.22
316803,3168.03
316885,3168.85
316964,3169.64
317042,3170.42
317121,3171.21
317201,3172.01
317281,3172.81
317359,3173.59
317436,3174.36
317512,3175.12
317589,3175.89
317665,3176.65
317743,3177.43
317821,3178.21
317898,3178.98
317973,3179.73
318049,3180.49
318125,3181.25
318201,3182.01
318276,3182.76
318351,3183.51
318426,3184.26
318502,3185.02
318579,3185.79
318656,3186.56
318733,3187.33
318809,3188.09
318885,3188.85
318962,3189.62
319039,3190.39
319117,3191.17
319194,3191.94
319270,3192.7
319346,3193.46
319423,3194.23
319501,3195.01
319581,3195.81
319659,3196.59
319736,3197.36
319812,3198.12
319889,3198.89
319965,3199.65
320043,3200.43
320120,3201.2
320196,3201.96
320273,3202.73
320348,3203.48
320423,3204.23
320499,3204.99
320575,3205.75
320651,3206.51
320726,3207.26
320801,3208.01
320877,3208.77
320954,3209.54
321031,3210.31
321107,3211.07
321183,3211.83
321260,3212.6
321337,3213.37
321415,3214.15
321493,3214.93
321569,3215.69
321646,3216.46
321725,3217.25
321805,3218.05
321886,3218.86
321967,3219.67
322045,3220.45
322123,3221.23
322201,3222.01
322280,3222.8
322360,3223.6
322440,3224.4
322521,3225.21
322598,3225.98
322675,3226.75
322754,3227.54
322833,3228.33
322913,3229.13
322992,3229.92
323068,3230.68
323141,3231.41
323213,3232.13
323283,3232.83
323353,3233.53
323422,3234.22
323491,3234.91
323559,3235.59
323628,3236.28
323697,3236.97
323765,3237.65
323833,3238.33
323901,3239.01
323968,3239.68
324035,3240.35
324101,3241.01
324167,3241.67
324233,3242.33
324299,3242.99
324365,3243.65
324431,3244.31
324497,3244.97
324563,3245.63
324629,3246.29
324695,3246.95
324763,3247.63
324832,3248.32
324900,3249.0
324968,3249.68
325036,3250.36
325106,3251.06
325179,3251.79
325255,3252.55
325334,3253.34
325414,3254.14
325494,3254.94
325576,3255.76
325658,3256.58
325741,3257.41
325825,3258.25
325909,3259.09
325993,3259.93
326077,3260.77
326160,3261.6
326242,3262.42
326324,3263.24
326406,3264.06
326486,3264.86
326567,3265.67
326647,3266.47
326726,3267.26
326802,3268.02
326876,3268.76
326950,3269.5
327024,3270.24
327100,3271.0
327175,3271.75
327250,3272.5
327324,3273.24
327399,3273.99
327475,3274.75
327552,3275.52
327628,3276.28
327704,3277.04
327780,3277.8
327858,3278.58
327936,3279.36
328015,3280.15
328093,3280.93
328171,3281.71
328250,3282.5
328329,3283.29
328410,3284.1
328493,3284.93
328574,3285.74
328654,3286.54
328733,3287.33
328812,3288.12
328894,3288.94
328977,3289.77
329059,3290.59
329140,3291.4
329219,3292.19
329296,3292.96
329373,3293.73
329449,3294.49
329525,3295.25
329601,3296.01
329676,3296.76
329751,3297.51
329825,3298.25
329901,3299.01
329977,3299.77
330054,3300.54
330130,3301.3
330205,3302.05
330280,3302.8
330355,3303.55
330429,3304.29
330505,3305.05
330580,3305.8
330656,3306.56
330732,3307.32
330808,3308.08
330887,3308.87
330967,3309.67
331048,3310.48
331128,3311.28
331205,3312.05
331284,3312.84
331362,3313.62
331442,3314.42
331522,3315.22
331601,3316.01
331678,3316.78
331755,3317.55
331832,3318.32
331911,3319.11
331991,3319.91
332069,3320.69
332147,3321.47
332226,3322.26
332306,3323.06
332386,3323.86
332464,3324.64
332543,3325.43
332622,3326.22
332701,3327.01
332780,3327.8
332858,3328.58
332935,3329.35
333012,3330.12
333089,3330.89
333166,3331.66
333244,3332.44
333320,3333.2
333396,3333.96
333471,3334.71
333546,3335.46
333621,3336.21
333697,3336.97
333772,3337.72
333847,3338.47
333923,3339.23
333998,3339.98
334075,3340.75
334152,3341.52
334228,3342.28
334304,3343.04
334379,3343.79
334454,3344.54
334530,3345.3
334606,3346.06
334682,3346.82
334757,3347.57
334833,3348.33
334908,3349.08
334985,3349.85
335062,3350.62
335138,3351.38
335214,3352.14
335291,3352.91
335369,3353.69
335447,3354.47
335525,3355.25
335601,3356.01
335679,3356.79
335757,3357.57
335836,3358.36
335916,3359.16
335996,3359.96
336074,3360.74
336151,3361.51
336228,3362.28
336306,3363.06
336384,3363.84
336462,3364.62
336540,3365.4
336617,3366.17
336694,3366.94
336772,3367.72
336851,3368.51
336931,3369.31
337010,3370.1
337088,3370.88
337166,3371.66
337245,3372.45
337324,3373.24
337403,3374.03
337480,3374.8
337557,3375.57
337635,3376.35
337712,3377.12
337790,3377.9
337866,3378.66
337941,3379.41
338017,3380.17
338092,3380.92
338167,3381.67
338244,3382.44
338319,3383.19
338393,3383.93
338467,3384.67
338541,3385.41
338615,3386.15
338691,3386.91
338766,3387.66
338840,3388.4
338914,3389.14
338989,3389.89
339065,3390.65
339142,3391.42
339218,3392.18
339295,3392.95
339373,3393.73
339451,3394.51
339530,3395.3
339608,3396.08
339684,3396.84
339761,3397.61
339837,3398.37
339914,3399.14
339993,3399.93
340069,3400.69
340145,3401.45
340220,3402.2
340296,3402.96
340374,3403.74
340452,3404.52
340529,3405.29
340605,3406.05
340681,3406.81
340756,3407.56
340833,3408.33
340910,3409.1
340986,3409.86
341061,3410.61
341138,3411.38
341215,3412.15
341293,3412.93
341372,3413.72
341449,3414.49
341525,3415.25
341602,3416.02
341680,3416.8
341760,3417.6
341841,3418.41
341919,3419.19
341996,3419.96
342075,3420.75
342153,3421.53
342230,3422.3
342308,3423.08
342385,3423.85
342461,3424.61
342539,3425.39
342617,3426.17
342696,3426.96
342774,3427.74
342851,3428.51
342926,3429.26
343002,3430.02
343078,3430.78
343155,3431.55
343233,3432.33
343310,3433.1
343385,3433.85
343461,3434.61
343537,3435.37
343613,3436.13
343690,3436.9
343766,3437.66
343842,3438.42
343921,3439.21
344002,3440.02
344085,3440.85
344169,3441.69
344250,3442.5
344328,3443.28
344407,3444.07
344484,3444.84
344562,3445.62
344640,3446.4
344717,3447.17
344794,3447.94
344872,3448.72
344951,3449.51
345031,3450.31
345111,3451.11
345188,3451.88
345265,3452.65
345342,3453.42
345419,3454.19
345497,3454.97
345576,3455.76
345654,3456.54
345731,3457.31
345809,3458.09
345887,3458.87
345966,3459.66
346044,3460.44
346120,3461.2
346198,3461.98
346276,3462.76
346356,3463.56
346435,3464.35
346513,3465.13
346590,3465.9
346666,3466.66
346743,3467.43
346820,3468.2
346898,3468.98
346974,3469.74
347049,3470.49
347124,3471.24
347200,3472.0
347278,3472.78
347356,3473.56
347434,3474.34
347511,3475.11
347588,3475.88
347666,3476.66
347744,3477.44
347822,3478.22
347899,3478.99
347975,3479.75
348053,3480.53
348130,3481.3
348209,3482.09
348287,3482.87
348364,3483.64
348440,3484.4
348516,3485.16
348594,3485.94
348674,3486.74
348753,3487.53
348830,3488.3
348905,3489.05
348981,3489.81
349057,3490.57
349133,3491.33
349211,3492.11
349288,3492.88
349364,3493.64
349442,3494.42
349520,3495.2
349600,3496.0
349682,3496.82
349765,3497.65
349844,3498.44
349921,3499.21
349998,3499.98
350076,3500.76
350156,3501.56
350234,3502.34
350313,3503.13
350393,3503.93
350473,3504.73
350554,3505.54
350635,3506.35
350713,3507.13
350792,3507.92
350872,3508.72
350952,3509.52
351032,3510.32
351110,3511.1
351188,3511.88
351264,3512.64
351341,3513.41
351418,3514.18
351496,3514.96
351573,3515.73
351649,3516.49
351726,3517.26
351802,3518.02
351880,3518.8
351957,3519.57
352033,3520.33
352110,3521.1
352186,3521.86
352263,3522.63
352341,3523.41
352420,3524.2
352497,3524.97
352574,3525.74
352650,3526.5
352727,3527.27
352807,3528.07
352887,3528.87
352965,3529.65
353043,3530.43
353120,3531.2
353199,3531.99
353278,3532.78
353359,3533.59
353439,3534.39
353519,3535.19
353597,3535.97
353674,3536.74
353752,3537.52
353830,3538.3
353906,3539.06
353981,3539.81
354056,3540.56
354132,3541.32
354208,3542.08
354284,3542.84
354360,3543.6
354436,3544.36
354513,3545.13
354593,3545.93
354674,3546.74
354754,3547.54
354833,3548.33
354913,3549.13
354993,3549.93
355073,3550.73
355155,3551.55
355235,3552.35
355313,3553.13
355392,3553.92
355471,3554.71
355551,3555.51
355631,3556.31
355708,3557.08
355785,3557.85
355861,3558.61
355937,3559.37
356014,3560.14
356092,3560.92
356170,3561.7
356247,3562.47
356323,3563.23
356401,3564.01
356479,3564.79
356558,3565.58
356637,3566.37
356714,3567.14
356790,3567.9
356866,3568.66
356943,3569.43
357022,3570.22
357099,3570.99
357176,3571.76
357253,3572.53
357331,3573.31
357410,3574.1
357491,3574.91
357572,3575.72
357651,3576.51
357730,3577.3
357810,3578.1
357889,3578.89
357967,3579.67
358045,3580.45
358121,3581.21
358196,3581.96
358271,3582.71
358350,3583.5
358429,3584.29
358507,3585.07
358584,3585.84
358660,3586.6
358737,3587.37
358814,3588.14
358892,3588.92
358971,3589.71
359049,3590.49
359127,3591.27
359206,3592.06
359285,3592.85
359365,3593.65
359445,3594.45
359522,3595.22
359599,3595.99
359676,3596.76
359754,3597.54
359832,3598.32
359910,3599.1
359986,3599.86
360062,3600.62
360138,3601.38
360215,3602.15
360294,3602.94
360373,3603.73
360451,3604.51
360528,3605.28
360605,3606.05
360683,3606.83
360761,3607.61
360842,3608.42
360921,3609.21
360998,3609.98
361076,3610.76
361154,3611.54
361234,3612.34
361314,3613.14
361391,3613.91
361467,3614.67
361545,3615.45
361624,3616.24
361705,3617.05
361785,3617.85
361862,3618.62
361939,3619.39
362016,3620.16
362093,3620.93
362170,3621.7
362248,3622.48
362325,3623.25
362403,3624.03
362483,3624.83
362564,3625.64
362645,3626.45
362723,3627.23
362801,3628.01
362879,3628.79
362957,3629.57
363037,3630.37
363117,3631.17
363195,3631.95
363272,3632.72
363349,3633.49
363428,3634.28
363507,3635.07
363585,3635.85
363662,3636.62
363739,3637.39
363818,3638.18
363896,3638.96
363977,3639.77
364061,3640.61
364141,3641.41
364220,3642.2
364299,3642.99
364378,3643.78
364457,3644.57
364536,3645.36
364613,3646.13
364691,3646.91
364770,3647.7
364850,3648.5
364931,3649.31
365012,3650.12
365092,3650.92
365169,3651.69
365248,3652.48
365326,3653.26
365405,3654.05
365484,3654.84
365563,3655.63
365644,3656.44
365722,3657.22
365800,3658.0
365877,3658.77
365954,3659.54
366031,3660.31
366108,3661.08
366185,3661.85
366264,3662.64
366343,3663.43
366420,3664.2
366496,3664.96
366576,3665.76
366655,3666.55
366734,3667.34
366812,3668.12
366890,3668.9
366970,3669.7
367050,3670.5
367132,3671.32
367211,3672.11
367289,3672.89
367366,3673.66
367443,3674.43
367521,3675.21
367599,3675.99
367676,3676.76
367752,3677.52
367830,3678.3
367908,3679.08
367989,3679.89
368071,3680.71
368150,3681.5
368229,3682.29
368309,3683.09
368389,3683.89
368470,3684.7
368549,3685.49
368627,3686.27
368704,3687.04
368783,3687.83
368863,3688.63
368942,3689.42
369021,3690.21
369098,3690.98
369174,3691.74
369250,3692.5
369327,3693.27
369405,3694.05
369483,3694.83
369559,3695.59
369635,3696.35
369712,3697.12
369789,3697.89
369867,3698.67
369945,3699.45
370022,3700.22
370097,3700.97
370174,3701.74
370251,3702.51
370329,3703.29
370407,3704.07
370483,3704.83
370558,3705.58
370635,3706.35
370712,3707.12
370791,3707.91
370869,3708.69
370946,3709.46
371022,3710.22
371099,3710.99
371176,3711.76
371255,3712.55
371334,3713.34
371410,3714.1
371487,3714.87
371564,3715.64
371642,3716.42
371720,3717.2
371797,3717.97
371873,3718.73
371948,3719.48
372024,3720.24
372099,3720.99
372176,3721.76
372253,3722.53
372329,3723.29
372405,3724.05
372481,3724.81
372558,3725.58
372635,3726.35
372715,3727.15
372793,3727.93
372871,3728.71
372950,3729.5
373028,3730.28
373108,3731.08
373188,3731.88
373266,3732.66
373343,3733.43
373421,3734.21
373499,3734.99
373579,3735.79
373659,3736.59
373738,3737.38
373815,3738.15
373891,3738.91
373967,3739.67
374044,3740.44
374124,3741.24
374202,3742.02
374279,3742.79
374357,3743.57
374435,3744.35
374514,3745.14
374593,3745.93
374671,3746.71
374748,3747.48
374825,3748.25
374904,3749.04
374983,3749.83
375064,3750.64
375144,3751.44
375222,3752.22
375300,3753.0
375378,3753.78
375457,3754.57
375537,3755.37
375616,3756.16
375693,3756.93
375769,3757.69
375847,3758.47
375926,3759.26
376006,3760.06
376087,3760.87
376165,3761.65
376243,3762.43
376321,3763.21
376399,3763.99
376477,3764.77
376554,3765.54
376630,3766.3
376706,3767.06
376782,3767.82
376858,3768.58
376934,3769.34
377012,3770.12
377088,3770.88
377164,3771.64
377241,3772.41
377317,3773.17
377394,3773.94
377471,3774.71
377547,3775.47
377623,3776.23
377700,3777.0
377779,3777.79
377859,3778.59
377938,3779.38
378015,3780.15
378092,3780.92
378170,3781.7
378249,3782.49
378329,3783.29
378408,3784.08
378487,3784.87
378566,3785.66
378645,3786.45
378725,3787.25
378805,3788.05
378883,3788.83
378960,3789.6
379037,3790.37
379114,3791.14
379192,3791.92
379272,3792.72
379349,3793.49
379426,3794.26
379503,3795.03
379579,3795.79
379658,3796.58
379738,3797.38
379816,3798.16
379892,3798.92
379970,3799.7
380048,3800.48
380126,3801.26
380204,3802.04
380282,3802.82
380357,3803.57
380433,3804.33
380509,3805.09
380585,3805.85
380662,3806.62
380740,3807.4
380818,3808.18
380895,3808.95
380974,3809.74
381053,3810.53
381135,3811.35
381216,3812.16
381296,3812.96
381375,3813.75
381457,3814.57
381540,3815.4
381621,3816.21
381701,3817.01
381779,3817.79
381857,3818.57
381936,3819.36
382014,3820.14
382093,3820.93
382173,3821.73
382252,3822.52
382328,3823.28
382407,3824.07
382485,3824.85
382565,3825.65
382645,3826.45
382724,3827.24
382802,3828.02
382879,3828.79
382957,3829.57
383036,3830.36
383116,3831.16
383194,3831.94
383271,3832.71
383350,3833.5
383430,3834.3
383510,3835.1
383589,3835.89
383667,3836.67
383745,3837.45
383824,3838.24
383904,3839.04
383984,3839.84
384065,3840.65
384146,3841.46
384225,3842.25
384302,3843.02
384379,3843.79
384456,3844.56
384534,3845.34
384611,3846.11
384688,3846.88
384765,3847.65
384841,3848.41
384919,3849.19
384997,3849.97
385076,3850.76
385156,3851.56
385234,3852.34
385310,3853.1
385388,3853.88
385467,3854.67
385548,3855.48
385630,3856.3
385710,3857.1
385789,3857.89
385868,3858.68
385948,3859.48
386027,3860.27
386104,3861.04
386181,3861.81
386258,3862.58
386337,3863.37
386417,3864.17
386497,3864.97
386575,3865.75
386653,3866.53
386733,3867.33
386816,3868.16
386897,3868.97
386977,3869.77
387055,3870.55
387132,3871.32
387209,3872.09
387287,3872.87
387366,3873.66
387446,3874.46
387525,3875.25
387602,3876.02
387681,3876.81
387759,3877.59
387838,3878.38
387916,3879.16
387993,3879.93
388069,3880.69
388145,3881.45
388223,3882.23
388301,3883.01
388380,3883.8
388457,3884.57
388534,3885.34
388611,3886.11
388690,3886.9
388769,3887.69
388848,3888.48
388926,3889.26
389004,3890.04
389081,3890.81
389158,3891.58
389236,3892.36
389314,3893.14
389393,3893.93
389471,3894.71
389547,3895.47
389623,3896.23
389701,3897.01
389778,3897.78
389858,3898.58
389938,3899.38
390017,3900.17
390094,3900.94
390173,3901.73
390253,3902.53
390333,3903.33
390413,3904.13
390493,3904.93
390570,3905.7
390648,3906.48
390727,3907.27
390807,3908.07
390889,3908.89
390969,3909.69
391047,3910.47
391125,3911.25
391202,3912.02
391280,3912.8
391359,3913.59
391437,3914.37
391516,3915.16
391594,3915.94
391672,3916.72
391750,3917.5
391829,3918.29
391908,3919.08
391985,3919.85
392061,3920.61
392137,3921.37
392214,3922.14
392292,3922.92
392370,3923.7
392447,3924.47
392523,3925.23
392600,3926.0
392677,3926.77
392755,3927.55
392833,3928.33
392910,3929.1
392987,3929.87
393065,3930.65
393143,3931.43
393225,3932.25
393305,3933.05
393383,3933.83
393459,3934.59
393536,3935.36
393613,3936.13
393691,3936.91
393770,3937.7
393848,3938.48
393924,3939.24
394000,3940.0
394076,3940.76
394153,3941.53
394232,3942.32
394312,3943.12
394391,3943.91
394469,3944.69
394548,3945.48
394627,3946.27
394706,3947.06
394785,3947.85
394862,3948.62
394939,3949.39
395017,3950.17
395094,3950.94
395172,3951.72
395251,3952.51
395328,3953.28
395405,3954.05
395482,3954.82
395559,3955.59
395638,3956.38
395717,3957.17
395795,3957.95
395872,3958.72
395949,3959.49
396026,3960.26
396104,3961.04
396182,3961.82
396259,3962.59
396336,3963.36
396414,3964.14
396492,3964.92
396573,3965.73
396653,3966.53
396732,3967.32
396811,3968.11
396891,3968.91
396970,3969.7
397050,3970.5
397128,3971.28
397205,3972.05
397282,3972.82
397360,3973.6
397439,3974.39
397519,3975.19
397600,3976.0
397680,3976.8
397760,3977.6
397841,3978.41
397922,3979.22
398004,3980.04
398086,3980.86
398164,3981.64
398241,3982.41
398319,3983.19
398397,3983.97
398475,3984.75
398553,3985.53
398631,3986.31
398708,3987.08
398786,3987.86
398865,3988.65
398945,3989.45
399025,3990.25
399104,3991.04
399182,3991.82
399262,3992.62
399341,3993.41
399422,3994.22
399503,3995.03
399583,3995.83
399660,3996.6
399738,3997.38
399816,3998.16
399896,3998.96
399978,3999.78
400060,4000.6
400139,4001.39
400215,4002.15
400291,4002.91
400368,4003.68
400446,4004.46
400526,4005.26
400606,4006.06
400685,4006.85
400763,4007.63
400843,4008.43
400922,4009.22
401002,4010.02
401080,4010.8
401158,4011.58
401235,4012.35
401313,4013.13
401393,4013.93
401473,4014.73
401552,4015.52
401629,4016.29
401707,4017.07
401785,4017.85
401863,4018.63
401943,4019.43
402021,4020.21
402098,4020.98
402175,4021.75
402253,4022.53
402331,4023.31
402409,4024.09
402486,4024.86
402563,4025.63
402641,4026.41
402720,4027.2
402798,4027.98
402877,4028.77
402953,4029.53
403029,4030.29
403107,4031.07
403185,4031.85
403264,4032.64
403344,4033.44
403422,4034.22
403500,4035.0
403579,4035.79
403658,4036.58
403739,4037.39
403820,4038.2
403899,4038.99
403979,4039.79
404057,4040.57
404135,4041.35
404215,4042.15
404294,4042.94
404372,4043.72
404449,4044.49
404527,4045.27
404606,4046.06
404686,4046.86
404766,4047.66
404845,4048.45
404922,4049.22
404999,4049.99
405077,4050.77
405155,4051.55
405232,4052.32
405309,4053.09
405386,4053.86
405465,4054.65
405543,4055.43
405623,4056.23
405702,4057.02
405779,4057.79
405858,4058.58
405936,4059.36
406017,4060.17
406097,4060.97
406175,4061.75
406253,4062.53
406331,4063.31
406410,4064.1
406489,4064.89
406566,4065.66
406643,4066.43
406719,4067.19
406797,4067.97
406877,4068.77
406957,4069.57
407037,4070.37
407114,4071.14
407189,4071.89
407264,4072.64
407339,4073.39
407416,4074.16
407496,4074.96
407578,4075.78
407658,4076.58
407736,4077.36
407815,4078.15
407895,4078.95
407976,4079.76
408057,4080.57
408136,4081.36
408214,4082.14
408293,4082.93
408372,4083.72
408454,4084.54
408536,4085.36
408616,4086.16
408696,4086.96
408775,4087.75
408856,4088.56
408936,4089.36
409017,4090.17
409096,4090.96
409174,4091.74
409253,4092.53
409333,4093.33
409413,4094.13
409494,4094.94
409573,4095.73
409651,4096.51
409729,4097.29
409809,4098.09
409889,4098.89
409971,4099.71
410052,4100.52
410132,4101.32
410211,4102.11
410290,4102.9
410369,4103.69
410447,4104.47
410525,4105.25
410602,4106.02
410680,4106.8
410760,4107.6
410842,4108.42
410923,4109.23
411002,4110.02
411083,4110.83
411164,4111.64
411245,4112.45
411326,4113.26
411405,4114.05
411482,4114.82
411558,4115.58
411635,4116.35
411712,4117.12
411789,4117.89
411864,4118.64
411939,4119.39
412015,4120.15
412091,4120.91
412167,4121.67
412244,4122.44
412322,4123.22
412398,4123.98
412474,4124.74
412550,4125.5
412626,4126.26
412703,4127.03
412778,4127.78
412853,4128.53
412929,4129.29
413006,4130.06
413083,4130.83
413161,4131.61
413238,4132.38
413315,4133.15
413393,4133.93
413471,4134.71
413549,4135.49
413627,4136.27
413705,4137.05
413783,4137.83
413861,4138.61
413939,4139.39
414017,4140.17
414095,4140.95
414174,4141.74
414252,4142.52
414329,4143.29
414405,4144.05
414481,4144.81
414557,4145.57
414634,4146.34
414710,4147.1
414786,4147.86
414861,4148.61
414938,4149.38
415014,4150.14
415091,4150.91
415167,4151.67
415244,4152.44
415321,4153.21
415397,4153.97
415475,4154.75
415554,4155.54
415631,4156.31
415707,4157.07
415783,4157.83
415858,4158.58
415934,4159.34
416009,4160.09
416085,4160.85
416161,4161.61
416238,4162.38
416315,4163.15
416394,4163.94
416471,4164.71
416548,4165.48
416625,4166.25
416702,4167.02
416779,4167.79
416856,4168.56
416931,4169.31
417006,4170.06
417082,4170.82
417156,4171.56
417232,4172.32
417308,4173.08
417384,4173.84
417461,4174.61
417538,4175.38
417614,4176.14
417691,4176.91
417767,4177.67
417843,4178.43
417918,4179.18
417993,4179.93
418069,4180.69
418144,4181.44
418219,4182.19
418295,4182.95
418370,4183.7
418446,4184.46
418522,4185.22
418596,4185.96
418671,4186.71
418746,4187.46
418819,4188.19
418893,4188.93
418967,4189.67
419041,4190.41
419114,4191.14
419188,4191.88
419262,4192.62
419336,4193.36
419410,4194.1
419483,4194.83
419555,4195.55
419628,4196.28
419701,4197.01
419774,4197.74
419849,4198.49
419924,4199.24
419999,4199.99
420074,4200.74
420151,4201.51
420228,4202.28
420305,4203.05
420381,4203.81
420457,4204.57
420533,4205.33
420609,4206.09
420684,4206.84
420759,4207.59
420834,4208.34
420910,4209.1
420986,4209.86
421061,4210.61
421136,4211.36
421210,4212.1
421285,4212.85
421361,4213.61
421436,4214.36
421511,4215.11
421587,4215.87
421662,4216.62
421738,4217.38
421814,4218.14
421889,4218.89
421965,4219.65
422040,4220.4
422115,4221.15
422189,4221.89
422264,4222.64
422339,4223.39
422416,4224.16
422494,4224.94
422570,4225.7
422647,4226.47
422722,4227.22
422798,4227.98
422874,4228.74
422950,4229.5
423027,4230.27
423103,4231.03
423178,4231.78
423254,4232.54
423330,4233.3
423406,4234.06
423482,4234.82
423557,4235.57
423632,4236.32
423707,4237.07
423783,4237.83
423858,4238.58
423933,4239.33
424008,4240.08
424083,4240.83
424158,4241.58
424233,4242.33
424308,4243.08
424383,4243.83
424458,4244.58
424533,4245.33
424609,4246.09
424684,4246.84
424759,4247.59
424835,4248.35
424910,4249.1
424986,4249.86
425060,4250.6
425135,4251.35
425207,4252.07
425279,4252.79
425349,4253.49
425419,4254.19
425489,4254.89
425559,4255.59
425629,4256.29
425701,4257.01
425773,4257.73
425845,4258.45
425916,4259.16
425988,4259.88
426060,4260.6
426131,4261.31
426203,4262.03
426275,4262.75
426348,4263.48
426420,4264.2
426493,4264.93
426565,4265.65
426637,4266.37
426711,4267.11
426786,4267.86
426860,4268.6
426934,4269.34
427009,4270.09
427085,4270.85
427162,4271.62
427240,4272.4
427317,4273.17
427394,4273.94
427473,4274.73
427551,4275.51
427630,4276.3
427710,4277.1
427791,4277.91
427870,4278.7
427947,4279.47
428024,4280.24
428102,4281.02
428179,4281.79
428257,4282.57
428335,4283.35
428414,4284.14
428492,4284.92
428570,4285.7
428649,4286.49
428728,4287.28
428807,4288.07
428885,4288.85
428962,4289.62
429039,4290.39
429116,4291.16
429193,4291.93
429270,4292.7
429347,4293.47
429423,4294.23
429499,4294.99
429574,4295.74
429650,4296.5
429726,4297.26
429802,4298.02
429878,4298.78
429953,4299.53
430028,4300.28
430103,4301.03
430178,4301.78
430253,4302.53
430327,4303.27
430401,4304.01
430474,4304.74
430546,4305.46
430618,4306.18
430691,4306.91
430764,4307.64
430838,4308.38
430911,4309.11
430985,4309.85
431060,4310.6
431136,4311.36
431212,4312.12
431288,4312.88
431364,4313.64
431441,4314.41
431518,4315.18
431595,4315.95
431674,4316.74
431751,4317.51
431829,4318.29
431907,4319.07
431986,4319.86
432068,4320.68
432150,4321.5
432231,4322.31
432312,4323.12
432393,4323.93
432475,4324.75
432556,4325.56
432636,4326.36
432717,4327.17
432797,4327.97
432878,4328.78
432957,4329.57
433036,4330.36
433115,4331.15
433193,4331.93
433273,4332.73
433352,4333.52
433430,4334.3
433507,4335.07
433584,4335.84
433661,4336.61
433739,4337.39
433817,4338.17
433894,4338.94
433971,4339.71
434046,4340.46
434121,4341.21
434196,4341.96
434270,4342.7
434344,4343.44
434420,4344.2
434496,4344.96
434575,4345.75
434654,4346.54
434733,4347.33
434813,4348.13
434892,4348.92
434972,4349.72
435054,4350.54
435134,4351.34
435215,4352.15
435295,4352.95
435376,4353.76
435458,4354.58
435537,4355.37
435616,4356.16
435695,4356.95
435774,4357.74
435853,4358.53
435933,4359.33
436011,4360.11
436090,4360.9
436170,4361.7
436248,4362.48
436327,4363.27
436406,4364.06
436483,4364.83
436560,4365.6
436637,4366.37
436715,4367.15
436793,4367.93
436870,4368.7
436947,4369.47
437025,4370.25
437102,4371.02
437180,4371.8
437259,4372.59
437339,4373.39
437421,4374.21
437502,4375.02
437583,4375.83
437664,4376.64
437746,4377.46
437827,4378.27
437908,4379.08
437988,4379.88
438067,4380.67
438145,4381.45
438225,4382.25
438305,4383.05
438384,4383.84
438462,4384.62
438540,4385.4
438618,4386.18
438697,4386.97
438777,4387.77
438854,4388.54
438930,4389.3
439005,4390.05
439078,4390.78
439151,4391.51
439223,4392.23
439297,4392.97
439371,4393.71
439445,4394.45
439520,4395.2
439597,4395.97
439676,4396.76
439755,4397.55
439832,4398.32
439909,4399.09
439986,4399.86
440064,4400.64
440143,4401.43
440223,4402.23
440303,4403.03
440386,4403.86
440469,4404.69
440553,4405.53
440637,4406.37
440719,4407.19
440800,4408.0
440881,4408.81
440963,4409.63
441045,4410.45
441128,4411.28
441208,4412.08
441289,4412.89
441368,4413.68
441448,4414.48
441529,4415.29
441609,4416.09
441688,4416.88
441765,4417.65
441843,4418.43
441921,4419.21
441999,4419.99
442079,4420.79
442160,4421.6
442239,4422.39
442317,4423.17
442395,4423.95
442474,4424.74
442553,4425.53
442632,4426.32
442711,4427.11
442788,4427.88
442866,4428.66
442944,4429.44
443024,4430.24
443103,4431.03
443180,4431.8
443256,4432.56
443333,4433.33
443410,4434.1
443486,4434.86
443563,4435.63
443639,4436.39
443715,4437.15
443792,4437.92
443869,4438.69
443948,4439.48
444026,4440.26
444104,4441.04
444182,4441.82
444260,4442.6
444339,4443.39
444417,4444.17
444495,4444.95
444572,4445.72
444650,4446.5
444727,4447.27
444805,4448.05
444882,4448.82
444958,4449.58
445034,4450.34
445108,4451.08
445182,4451.82
445256,4452.56
445332,4453.32
445407,4454.07
445483,4454.83
445562,4455.62
445641,4456.41
445723,4457.23
445806,4458.06
445885,4458.85
445963,4459.63
446042,4460.42
446119,4461.19
446195,4461.95
446271,4462.71
446347,4463.47
446424,4464.24
446502,4465.02
446582,4465.82
446661,4466.61
446742,4467.42
446823,4468.23
446906,4469.06
446989,4469.89
447071,4470.71
447152,4471.52
447232,4472.32
447312,4473.12
447392,4473.92
447473,4474.73
447552,4475.52
447630,4476.3
447708,4477.08
447786,4477.86
447866,4478.66
447943,4479.43
448020,4480.2
448097,4480.97
448175,4481.75
448253,4482.53
448331,4483.31
448408,4484.08
448485,4484.85
448563,4485.63
448642,4486.42
448721,4487.21
448800,4488.0
448877,4488.77
448955,4489.55
449035,4490.35
449113,4491.13
449192,4491.92
449270,4492.7
449348,4493.48
449425,4494.25
449502,4495.02
449580,4495.8
449658,4496.58
449736,4497.36
449814,4498.14
449891,4498.91
449968,4499.68
450045,4500.45
450120,4501.2
450196,4501.96
450272,4502.72
450347,4503.47
450424,4504.24
450500,4505.0
450575,4505.75
450651,4506.51
450727,4507.27
450802,4508.02
450877,4508.77
450953,4509.53
451030,4510.3
451108,4511.08
451189,4511.89
451270,4512.7
451350,4513.5
451431,4514.31
451511,4515.11
451591,4515.91
451670,4516.7
451748,4517.48
451827,4518.27
451905,4519.05
451984,4519.84
452062,4520.62
452140,4521.4
452219,4522.19
452297,4522.97
452375,4523.75
452453,4524.53
452530,4525.3
452609,4526.09
452687,4526.87
452764,4527.64
452841,4528.41
452918,4529.18
452997,4529.97
453075,4530.75
453154,4531.54
453232,4532.32
453310,4533.1
453389,4533.89
453468,4534.68
453546,4535.46
453624,4536.24
453701,4537.01
453779,4537.79
453858,4538.58
453936,4539.36
454014,4540.14
454092,4540.92
454171,4541.71
454250,4542.5
454329,4543.29
454407,4544.07
454487,4544.87
454565,4545.65
454643,4546.43
454721,4547.21
454800,4548.0
454878,4548.78
454956,4549.56
455034,4550.34
455111,4551.11
455187,4551.87
455263,4552.63
455339,4553.39
455415,4554.15
455491,4554.91
455567,4555.67
455643,4556.43
455720,4557.2
455799,4557.99
455877,4558.77
455956,4559.56
456034,4560.34
456112,4561.12
456191,4561.91
456269,4562.69
456347,4563.47
456426,4564.26
456504,4565.04
456581,4565.81
456659,4566.59
456736,4567.36
456813,4568.13
456890,4568.9
456965,4569.65
457041,4570.41
457115,4571.15
457190,4571.9
457265,4572.65
457338,4573.38
457411,4574.11
457484,4574.84
457559,4575.59
457633,4576.33
457707,4577.07
457782,4577.82
457859,4578.59
457936,4579.36
458014,4580.14
458091,4580.91
458167,4581.67
458243,4582.43
458320,4583.2
458396,4583.96
458473,4584.73
458551,4585.51
458630,4586.3
458710,4587.1
458792,4587.92
458872,4588.72
458953,4589.53
459034,4590.34
459114,4591.14
459196,4591.96
459277,4592.77
459357,4593.57
459435,4594.35
459515,4595.15
459594,4595.94
459672,4596.72
459751,4597.51
459827,4598.27
459903,4599.03
459981,4599.81
460058,4600.58
460135,4601.35
460213,4602.13
460290,4602.9
460366,4603.66
460442,4604.42
460519,4605.19
460595,4605.95
460673,4606.73
460752,4607.52
460832,4608.32
460909,4609.09
460986,4609.86
461064,4610.64
461142,4611.42
461220,4612.2
461298,4612.98
461377,4613.77
461455,4614.55
461534,4615.34
461614,4616.14
461693,4616.93
461771,4617.71
461850,4618.5
461929,4619.29
462006,4620.06
462084,4620.84
462162,4621.62
462240,4622.4
462319,4623.19
462398,4623.98
462475,4624.75
462552,4625.52
462628,4626.28
462703,4627.03
462777,4627.77
462852,4628.52
462926,4629.26
463000,4630.0
463074,4630.74
463151,4631.51
463229,4632.29
463308,4633.08
463388,4633.88
463470,4634.7
463553,4635.53
463637,4636.37
463718,4637.18
463799,4637.99
463879,4638.79
463959,4639.59
464038,4640.38
464117,4641.17
464197,4641.97
464277,4642.77
464358,4643.58
464437,4644.37
464515,4645.15
464592,4645.92
464669,4646.69
464745,4647.45
464822,4648.22
464900,4649.0
464978,4649.78
465055,4650.55
465133,4651.33
465211,4652.11
465290,4652.9
465368,4653.68
465445,4654.45
465523,4655.23
465601,4656.01
465680,4656.8
465760,4657.6
465838,4658.38
465917,4659.17
465996,4659.96
466075,4660.75
466155,4661.55
466235,4662.35
466315,4663.15
466394,4663.94
466473,4664.73
466552,4665.52
466630,4666.3
466708,4667.08
466785,4667.85
466863,4668.63
466941,4669.41
467018,4670.18
467094,4670.94
467170,4671.7
467245,4672.45
467320,4673.2
467396,4673.96
467472,4674.72
467548,4675.48
467625,4676.25
467702,4677.02
467780,4677.8
467858,4678.58
467936,4679.36
468013,4680.13
468091,4680.91
468168,4681.68
468247,4682.47
468324,4683.24
468401,4684.01
468479,4684.79
468556,4685.56
468634,4686.34
468711,4687.11
468789,4687.89
468866,4688.66
468942,4689.42
469019,4690.19
469095,4690.95
469170,4691.7
469245,4692.45
469320,4693.2
469395,4693.95
469472,4694.72
469548,4695.48
469625,4696.25
469701,4697.01
469779,4697.79
469858,4698.58
469937,4699.37
470016,4700.16
470095,4700.95
470172,4701.72
470250,4702.5
470328,4703.28
470406,4704.06
470484,4704.84
470562,4705.62
470641,4706.41
470720,4707.2
470797,4707.97
470875,4708.75
470952,4709.52
471030,4710.3
471108,4711.08
471185,4711.85
471261,4712.61
471338,4713.38
471413,4714.13
471489,4714.89
471565,4715.65
471640,4716.4
471715,4717.15
471789,4717.89
471865,4718.65
471940,4719.4
472015,4720.15
472089,4720.89
472163,4721.63
472237,4722.37
472311,4723.11
472385,4723.85
472459,4724.59
472533,4725.33
472606,4726.06
472681,4726.81
472757,4727.57
472834,4728.34
472913,4729.13
472992,4729.92
473070,4730.7
473148,4731.48
473226,4732.26
473305,4733.05
473383,4733.83
473460,4734.6
473537,4735.37
473613,4736.13
473690,4736.9
473767,4737.67
473844,4738.44
473921,4739.21
473998,4739.98
474074,4740.74
474151,4741.51
474229,4742.29
474308,4743.08
474386,4743.86
474465,4744.65
474544,4745.44
474623,4746.23
474701,4747.01
474779,4747.79
474857,4748.57
474935,4749.35
475013,4750.13
475091,4750.91
475169,4751.69
475246,4752.46
475323,4753.23
475401,4754.01
475478,4754.78
475557,4755.57
475636,4756.36
475715,4757.15
475792,4757.92
475870,4758.7
475946,4759.46
476022,4760.22
476097,4760.97
476173,4761.73
476247,4762.47
476322,4763.22
476396,4763.96
476472,4764.72
476548,4765.48
476626,4766.26
476703,4767.03
476781,4767.81
476858,4768.58
476936,4769.36
477014,4770.14
477092,4770.92
477169,4771.69
477246,4772.46
477322,4773.22
477398,4773.98
477474,4774.74
477551,4775.51
477627,4776.27
477703,4777.03
477779,4777.79
477855,4778.55
477932,4779.32
478008,4780.08
478084,4780.84
478161,4781.61
478236,4782.36
478312,4783.12
478390,4783.9
478467,4784.67
478544,4785.44
478621,4786.21
478698,4786.98
478776,4787.76
478854,4788.54
478931,4789.31
479009,4790.09
479086,4790.86
479163,4791.63
479239,4792.39
479317,4793.17
479394,4793.94
479470,4794.7
479547,4795.47
479623,4796.23
479700,4797.0
479777,4797.77
479853,4798.53
479930,4799.3
480006,4800.06
480082,4800.82
480158,4801.58
480233,4802.33
480308,4803.08
480383,4803.83
480458,4804.58
480533,4805.33
480607,4806.07
480682,4806.82
480757,4807.57
480831,4808.31
480906,4809.06
480980,4809.8
481055,4810.55
481131,4811.31
481206,4812.06
481281,4812.81
481356,4813.56
481431,4814.31
481507,4815.07
481582,4815.82
481657,4816.57
481732,4817.32
481808,4818.08
481884,4818.84
481959,4819.59
482033,4820.33
482106,4821.06
482179,4821.79
482251,4822.51
482321,4823.21
482391,4823.91
482459,4824.59
482528,4825.28
482596,4825.96
482667,4826.67
482741,4827.41
482815,4828.15
482892,4828.92
482972,4829.72
483053,4830.53
483135,4831.35
483217,4832.17
483295,4832.95
483373,4833.73
483451,4834.51
483528,4835.28
483605,4836.05
483682,4836.82
483757,4837.57
483832,4838.32
483907,4839.07
483981,4839.81
484057,4840.57
484133,4841.33
484207,4842.07
484282,4842.82
484358,4843.58
484434,4844.34
484511,4845.11
484588,4845.88
484665,4846.65
484743,4847.43
484821,4848.21
484900,4849.0
484978,4849.78
485055,4850.55
485133,4851.33
485210,4852.1
485288,4852.88
485365,4853.65
485441,4854.41
485516,4855.16
485591,4855.91
485666,4856.66
485741,4857.41
485814,4858.14
485885,4858.85
485956,4859.56
486028,4860.28
486102,4861.02
486179,4861.79
486256,4862.56
486334,4863.34
486413,4864.13
486494,4864.94
486575,4865.75
486656,4866.56
486736,4867.36
486814,4868.14
486892,4868.92
486969,4869.69
487047,4870.47
487127,4871.27
487208,4872.08
487287,4872.87
487366,4873.66
487445,4874.45
487525,4875.25
487607,4876.07
487689,4876.89
487770,4877.7
487850,4878.5
487930,4879.3
488012,4880.12
488093,4880.93
488175,4881.75
488257,4882.57
488338,4883.38
488417,4884.17
488496,4884.96
488576,4885.76
488656,4886.56
488738,4887.38
488818,4888.18
488898,4888.98
488976,4889.76
489055,4890.55
489133,4891.33
489212,4892.12
489292,4892.92
489371,4893.71
489450,4894.5
489529,4895.29
489608,4896.08
489689,4896.89
489770,4897.7
489849,4898.49
489927,4899.27
490005,4900.05
490082,4900.82
490161,4901.61
490239,4902.39
490317,4903.17
490394,4903.94
490472,4904.72
490549,4905.49
490628,4906.28
490706,4907.06
490785,4907.85
490862,4908.62
490939,4909.39
491017,4910.17
491095,4910.95
491173,4911.73
491251,4912.51
491329,4913.29
491408,4914.08
491489,4914.89
491570,4915.7
491650,4916.5
491730,4917.3
491810,4918.1
491889,4918.89
491969,4919.69
492049,4920.49
492128,4921.28
492205,4922.05
492283,4922.83
492358,4923.58
492433,4924.33
492506,4925.06
492579,4925.79
492654,4926.54
492728,4927.28
492803,4928.03
492878,4928.78
492952,4929.52
493025,4930.25
493099,4930.99
493171,4931.71
493243,4932.43
493315,4933.15
493388,4933.88
493462,4934.62
493536,4935.36
493610,4936.1
493685,4936.85
493760,4937.6
493835,4938.35
493911,4939.11
493987,4939.87
494062,4940.62
494137,4941.37
494212,4942.12
494288,4942.88
494365,4943.65
494443,4944.43
494524,4945.24
494605,4946.05
494687,4946.87
494768,4947.68
494850,4948.5
494931,4949.31
495013,4950.13
495095,4950.95
495178,4951.78
495262,4952.62
495346,4953.46
495429,4954.29
495512,4955.12
495592,4955.92
495672,4956.72
495752,4957.52
495831,4958.31
495909,4959.09
495985,4959.85
496060,4960.6
496134,4961.34
496209,4962.09
496284,4962.84
496361,4963.61
496437,4964.37
496513,4965.13
496589,4965.89
496665,4966.65
496741,4967.41
496816,4968.16
496891,4968.91
496966,4969.66
497042,4970.42
497119,4971.19
497196,4971.96
497271,4972.71
497346,4973.46
497421,4974.21
497496,4974.96
497572,4975.72
497648,4976.48
497724,4977.24
497800,4978.0
497876,4978.76
497954,4979.54
498032,4980.32
498112,4981.12
498191,4981.91
498267,4982.67
498341,4983.41
498416,4984.16
498489,4984.89
498562,4985.62
498635,4986.35
498708,4987.08
498780,4987.8
498852,4988.52
498925,4989.25
498998,4989.98
499071,4990.71
499145,4991.45
499219,4992.19
499294,4992.94
499369,4993.69
499444,4994.44
499518,4995.18
499593,4995.93
499667,4996.67
499742,4997.42
499817,4998.17
499892,4998.92
499968,4999.68
500043,5000.43
500120,5001.2
500198,5001.98
500276,5002.76
500353,5003.53
500431,5004.31
500509,5005.09
500588,5005.88
500667,5006.67
500747,5007.47
500827,5008.27
500906,5009.06
500985,5009.85
501065,5010.65
501145,5011.45
501226,5012.26
501305,5013.05
501383,5013.83
501460,5014.6
501537,5015.37
501612,5016.12
501685,5016.85
501756,5017.56
501828,5018.28
501900,5019.0
501972,5019.72
502046,5020.46
502120,5021.2
502193,5021.93
502267,5022.67
502340,5023.4
502415,5024.15
502492,5024.92
502569,5025.69
502646,5026.46
502722,5027.22
502797,5027.97
502872,5028.72
502947,5029.47
503024,5030.24
503101,5031.01
503179,5031.79
503254,5032.54
503328,5033.28
503401,5034.01
503472,5034.72
503543,5035.43
503614,5036.14
503684,5036.84
503753,5037.53
503822,5038.22
503891,5038.91
503960,5039.6
504028,5040.28
504097,5040.97
504165,5041.65
504233,5042.33
504301,5043.01
504368,5043.68
504436,5044.36
504503,5045.03
504571,5045.71
504639,5046.39
504707,5047.07
504777,5047.77
504848,5048.48
504919,5049.19
504992,5049.92
505066,5050.66
505142,5051.42
505218,5052.18
505295,5052.95
505373,5053.73
505449,5054.49
505525,5055.25
505601,5056.01
505677,5056.77
505753,5057.53
505828,5058.28
505903,5059.03
505978,5059.78
506053,5060.53
506127,5061.27
506201,5062.01
506275,5062.75
506348,5063.48
506421,5064.21
506494,5064.94
506565,5065.65
506635,5066.35
506705,5067.05
506775,5067.75
506844,5068.44
506913,5069.13
506983,5069.83
507053,5070.53
507124,5071.24
507193,5071.93
507262,5072.62
507331,5073.31
507399,5073.99
507468,5074.68
507537,5075.37
507606,5076.06
507675,5076.75
507745,5077.45
507815,5078.15
507885,5078.85
507953,5079.53
508022,5080.22
508090,5080.9
508158,5081.58
508226,5082.26
508292,5082.92
508359,5083.59
508426,5084.26
508494,5084.94
508564,5085.64
508634,5086.34
508703,5087.03
508773,5087.73
508843,5088.43
508912,5089.12
508980,5089.8
509048,5090.48
509116,5091.16
509186,5091.86
509257,5092.57
509330,5093.3
509403,5094.03
509479,5094.79
509555,5095.55
509633,5096.33
509710,5097.1
509787,5097.87
509865,5098.65
509941,5099.41
510018,5100.18
510094,5100.94
510170,5101.7
510247,5102.47
510326,5103.26
510405,5104.05
510483,5104.83
510560,5105.6
510637,5106.37
510714,5107.14
510791,5107.91
510867,5108.67
510943,5109.43
511018,5110.18
511093,5110.93
511169,5111.69
511245,5112.45
511322,5113.22
511398,5113.98
511474,5114.74
511550,5115.5
511625,5116.25
511701,5117.01
511778,5117.78
511854,5118.54
511929,5119.29
512004,5120.04
512080,5120.8
512156,5121.56
512232,5122.32
512308,5123.08
512383,5123.83
512459,5124.59
512533,5125.33
512608,5126.08
512682,5126.82
512756,5127.56
512829,5128.29
512902,5129.02
512976,5129.76
513049,5130.49
513123,5131.23
513196,5131.96
513269,5132.69
513344,5133.44
513419,5134.19
513494,5134.94
513568,5135.68
513643,5136.43
513717,5137.17
513793,5137.93
513869,5138.69
513946,5139.46
514022,5140.22
514098,5140.98
514174,5141.74
514250,5142.5
514326,5143.26
514402,5144.02
514477,5144.77
514552,5145.52
514628,5146.28
514705,5147.05
514781,5147.81
514856,5148.56
514930,5149.3
515004,5150.04
515079,5150.79
515154,5151.54
515229,5152.29
515304,5153.04
515379,5153.79
515453,5154.53
515528,5155.28
515602,5156.02
515675,5156.75
515748,5157.48
515820,5158.2
515893,5158.93
515965,5159.65
516038,5160.38
516110,5161.1
516183,5161.83
516256,5162.56
516329,5163.29
516404,5164.04
516477,5164.77
516549,5165.49
516621,5166.21
516693,5166.93
516764,5167.64
516833,5168.33
516902,5169.02
516971,5169.71
517041,5170.41
517113,5171.13
517186,5171.86
517262,5172.62
517337,5173.37
517414,5174.14
517491,5174.91
517569,5175.69
517648,5176.48
517727,5177.27
517806,5178.06
517884,5178.84
517962,5179.62
518037,5180.37
518112,5181.12
518185,5181.85
518256,5182.56
518328,5183.28
518402,5184.02
518477,5184.77
518555,5185.55
518632,5186.32
518707,5187.07
518781,5187.81
518854,5188.54
518928,5189.28
519001,5190.01
519074,5190.74
519146,5191.46
519220,5192.2
519294,5192.94
519371,5193.71
519448,5194.48
519525,5195.25
519600,5196.0
519675,5196.75
519751,5197.51
519827,5198.27
519905,5199.05
519983,5199.83
520061,5200.61
520139,5201.39
520217,5202.17
520296,5202.96
520376,5203.76
520457,5204.57
520537,5205.37
520617,5206.17
520696,5206.96
520775,5207.75
520853,5208.53
520931,5209.31
521008,5210.08
521085,5210.85
521161,5211.61
521238,5212.38
521315,5213.15
521391,5213.91
521467,5214.67
521541,5215.41
521615,5216.15
521687,5216.87
521759,5217.59
521833,5218.33
521906,5219.06
521980,5219.8
522052,5220.52
522124,5221.24
522198,5221.98
522270,5222.7
522341,5223.41
522410,5224.1
522479,5224.79
522547,5225.47
522616,5226.16
522685,5226.85
522755,5227.55
522826,5228.26
522900,5229.0
522976,5229.76
523056,5230.56
523136,5231.36
523217,5232.17
523299,5232.99
523382,5233.82
523465,5234.65
523548,5235.48
523630,5236.3
523711,5237.11
523793,5237.93
523875,5238.75
523957,5239.57
524040,5240.4
524123,5241.23
524204,5242.04
524286,5242.86
524366,5243.66
524447,5244.47
524526,5245.26
524605,5246.05
524683,5246.83
524761,5247.61
524838,5248.38
524915,5249.15
524990,5249.9
525064,5250.64
525138,5251.38
525211,5252.11
525283,5252.83
525358,5253.58
525434,5254.34
525510,5255.1
525586,5255.86
525660,5256.6
525736,5257.36
525812,5258.12
525887,5258.87
525962,5259.62
526036,5260.36
526112,5261.12
526188,5261.88
526267,5262.67
526347,5263.47
526428,5264.28
526510,5265.1
526591,5265.91
526672,5266.72
526753,5267.53
526834,5268.34
526914,5269.14
526995,5269.95
527076,5270.76
527157,5271.57
527238,5272.38
527318,5273.18
527399,5273.99
527481,5274.81
527564,5275.64
527646,5276.46
527724,5277.24
527801,5278.01
527877,5278.77
527951,5279.51
528025,5280.25
528099,5280.99
528175,5281.75
528252,5282.52
528329,5283.29
528405,5284.05
528482,5284.82
528560,5285.6
528638,5286.38
528715,5287.15
528792,5287.92
528871,5288.71
528950,5289.5
529030,5290.3
529108,5291.08
529187,5291.87
529266,5292.66
529344,5293.44
529422,5294.22
529500,5295.0
529578,5295.78
529656,5296.56
529734,5297.34
529812,5298.12
529892,5298.92
529971,5299.71
530051,5300.51
530131,5301.31
530211,5302.11
530291,5302.91
530369,5303.69
530448,5304.48
530525,5305.25
530601,5306.01
530677,5306.77
530752,5307.52
530828,5308.28
530903,5309.03
530977,5309.77
531052,5310.52
531127,5311.27
531202,5312.02
531277,5312.77
531352,5313.52
531426,5314.26
531500,5315.0
531575,5315.75
531650,5316.5
531724,5317.24
531799,5317.99
531874,5318.74
531951,5319.51
532028,5320.28
532107,5321.07
532188,5321.88
532271,5322.71
532354,5323.54
532434,5324.34
532512,5325.12
532591,5325.91
532670,5326.7
532749,5327.49
532828,5328.28
532905,5329.05
532982,5329.82
533059,5330.59
533135,5331.35
533212,5332.12
533289,5332.89
533365,5333.65
533440,5334.4
533515,5335.15
533591,5335.91
533666,5336.66
533740,5337.4
533815,5338.15
533890,5338.9
533965,5339.65
534041,5340.41
534116,5341.16
534192,5341.92
534267,5342.67
534342,5343.42
534418,5344.18
534494,5344.94
534570,5345.7
534645,5346.45
534720,5347.2
534795,5347.95
534871,5348.71
534948,5349.48
535025,5350.25
535102,5351.02
535177,5351.77
535252,5352.52
535328,5353.28
535403,5354.03
535477,5354.77
535551,5355.51
535624,5356.24
535697,5356.97
535771,5357.71
535847,5358.47
535923,5359.23
536000,5360.0
536076,5360.76
536151,5361.51
536226,5362.26
536300,5363.0
536375,5363.75
536449,5364.49
536523,5365.23
536595,5365.95
536670,5366.7
536745,5367.45
536821,5368.21
536896,5368.96
536970,5369.7
537044,5370.44
537116,5371.16
537189,5371.89
537262,5372.62
537336,5373.36
537409,5374.09
537482,5374.82
537554,5375.54
537626,5376.26
537698,5376.98
537770,5377.7
537841,5378.41
537913,5379.13
537986,5379.86
538060,5380.6
538136,5381.36
538214,5382.14
538291,5382.91
538368,5383.68
538448,5384.48
538529,5385.29
538611,5386.11
538692,5386.92
538773,5387.73
538853,5388.53
538932,5389.32
539011,5390.11
539088,5390.88
539165,5391.65
539242,5392.42
539318,5393.18
539393,5393.93
539467,5394.67
539539,5395.39
539612,5396.12
539684,5396.84
539757,5397.57
539832,5398.32
539904,5399.04
539975,5399.75
540046,5400.46
540117,5401.17
540190,5401.9
540261,5402.61
540334,5403.34
540406,5404.06
540479,5404.79
540554,5405.54
540627,5406.27
540702,5407.02
540777,5407.77
540853,5408.53
540929,5409.29
541008,5410.08
541086,5410.86
541168,5411.68
541251,5412.51
541332,5413.32
541412,5414.12
541490,5414.9
541567,5415.67
541643,5416.43
541719,5417.19
541795,5417.95
541870,5418.7
541944,5419.44
542017,5420.17
542090,5420.9
542163,5421.63
542235,5422.35
542307,5423.07
542378,5423.78
542447,5424.47
542516,5425.16
542584,5425.84
542653,5426.53
542722,5427.22
542793,5427.93
542865,5428.65
542938,5429.38
543014,5430.14
543090,5430.9
543166,5431.66
543243,5432.43
543321,5433.21
543399,5433.99
543477,5434.77
543556,5435.56
543636,5436.36
543715,5437.15
543796,5437.96
543877,5438.77
543958,5439.58
544038,5440.38
544119,5441.19
544198,5441.98
544275,5442.75
544351,5443.51
544425,5444.25
544499,5444.99
544573,5445.73
544649,5446.49
544726,5447.26
544802,5448.02
544878,5448.78
544952,5449.52
545027,5450.27
545101,5451.01
545175,5451.75
545248,5452.48
545324,5453.24
545401,5454.01
545480,5454.8
545558,5455.58
545636,5456.36
545716,5457.16
545798,5457.98
545882,5458.82
545969,5459.69
546056,5460.56
546142,5461.42
546227,5462.27
546312,5463.12
546397,5463.97
546480,5464.8
546562,5465.62
546644,5466.44
546726,5467.26
546805,5468.05
546885,5468.85
546964,5469.64
547044,5470.44
547124,5471.24
547202,5472.02
547278,5472.78
547353,5473.53
547428,5474.28
547503,5475.03
547579,5475.79
547654,5476.54
547729,5477.29
547805,5478.05
547882,5478.82
547959,5479.59
548036,5480.36
548114,5481.14
548192,5481.92
548271,5482.71
548352,5483.52
548432,5484.32
548511,5485.11
548590,5485.9
548670,5486.7
548750,5487.5
548832,5488.32
548915,5489.15
548998,5489.98
549079,5490.79
549160,5491.6
549241,5492.41
549321,5493.21
549399,5493.99
549477,5494.77
549554,5495.54
549630,5496.3
549707,5497.07
549783,5497.83
549856,5498.56
549928,5499.28
550002,5500.02
550076,5500.76
550151,5501.51
550225,5502.25
550297,5502.97
550369,5503.69
550443,5504.43
550518,5505.18
550592,5505.92
550665,5506.65
550739,5507.39
550813,5508.13
550886,5508.86
550959,5509.59
551033,5510.33
551108,5511.08
551186,5511.86
551265,5512.65
551345,5513.45
551427,5514.27
551513,5515.13
551607,5516.07
551700,5517.0
551791,5517.91
551882,5518.82
551969,5519.69
552057,5520.57
552142,5521.42
552226,5522.26
552311,5523.11
552395,5523.95
552479,5524.79
552563,5525.63
552646,5526.46
552728,5527.28
552808,5528.08
552885,5528.85
552961,5529.61
553036,5530.36
553110,5531.1
553184,5531.84
553259,5532.59
553338,5533.38
553415,5534.15
553490,5534.9
553564,5535.64
553638,5536.38
553712,5537.12
553786,5537.86
553860,5538.6
553933,5539.33
554008,5540.08
554082,5540.82
554155,5541.55
554229,5542.29
554304,5543.04
554379,5543.79
554456,5544.56
554534,5545.34
554612,5546.12
554691,5546.91
554773,5547.73
554859,5548.59
554948,5549.48
555035,5550.35
555120,5551.2
555205,5552.05
555289,5552.89
555372,5553.72
555456,5554.56
555540,5555.4
555623,5556.23
555704,5557.04
555782,5557.82
555858,5558.58
555934,5559.34
556010,5560.1
556086,5560.86
556161,5561.61
556234,5562.34
556306,5563.06
556377,5563.77
556449,5564.49
556523,5565.23
556598,5565.98
556674,5566.74
556748,5567.48
556822,5568.22
556895,5568.95
556973,5569.73
557047,5570.47
557121,5571.21
557193,5571.93
557266,5572.66
557338,5573.38
557408,5574.08
557477,5574.77
557545,5575.45
557613,5576.13
557680,5576.8
557748,5577.48
557817,5578.17
557886,5578.86
557958,5579.58
558035,5580.35
558115,5581.15
558198,5581.98
558282,5582.82
558369,5583.69
558463,5584.63
558557,5585.57
558647,5586.47
558736,5587.36
558826,5588.26
558916,5589.16
559006,5590.06
559096,5590.96
559185,5591.85
559274,5592.74
559362,5593.62
559450,5594.5
559538,5595.38
559625,5596.25
559712,5597.12
559799,5597.99
559884,5598.84
559966,5599.66
560047,5600.47
560128,5601.28
560209,5602.09
560290,5602.9
560370,5603.7
560449,5604.49
560526,5605.26
560602,5606.02
560677,5606.77
560751,5607.51
560827,5608.27
560904,5609.04
560982,5609.82
561060,5610.6
561136,5611.36
561210,5612.1
561285,5612.85
561358,5613.58
561432,5614.32
561505,5615.05
561577,5615.77
561650,5616.5
561722,5617.22
561796,5617.96
561869,5618.69
561942,5619.42
562015,5620.15
562088,5620.88
562162,5621.62
562238,5622.38
562314,5623.14
562391,5623.91
562469,5624.69
562550,5625.5
562634,5626.34
562721,5627.21
562807,5628.07
562896,5628.96
562982,5629.82
563068,5630.68
563152,5631.52
563235,5632.35
563316,5633.16
563397,5633.97
563478,5634.78
563560,5635.6
563642,5636.42
563724,5637.24
563805,5638.05
563887,5638.87
563969,5639.69
564050,5640.5
564132,5641.32
564213,5642.13
564293,5642.93
564374,5643.74
564453,5644.53
564530,5645.3
564607,5646.07
564683,5646.83
564760,5647.6
564836,5648.36
564914,5649.14
564990,5649.9
565066,5650.66
565140,5651.4
565214,5652.14
565292,5652.92
565370,5653.7
565447,5654.47
565521,5655.21
565596,5655.96
565669,5656.69
565740,5657.4
565811,5658.11
565883,5658.83
565956,5659.56
566028,5660.28
566100,5661.0
566171,5661.71
566243,5662.43
566315,5663.15
566388,5663.88
566461,5664.61
566537,5665.37
566618,5666.18
566706,5667.06
566795,5667.95
566886,5668.86
566977,5669.77
567068,5670.68
567156,5671.56
567244,5672.44
567331,5673.31
567418,5674.18
567505,5675.05
567592,5675.92
567678,5676.78
567761,5677.61
567844,5678.44
567927,5679.27
568009,5680.09
568090,5680.9
568172,5681.72
568254,5682.54
568335,5683.35
568416,5684.16
568497,5684.97
568577,5685.77
568657,5686.57
568737,5687.37
568817,5688.17
568896,5688.96
568974,5689.74
569050,5690.5
569124,5691.24
569197,5691.97
569272,5692.72
569347,5693.47
569425,5694.25
569504,5695.04
569580,5695.8
569656,5696.56
569731,5697.31
569806,5698.06
569881,5698.81
569956,5699.56
570030,5700.3
570103,5701.03
570174,5701.74
570244,5702.44
570315,5703.15
570387,5703.87
570457,5704.57
570528,5705.28
570599,5705.99
570671,5706.71
570742,5707.42
570814,5708.14
570885,5708.85
570959,5709.59
571035,5710.35
571116,5711.16
571197,5711.97
571278,5712.78
571363,5713.63
571452,5714.52
571544,5715.44
571634,5716.34
571724,5717.24
571812,5718.12
571899,5718.99
571984,5719.84
572066,5720.66
572148,5721.48
572227,5722.27
572305,5723.05
572383,5723.83
572460,5724.6
572536,5725.36
572614,5726.14
572692,5726.92
572770,5727.7
572851,5728.51
572932,5729.32
573012,5730.12
573092,5730.92
573172,5731.72
573251,5732.51
573330,5733.3
573408,5734.08
573487,5734.87
573565,5735.65
573641,5736.41
573716,5737.16
573789,5737.89
573863,5738.63
573937,5739.37
574014,5740.14
574092,5740.92
574167,5741.67
574242,5742.42
574317,5743.17
574395,5743.95
574472,5744.72
574550,5745.5
574627,5746.27
574703,5747.03
574777,5747.77
574850,5748.5
574922,5749.22
574994,5749.94
575065,5750.65
575137,5751.37
575208,5752.08
575280,5752.8
575351,5753.51
575423,5754.23
575494,5754.94
575567,5755.67
575639,5756.39
575711,5757.11
575781,5757.81
575852,5758.52
575925,5759.25
576000,5760.0
576079,5760.79
576166,5761.66
576259,5762.59
576353,5763.53
576444,5764.44
576534,5765.34
576625,5766.25
576713,5767.13
576800,5768.0
576886,5768.86
576972,5769.72
577055,5770.55
577138,5771.38
577221,5772.21
577303,5773.03
577385,5773.85
577468,5774.68
577550,5775.5
577632,5776.32
577714,5777.14
577795,5777.95
577875,5778.75
577953,5779.53
578030,5780.3
578107,5781.07
578183,5781.83
578259,5782.59
578333,5783.33
578406,5784.06
578478,5784.78
578551,5785.51
578626,5786.26
578701,5787.01
578775,5787.75
578849,5788.49
578923,5789.23
578999,5789.99
579075,5790.75
579151,5791.51
579225,5792.25
579299,5792.99
579371,5793.71
579442,5794.42
579514,5795.14
579585,5795.85
579656,5796.56
579727,5797.27
579799,5797.99
579873,5798.73
579946,5799.46
580020,5800.2
580094,5800.94
580171,5801.71
580250,5802.5
580335,5803.35
580420,5804.2
580505,5805.05
580591,5805.91
580679,5806.79
580767,5807.67
580855,5808.55
580944,5809.44
581031,5810.31
581118,5811.18
581206,5812.06
581291,5812.91
581377,5813.77
581463,5814.63
581548,5815.48
581631,5816.31
581714,5817.14
581796,5817.96
581876,5818.76
581955,5819.55
582034,5820.34
582113,5821.13
582191,5821.91
582270,5822.7
582347,5823.47
582422,5824.22
582496,5824.96
582568,5825.68
582641,5826.41
582715,5827.15
582790,5827.9
582866,5828.66
582940,5829.4
583014,5830.14
583087,5830.87
583162,5831.62
583240,5832.4
583315,5833.15
583389,5833.89
583461,5834.61
583533,5835.33
583605,5836.05
583678,5836.78
583750,5837.5
583821,5838.21
583893,5838.93
583965,5839.65
584036,5840.36
584107,5841.07
584178,5841.78
584251,5842.51
584324,5843.24
584400,5844.0
584477,5844.77
584560,5845.6
584652,5846.52
584749,5847.49
584843,5848.43
584935,5849.35
585027,5850.27
585118,5851.18
585208,5852.08
585298,5852.98
585387,5853.87
585476,5854.76
585564,5855.64
585652,5856.52
585739,5857.39
585827,5858.27
585913,5859.13
585997,5859.97
586081,5860.81
586164,5861.64
586247,5862.47
586330,5863.3
586410,5864.1
586489,5864.89
586569,5865.69
586648,5866.48
586726,5867.26
586805,5868.05
586882,5868.82
586959,5869.59
587034,5870.34
587109,5871.09
587186,5871.86
587264,5872.64
587344,5873.44
587422,5874.22
587498,5874.98
587573,5875.73
587648,5876.48
587725,5877.25
587802,5878.02
587878,5878.78
587955,5879.55
588029,5880.29
588103,5881.03
588174,5881.74
588244,5882.44
588312,5883.12
588380,5883.8
588447,5884.47
588513,5885.13
588580,5885.8
588647,5886.47
588713,5887.13
588779,5887.79
588846,5888.46
588914,5889.14
588983,5889.83
589051,5890.51
589120,5891.2
589191,5891.91
589263,5892.63
589338,5893.38
589413,5894.13
589487,5894.87
589561,5895.61
589634,5896.34
589708,5897.08
589780,5897.8
589851,5898.51
589921,5899.21
589991,5899.91
590062,5900.62
590133,5901.33
590203,5902.03
590275,5902.75
590346,5903.46
590418,5904.18
590489,5904.89
590561,5905.61
590632,5906.32
590703,5907.03
590772,5907.72
590841,5908.41
590909,5909.09
590978,5909.78
591048,5910.48
591121,5911.21
591199,5911.99
591282,5912.82
591365,5913.65
591450,5914.5
591534,5915.34
591616,5916.16
591698,5916.98
591779,5917.79
591859,5918.59
591939,5919.39
592020,5920.2
592101,5921.01
592178,5921.78
592254,5922.54
592329,5923.29
592405,5924.05
592481,5924.81
592556,5925.56
592632,5926.32
592709,5927.09
592788,5927.88
592869,5928.69
592949,5929.49
593029,5930.29
593108,5931.08
593185,5931.85
593261,5932.61
593337,5933.37
593414,5934.14
593491,5934.91
593571,5935.71
593650,5936.5
593728,5937.28
593804,5938.04
593883,5938.83
593962,5939.62
594040,5940.4
594118,5941.18
594195,5941.95
594272,5942.72
594347,5943.47
594421,5944.21
594496,5944.96
594572,5945.72
594647,5946.47
594720,5947.2
594794,5947.94
594868,5948.68
594943,5949.43
595019,5950.19
595094,5950.94
595168,5951.68
595243,5952.43
595319,5953.19
595396,5953.96
595473,5954.73
595548,5955.48
595625,5956.25
595703,5957.03
595783,5957.83
595864,5958.64
595945,5959.45
596024,5960.24
596103,5961.03
596184,5961.84
596267,5962.67
596352,5963.52
596436,5964.36
596517,5965.17
596597,5965.97
596678,5966.78
596759,5967.59
596840,5968.4
596920,5969.2
596998,5969.98
597076,5970.76
597154,5971.54
597234,5972.34
597315,5973.15
597397,5973.97
597476,5974.76
597555,5975.55
597632,5976.32
597709,5977.09
597788,5977.88
597869,5978.69
597949,5979.49
598030,5980.3
598108,5981.08
598185,5981.85
598262,5982.62
598340,5983.4
598418,5984.18
598495,5984.95
598571,5985.71
598646,5986.46
598723,5987.23
598801,5988.01
598879,5988.79
598957,5989.57
599034,5990.34
599110,5991.1
599186,5991.86
599263,5992.63
599343,5993.43
599424,5994.24
599504,5995.04
599582,5995.82
599661,5996.61
599742,5997.42
599822,5998.22
599904,5999.04
599983,5999.83
600061,6000.61
600141,6001.41
600224,6002.24
600308,6003.08
600393,6003.93
600478,6004.78
600560,6005.6
600640,6006.4
600721,6007.21
600803,6008.03
600886,6008.86
600968,6009.68
601049,6010.49
601127,6011.27
601206,6012.06
601286,6012.86
601366,6013.66
601447,6014.47
601525,6015.25
601602,6016.02
601679,6016.79
601757,6017.57
601836,6018.36
601917,6019.17
601995,6019.95
602072,6020.72
602151,6021.51
602230,6022.3
602311,6023.11
602393,6023.93
602473,6024.73
602551,6025.51
602632,6026.32
602714,6027.14
602797,6027.97
602879,6028.79
602959,6029.59
603038,6030.38
603118,6031.18
603199,6031.99
603281,6032.81
603360,6033.6
603438,6034.38
603516,6035.16
603595,6035.95
603676,6036.76
603757,6037.57
603838,6038.38
603918,6039.18
603996,6039.96
604074,6040.74
604153,6041.53
604235,6042.35
604316,6043.16
604395,6043.95
604473,6044.73
604551,6045.51
604630,6046.3
604710,6047.1
604788,6047.88
604865,6048.65
604942,6049.42
605018,6050.18
605096,6050.96
605175,6051.75
605252,6052.52
605328,6053.28
605406,6054.06
605484,6054.84
605563,6055.63
605642,6056.42
605718,6057.18
605795,6057.95
605873,6058.73
605953,6059.53
606035,6060.35
606115,6061.15
606194,6061.94
606273,6062.73
606354,6063.54
606437,6064.37
606521,6065.21
606601,6066.01
606680,6066.8
606759,6067.59
606838,6068.38
606917,6069.17
606996,6069.96
607073,6070.73
607149,6071.49
607226,6072.26
607305,6073.05
607385,6073.85
607465,6074.65
607543,6075.43
607622,6076.22
607702,6077.02
607783,6077.83
607864,6078.64
607942,6079.42
608022,6080.22
608102,6081.02
608186,6081.86
608272,6082.72
608356,6083.56
608436,6084.36
608515,6085.15
608595,6085.95
608675,6086.75
608754,6087.54
608832,6088.32
608908,6089.08
608984,6089.84
609062,6090.62
609140,6091.4
609218,6092.18
609296,6092.96
609372,6093.72
609450,6094.5
609527,6095.27
609607,6096.07
609687,6096.87
609765,6097.65
609842,6098.42
609921,6099.21
609999,6099.99
610079,6100.79
610160,6101.6
610238,6102.38
610317,6103.17
610396,6103.96
610475,6104.75
610555,6105.55
610634,6106.34
610713,6107.13
610791,6107.91
610869,6108.69
610948,6109.48
611028,6110.28
611109,6111.09
611188,6111.88
611268,6112.68
611352,6113.52
611437,6114.37
611522,6115.22
611604,6116.04
611687,6116.87
611771,6117.71
611854,6118.54
611937,6119.37
612018,6120.18
612096,6120.96
612175,6121.75
612255,6122.55
612336,6123.36
612416,6124.16
612494,6124.94
612570,6125.7
612647,6126.47
612725,6127.25
612804,6128.04
612884,6128.84
612961,6129.61
613038,6130.38
613116,6131.16
613195,6131.95
613275,6132.75
613354,6133.54
613432,6134.32
613510,6135.1
613589,6135.89
613670,6136.7
613752,6137.52
613831,6138.31
613908,6139.08
613987,6139.87
614067,6140.67
614148,6141.48
614229,6142.29
614309,6143.09
614389,6143.89
614473,6144.73
614557,6145.57
614641,6146.41
614722,6147.22
614800,6148.0
614879,6148.79
614958,6149.58
615038,6150.38
615119,6151.19
615199,6151.99
615276,6152.76
615353,6153.53
615431,6154.31
615514,6155.14
615596,6155.96
615680,6156.8
615762,6157.62
615844,6158.44
615926,6159.26
616009,6160.09
616092,6160.92
616173,6161.73
616253,6162.53
616333,6163.33
616415,6164.15
616499,6164.99
616581,6165.81
616662,6166.62
616743,6167.43
616824,6168.24
616906,6169.06
616989,6169.89
617069,6170.69
617149,6171.49
617229,6172.29
617311,6173.11
617391,6173.91
617470,6174.7
617549,6175.49
617628,6176.28
617708,6177.08
617788,6177.88
617867,6178.67
617944,6179.44
618023,6180.23
618103,6181.03
618184,6181.84
618263,6182.63
618341,6183.41
618420,6184.2
618500,6185.0
618581,6185.81
618661,6186.61
618740,6187.4
618819,6188.19
618897,6188.97
618976,6189.76
619056,6190.56
619134,6191.34
619211,6192.11
619289,6192.89
619367,6193.67
619448,6194.48
619528,6195.28
619606,6196.06
619684,6196.84
619761,6197.61
619841,6198.41
619923,6199.23
620004,6200.04
620084,6200.84
620166,6201.66
620246,6202.46
620326,6203.26
620405,6204.05
620483,6204.83
620561,6205.61
620639,6206.39
620717,6207.17
620797,6207.97
620875,6208.75
620953,6209.53
621032,6210.32
621111,6211.11
621194,6211.94
621274,6212.74
621354,6213.54
621433,6214.33
621513,6215.13
621595,6215.95
621678,6216.78
621761,6217.61
621842,6218.42
621925,6219.25
622009,6220.09
622094,6220.94
622177,6221.77
622258,6222.58
622338,6223.38
622420,6224.2
622502,6225.02
622585,6225.85
622668,6226.68
622749,6227.49
622831,6228.31
622913,6229.13
622995,6229.95
623079,6230.79
623162,6231.62
623242,6232.42
623320,6233.2
623398,6233.98
623475,6234.75
623553,6235.53
623632,6236.32
623709,6237.09
623786,6237.86
623862,6238.62
623939,6239.39
624017,6240.17
624095,6240.95
624173,6241.73
624249,6242.49
624323,6243.23
624396,6243.96
624469,6244.69
624542,6245.42
624615,6246.15
624688,6246.88
624761,6247.61
624834,6248.34
624907,6249.07
624979,6249.79
625052,6250.52
625125,6251.25
625201,6252.01
625278,6252.78
625356,6253.56
625435,6254.35
625516,6255.16
625601,6256.01
625688,6256.88
625776,6257.76
625863,6258.63
625949,6259.49
626036,6260.36
626123,6261.23
626212,6262.12
626301,6263.01
626390,6263.9
626478,6264.78
626562,6265.62
626646,6266.46
626726,6267.26
626805,6268.05
626887,6268.87
626967,6269.67
627048,6270.48
627127,6271.27
627204,6272.04
627281,6272.81
627359,6273.59
627438,6274.38
627517,6275.17
627596,6275.96
627674,6276.74
627754,6277.54
627834,6278.34
627916,6279.16
627996,6279.96
628074,6280.74
628153,6281.53
628231,6282.31
628310,6283.1
628389,6283.89
628467,6284.67
628544,6285.44
628624,6286.24
628705,6287.05
628790,6287.9
628875,6288.75
628957,6289.57
629037,6290.37
629118,6291.18
629199,6291.99
629283,6292.83
629366,6293.66
629448,6294.48
629528,6295.28
629609,6296.09
629694,6296.94
629779,6297.79
629864,6298.64
629948,6299.48
630028,6300.28
630107,6301.07
630186,6301.86
630265,6302.65
630345,6303.45
630425,6304.25
630503,6305.03
630580,6305.8
630659,6306.59
630739,6307.39
630822,6308.22
630904,6309.04
630984,6309.84
631063,6310.63
631144,6311.44
631225,6312.25
631307,6313.07
631387,6313.87
631466,6314.66
631543,6315.43
631620,6316.2
631699,6316.99
631779,6317.79
631859,6318.59
631937,6319.37
632014,6320.14
632091,6320.91
632170,6321.7
632249,6322.49
632331,6323.31
632411,6324.11
632490,6324.9
632570,6325.7
632651,6326.51
632734,6327.34
632817,6328.17
632899,6328.99
632980,6329.8
633061,6330.61
633142,6331.42
633226,6332.26
633310,6333.1
633391,6333.91
633470,6334.7
633550,6335.5
633631,6336.31
633714,6337.14
633796,6337.96
633877,6338.77
633956,6339.56
634035,6340.35
634115,6341.15
634195,6341.95
634275,6342.75
634355,6343.55
634433,6344.33
634510,6345.1
634587,6345.87
634664,6346.64
634744,6347.44
634825,6348.25
634907,6349.07
634988,6349.88
635068,6350.68
635148,6351.48
635229,6352.29
635309,6353.09
635391,6353.91
635471,6354.71
635549,6355.49
635627,6356.27
635706,6357.06
635785,6357.85
635864,6358.64
635942,6359.42
636020,6360.2
636097,6360.97
636175,6361.75
636255,6362.55
636335,6363.35
636414,6364.14
636492,6364.92
636572,6365.72
636653,6366.53
636734,6367.34
636814,6368.14
636891,6368.91
636969,6369.69
637047,6370.47
637127,6371.27
637210,6372.1
637291,6372.91
637370,6373.7
637448,6374.48
637528,6375.28
637609,6376.09
637690,6376.9
637771,6377.71
637851,6378.51
637932,6379.32
638013,6380.13
638096,6380.96
638177,6381.77
638257,6382.57
638337,6383.37
638417,6384.17
638498,6384.98
638579,6385.79
638659,6386.59
638737,6387.37
