sample,time_sec
48,0.48
124,1.24
200,2.0
275,2.75
351,3.51
427,4.27
503,5.03
580,5.8
664,6.64
747,7.47
832,8.32
918,9.18
1002,10.02
1088,10.88
1172,11.72
1255,12.55
1339,13.39
1422,14.22
1505,15.05
1588,15.88
1672,16.72
1756,17.56
1841,18.41
1926,19.26
2011,20.11
2091,20.91
2169,21.69
2247,22.47
2326,23.26
2405,24.05
2482,24.82
2559,25.59
2637,26.37
2716,27.16
2794,27.94
2875,28.75
2957,29.57
3043,30.43
3129,31.29
3216,32.16
3300,33.0
3383,33.83
3468,34.68
3554,35.54
3635,36.35
3714,37.14
3792,37.92
3872,38.72
3955,39.55
4040,40.4
4130,41.3
4221,42.21
4315,43.15
4411,44.11
4505,45.05
4601,46.01
4697,46.97
4793,47.93
4889,48.89
4986,49.86
5081,50.81
5176,51.76
5272,52.72
5366,53.66
5459,54.59
5549,55.49
5634,56.34
5717,57.17
5801,58.01
5885,58.85
5972,59.72
6063,60.63
6155,61.55
6242,62.42
6330,63.3
6420,64.2
6510,65.1
6604,66.04
6698,66.98
6787,67.87
6877,68.77
6970,69.7
7063,70.63
7158,71.58
7252,72.52
7343,73.43
7437,74.37
7533,75.33
7628,76.28
7720,77.2
7812,78.12
7906,79.06
7999,79.99
8094,80.94
8189,81.89
8282,82.82
8375,83.75
8467,84.67
8559,85.59
8652,86.52
8743,87.43
8836,88.36
8928,89.28
9020,90.2
9112,91.12
9204,92.04
9296,92.96
9388,93.88
9479,94.79
9569,95.69
9660,96.6
9751,97.51
9842,98.42
9931,99.31
10024,100.24
10118,101.18
10212,102.12
10307,103.07
10401,104.01
10495,104.95
10590,105.9
10685,106.85
10780,107.8
10875,108.75
10966,109.66
11056,110.56
11146,111.46
11238,112.38
11330,113.3
11418,114.18
11506,115.06
11597,115.97
11689,116.89
11781,117.81
11869,118.69
11958,119.58
12049,120.49
12140,121.4
12232,122.32
12320,123.2
12410,124.1
12500,125.0
12591,125.91
12680,126.8
12770,127.7
12861,128.61
12953,129.53
13042,130.42
13131,131.31
13222,132.22
13313,133.13
13401,134.01
13491,134.91
13582,135.82
13673,136.73
13762,137.62
13850,138.5
13938,139.38
14027,140.27
14115,141.15
14204,142.04
14295,142.95
14387,143.87
14478,144.78
14571,145.71
14665,146.65
14755,147.55
14844,148.44
14935,149.35
15024,150.24
15113,151.13
15202,152.02
15293,152.93
15384,153.84
15473,154.73
15562,155.62
15650,156.5
15737,157.37
15823,158.23
15908,159.08
15991,159.91
16073,160.73
16153,161.53
16233,162.33
16315,163.15
16399,163.99
16486,164.86
16574,165.74
16662,166.62
16752,167.52
16843,168.43
16934,169.34
17022,170.22
17111,171.11
17201,172.01
17291,172.91
17379,173.79
17467,174.67
17559,175.59
17651,176.51
17741,177.41
17832,178.32
17926,179.26
18020,180.2
18111,181.11
18202,182.02
18292,182.92
18383,183.83
18471,184.71
18557,185.57
18646,186.46
18735,187.35
18821,188.21
18907,189.07
18995,189.95
19083,190.83
19171,191.71
19258,192.58
19343,193.43
19430,194.3
19516,195.16
19603,196.03
19687,196.87
19771,197.71
19856,198.56
19942,199.42
20029,200.29
20115,201.15
20201,202.01
20288,202.88
20375,203.75
20462,204.62
20547,205.47
20634,206.34
20721,207.21
20810,208.1
20896,208.96
20982,209.82
21069,210.69
21157,211.57
21244,212.44
21330,213.3
21416,214.16
21503,215.03
21590,215.9
21675,216.75
21761,217.61
21848,218.48
21937,219.37
22024,220.24
22110,221.1
22198,221.98
22285,222.85
22374,223.74
22460,224.6
22545,225.45
22632,226.32
22720,227.2
22808,228.08
22895,228.95
22983,229.83
23073,230.73
23162,231.62
23247,232.47
23332,233.32
23418,234.18
23503,235.03
23587,235.87
23671,236.71
23757,237.57
23842,238.42
23928,239.28
24014,240.14
24100,241.0
24187,241.87
24271,242.71
24353,243.53
24434,244.34
24515,245.15
24600,246.0
24684,246.84
24770,247.7
24857,248.57
24943,249.43
25031,250.31
25121,251.21
25212,252.12
25300,253.0
25389,253.89
25479,254.79
25570,255.7
25658,256.58
25745,257.45
25834,258.34
25926,259.26
26018,260.18
26108,261.08
26196,261.96
26285,262.85
26375,263.75
26465,264.65
26551,265.51
26638,266.38
26726,267.26
26815,268.15
26905,269.05
26992,269.92
27079,270.79
27167,271.67
27257,272.57
27344,273.44
27431,274.31
27519,275.19
27610,276.1
27700,277.0
27788,277.88
27875,278.75
27964,279.64
28053,280.53
28143,281.43
28230,282.3
28318,283.18
28407,284.07
28497,284.97
28588,285.88
28677,286.77
28769,287.69
28863,288.63
28960,289.6
29056,290.56
29153,291.53
29250,292.5
29349,293.49
29443,294.43
29537,295.37
29631,296.31
29726,297.26
29821,298.21
29911,299.11
30002,300.02
30095,300.95
30187,301.87
30279,302.79
30369,303.69
30459,304.59
30551,305.51
30644,306.44
30731,307.31
30819,308.19
30909,309.09
30999,309.99
31087,310.87
31175,311.75
31265,312.65
31356,313.56
31448,314.48
31538,315.38
31627,316.27
31717,317.17
31809,318.09
31899,318.99
31988,319.88
32078,320.78
32169,321.69
32259,322.59
32350,323.5
32440,324.4
32530,325.3
32621,326.21
32713,327.13
32805,328.05
32896,328.96
32986,329.86
33078,330.78
33170,331.7
33264,332.64
33355,333.55
33445,334.45
33536,335.36
33628,336.28
33720,337.2
33809,338.09
33898,338.98
33990,339.9
34082,340.82
34172,341.72
34261,342.61
34351,343.51
34441,344.41
34531,345.31
34619,346.19
34708,347.08
34800,348.0
34891,348.91
34982,349.82
35071,350.71
35158,351.58
35247,352.47
35337,353.37
35425,354.25
35512,355.12
35602,356.02
35693,356.93
35783,357.83
35871,358.71
35960,359.6
36050,360.5
36141,361.41
36233,362.33
36323,363.23
36417,364.17
36511,365.11
36602,366.02
36691,366.91
36782,367.82
36872,368.72
36964,369.64
37056,370.56
37148,371.48
37241,372.41
37330,373.3
37418,374.18
37508,375.08
37599,375.99
37688,376.88
37776,377.76
37863,378.63
37952,379.52
38042,380.42
38132,381.32
38220,382.2
38309,383.09
38402,384.02
38496,384.96
38590,385.9
38683,386.83
38775,387.75
38867,388.67
38959,389.59
39049,390.49
39137,391.37
39225,392.25
39316,393.16
39407,394.07
39497,394.97
39586,395.86
39678,396.78
39771,397.71
39865,398.65
39959,399.59
40050,400.5
40141,401.41
40233,402.33
40324,403.24
40412,404.12
40501,405.01
40591,405.91
40682,406.82
40772,407.72
40861,408.61
40948,409.48
41038,410.38
41129,411.29
41221,412.21
41311,413.11
41401,414.01
41493,414.93
41585,415.85
41680,416.8
41775,417.75
41865,418.65
41953,419.53
42043,420.43
42132,421.32
42221,422.21
42308,423.08
42397,423.97
42488,424.88
42580,425.8
42672,426.72
42763,427.63
42853,428.53
42945,429.45
43037,430.37
43126,431.26
43213,432.13
43300,433.0
43388,433.88
43478,434.78
43565,435.65
43651,436.51
43738,437.38
43826,438.26
43916,439.16
44003,440.03
44089,440.89
44176,441.76
44263,442.63
44352,443.52
44440,444.4
44527,445.27
44615,446.15
44706,447.06
44795,447.95
44885,448.85
44972,449.72
45058,450.58
45144,451.44
45232,452.32
45319,453.19
45405,454.05
45490,454.9
45577,455.77
45666,456.66
45757,457.57
45848,458.48
45937,459.37
46027,460.27
46117,461.17
46205,462.05
46291,462.91
46378,463.78
46466,464.66
46554,465.54
46641,466.41
46727,467.27
46815,468.15
46905,469.05
46997,469.97
47085,470.85
47173,471.73
47263,472.63
47353,473.53
47443,474.43
47532,475.32
47622,476.22
47713,477.13
47802,478.02
47890,478.9
47978,479.78
48068,480.68
48159,481.59
48250,482.5
48339,483.39
48427,484.27
48516,485.16
48606,486.06
48694,486.94
48778,487.78
48861,488.61
48943,489.43
49024,490.24
49103,491.03
49181,491.81
49260,492.6
49340,493.4
49419,494.19
49497,494.97
49575,495.75
49652,496.52
49727,497.27
49803,498.03
49881,498.81
49962,499.62
50045,500.45
50129,501.29
50213,502.13
50301,503.01
50389,503.89
50478,504.78
50567,505.67
50655,506.55
50744,507.44
50833,508.33
50922,509.22
51009,510.09
51095,510.95
51183,511.83
51271,512.71
51361,513.61
51451,514.51
51540,515.4
51631,516.31
51723,517.23
51816,518.16
51906,519.06
51995,519.95
52086,520.86
52176,521.76
52268,522.68
52358,523.58
52448,524.48
52540,525.4
52634,526.34
52729,527.29
52820,528.2
52910,529.1
52999,529.99
53089,530.89
53179,531.79
53269,532.69
53357,533.57
53447,534.47
53538,535.38
53632,536.32
53724,537.24
53814,538.14
53903,539.03
53994,539.94
54086,540.86
54176,541.76
54265,542.65
54355,543.55
54446,544.46
54537,545.37
54626,546.26
54715,547.15
54806,548.06
54896,548.96
54985,549.85
55073,550.73
55162,551.62
55253,552.53
55346,553.46
55436,554.36
55525,555.25
55615,556.15
55705,557.05
55797,557.97
55886,558.86
55976,559.76
56066,560.66
56158,561.58
56250,562.5
56339,563.39
56427,564.27
56517,565.17
56607,566.07
56699,566.99
56789,567.89
56880,568.8
56973,569.73
57070,570.7
57168,571.68
57261,572.61
57354,573.54
57444,574.44
57535,575.35
57626,576.26
57718,577.18
57808,578.08
57898,578.98
57989,579.89
58077,580.77
58165,581.65
58252,582.52
58338,583.38
58423,584.23
58507,585.07
58591,585.91
58672,586.72
58755,587.55
58837,588.37
58920,589.2
59002,590.02
59084,590.84
59167,591.67
59249,592.49
59331,593.31
59410,594.1
59490,594.9
59567,595.67
59644,596.44
59721,597.21
59799,597.99
59879,598.79
59959,599.59
60043,600.43
60128,601.28
60212,602.12
60297,602.97
60383,603.83
60469,604.69
60556,605.56
60643,606.43
60729,607.29
60818,608.18
60908,609.08
60998,609.98
61085,610.85
61173,611.73
61262,612.62
61352,613.52
61439,614.39
61527,615.27
61616,616.16
61706,617.06
61797,617.97
61887,618.87
61975,619.75
62063,620.63
62153,621.53
62243,622.43
62335,623.35
62426,624.26
62516,625.16
62608,626.08
62701,627.01
62792,627.92
62882,628.82
62971,629.71
63062,630.62
63153,631.53
63243,632.43
63334,633.34
63426,634.26
63519,635.19
63613,636.13
63708,637.08
63801,638.01
63897,638.97
63994,639.94
64092,640.92
64189,641.89
64283,642.83
64377,643.77
64473,644.73
64563,645.63
64653,646.53
64744,647.44
64835,648.35
64924,649.24
65005,650.05
65085,650.85
65167,651.67
65248,652.48
65331,653.31
65417,654.17
65504,655.04
65592,655.92
65680,656.8
65762,657.62
65846,658.46
65927,659.27
66009,660.09
66090,660.9
66172,661.72
66255,662.55
66337,663.37
66422,664.22
66508,665.08
66595,665.95
66683,666.83
66771,667.71
66857,668.57
66944,669.44
67031,670.31
67118,671.18
67204,672.04
67292,672.92
67381,673.81
67466,674.66
67551,675.51
67635,676.35
67720,677.2
67804,678.04
67891,678.91
67979,679.79
68065,680.65
68152,681.52
68240,682.4
68328,683.28
68415,684.15
68499,684.99
68585,685.85
68672,686.72
68759,687.59
68847,688.47
68937,689.37
69028,690.28
69122,691.22
69214,692.14
69307,693.07
69401,694.01
69495,694.95
69588,695.88
69680,696.8
69774,697.74
69866,698.66
69957,699.57
70046,700.46
70137,701.37
70229,702.29
70321,703.21
70411,704.11
70501,705.01
70594,705.94
70688,706.88
70778,707.78
70867,708.67
70957,709.57
71048,710.48
71140,711.4
71230,712.3
71320,713.2
71412,714.12
71507,715.07
71602,716.02
71692,716.92
71782,717.82
71874,718.74
71966,719.66
72059,720.59
72148,721.48
72237,722.37
72327,723.27
72419,724.19
72509,725.09
72599,725.99
72691,726.91
72783,727.83
72876,728.76
72967,729.67
73057,730.57
73149,731.49
73242,732.42
73336,733.36
73427,734.27
73517,735.17
73608,736.08
73700,737.0
73792,737.92
73881,738.81
73970,739.7
74058,740.58
74149,741.49
74241,742.41
74332,743.32
74422,744.22
74511,745.11
74602,746.02
74694,746.94
74784,747.84
74873,748.73
74958,749.58
75043,750.43
75127,751.27
75207,752.07
75288,752.88
75371,753.71
75457,754.57
75542,755.42
75628,756.28
75719,757.19
75812,758.12
75906,759.06
75997,759.97
76087,760.87
76177,761.77
76269,762.69
76360,763.6
76449,764.49
76537,765.37
76628,766.28
76719,767.19
76811,768.11
76901,769.01
76991,769.91
77084,770.84
77179,771.79
77274,772.74
77367,773.67
77459,774.59
77552,775.52
77645,776.45
77736,777.36
77826,778.26
77917,779.17
78008,780.08
78099,780.99
78188,781.88
78277,782.77
78368,783.68
78460,784.6
78553,785.53
78643,786.43
78729,787.29
78816,788.16
78906,789.06
78999,789.99
79093,790.93
79188,791.88
79281,792.81
79371,793.71
79460,794.6
79548,795.48
79634,796.34
79718,797.18
79804,798.04
79893,798.93
79980,799.8
80066,800.66
80155,801.55
80245,802.45
80334,803.34
80423,804.23
80513,805.13
80603,806.03
80691,806.91
80778,807.78
80865,808.65
80953,809.53
81038,810.38
81123,811.23
81208,812.08
81295,812.95
81380,813.8
81465,814.65
81551,815.51
81638,816.38
81725,817.25
81811,818.11
81898,818.98
81986,819.86
82076,820.76
82165,821.65
82253,822.53
82342,823.42
82433,824.33
82524,825.24
82613,826.13
82701,827.01
82790,827.9
82878,828.78
82964,829.64
83053,830.53
83144,831.44
83233,832.33
83322,833.22
83414,834.14
83506,835.06
83596,835.96
83683,836.83
83770,837.7
83856,838.56
83941,839.41
84028,840.28
84115,841.15
84205,842.05
84297,842.97
84390,843.9
84484,844.84
84577,845.77
84668,846.68
84760,847.6
84849,848.49
84938,849.38
85022,850.22
85106,851.06
85188,851.88
85271,852.71
85354,853.54
85439,854.39
85525,855.25
85612,856.12
85699,856.99
85785,857.85
85869,858.69
85953,859.53
86038,860.38
86124,861.24
86213,862.13
86304,863.04
86393,863.93
86482,864.82
86573,865.73
86665,866.65
86755,867.55
86845,868.45
86936,869.36
87027,870.27
87119,871.19
87210,872.1
87301,873.01
87393,873.93
87487,874.87
87580,875.8
87672,876.72
87765,877.65
87859,878.59
87950,879.5
88042,880.42
88138,881.38
88235,882.35
88330,883.3
88423,884.23
88519,885.19
88615,886.15
88707,887.07
88799,887.99
88893,888.93
88988,889.88
89084,890.84
89180,891.8
89274,892.74
89370,893.7
89467,894.67
89564,895.64
89656,896.56
89748,897.48
89841,898.41
89935,899.35
90030,900.3
90122,901.22
90215,902.15
90309,903.09
90400,904.0
90490,904.9
90581,905.81
90673,906.73
90764,907.64
90854,908.54
90945,909.45
91037,910.37
91131,911.31
91223,912.23
91314,913.14
91406,914.06
91499,914.99
91591,915.91
91680,916.8
91770,917.7
91860,918.6
91951,919.51
92040,920.4
92129,921.29
92221,922.21
92315,923.15
92407,924.07
92498,924.98
92591,925.91
92680,926.8
92769,927.69
92859,928.59
92951,929.51
93040,930.4
93129,931.29
93220,932.2
93312,933.12
93402,934.02
93491,934.91
93579,935.79
93665,936.65
93747,937.47
93830,938.3
93914,939.14
93998,939.98
94083,940.83
94171,941.71
94261,942.61
94352,943.52
94444,944.44
94535,945.35
94629,946.29
94723,947.23
94815,948.15
94907,949.07
95000,950.0
95093,950.93
95186,951.86
95281,952.81
95376,953.76
95471,954.71
95563,955.63
95656,956.56
95750,957.5
95844,958.44
95938,959.38
96035,960.35
96131,961.31
96229,962.29
96321,963.21
96414,964.14
96507,965.07
96599,965.99
96690,966.9
96781,967.81
96877,968.77
96973,969.73
97066,970.66
97159,971.59
97254,972.54
97351,973.51
97449,974.49
97542,975.42
97635,976.35
97727,977.27
97815,978.15
97902,979.02
97989,979.89
98079,980.79
98166,981.66
98258,982.58
98350,983.5
98442,984.42
98534,985.34
98624,986.24
98713,987.13
98803,988.03
98894,988.94
98985,989.85
99078,990.78
99171,991.71
99261,992.61
99351,993.51
99442,994.42
99535,995.35
99626,996.26
99718,997.18
99810,998.1
99901,999.01
99991,999.91
100083,1000.83
100177,1001.77
100270,1002.7
100362,1003.62
100456,1004.56
100550,1005.5
100638,1006.38
100727,1007.27
100820,1008.2
100912,1009.12
101003,1010.03
101095,1010.95
101189,1011.89
101285,1012.85
101378,1013.78
101472,1014.72
101565,1015.65
101658,1016.58
101748,1017.48
101840,1018.4
101932,1019.32
102023,1020.23
102114,1021.14
102207,1022.07
102300,1023.0
102395,1023.95
102492,1024.92
102586,1025.86
102681,1026.81
102775,1027.75
102868,1028.68
102958,1029.58
103048,1030.48
103139,1031.39
103229,1032.29
103317,1033.17
103406,1034.06
103495,1034.95
103584,1035.84
103673,1036.73
103763,1037.63
103853,1038.53
103943,1039.43
104033,1040.33
104124,1041.24
104214,1042.14
104303,1043.03
104394,1043.94
104485,1044.85
104575,1045.75
104664,1046.64
104755,1047.55
104846,1048.46
104935,1049.35
105021,1050.21
105106,1051.06
105191,1051.91
105277,1052.77
105365,1053.65
105453,1054.53
105543,1055.43
105631,1056.31
105719,1057.19
105806,1058.06
105896,1058.96
105988,1059.88
106079,1060.79
106168,1061.68
106261,1062.61
106355,1063.55
106451,1064.51
106545,1065.45
106641,1066.41
106738,1067.38
106835,1068.35
106931,1069.31
107026,1070.26
107126,1071.26
107225,1072.25
107322,1073.22
107416,1074.16
107510,1075.1
107606,1076.06
107700,1077.0
107792,1077.92
107883,1078.83
107976,1079.76
108072,1080.72
108169,1081.69
108264,1082.64
108357,1083.57
108449,1084.49
108539,1085.39
108629,1086.29
108725,1087.25
108822,1088.22
108920,1089.2
109019,1090.19
109117,1091.17
109214,1092.14
109310,1093.1
109406,1094.06
109499,1094.99
109590,1095.9
109680,1096.8
109768,1097.68
109855,1098.55
109943,1099.43
110034,1100.34
110125,1101.25
110218,1102.18
110311,1103.11
110406,1104.06
110498,1104.98
110591,1105.91
110686,1106.86
110780,1107.8
110875,1108.75
110970,1109.7
111063,1110.63
111156,1111.56
111251,1112.51
111346,1113.46
111439,1114.39
111534,1115.34
111630,1116.3
111726,1117.26
111818,1118.18
111910,1119.1
112004,1120.04
112099,1120.99
112193,1121.93
112286,1122.86
112381,1123.81
112476,1124.76
112568,1125.68
112661,1126.61
112755,1127.55
112848,1128.48
112940,1129.4
113033,1130.33
113128,1131.28
113224,1132.24
113316,1133.16
113410,1134.1
113504,1135.04
113595,1135.95
113687,1136.87
113780,1137.8
113872,1138.72
113964,1139.64
114057,1140.57
114150,1141.5
114244,1142.44
114335,1143.35
114427,1144.27
114520,1145.2
114614,1146.14
114706,1147.06
114800,1148.0
114895,1148.95
114990,1149.9
115084,1150.84
115175,1151.75
115263,1152.63
115347,1153.47
115432,1154.32
115518,1155.18
115605,1156.05
115691,1156.91
115781,1157.81
115873,1158.73
115965,1159.65
116056,1160.56
116150,1161.5
116243,1162.43
116333,1163.33
116425,1164.25
116516,1165.16
116605,1166.05
116697,1166.97
116791,1167.91
116883,1168.83
116975,1169.75
117070,1170.7
117166,1171.66
117258,1172.58
117351,1173.51
117440,1174.4
117525,1175.25
117611,1176.11
117700,1177.0
117790,1177.9
117881,1178.81
117974,1179.74
118068,1180.68
118159,1181.59
118250,1182.5
118343,1183.43
118433,1184.33
118524,1185.24
118618,1186.18
118711,1187.11
118803,1188.03
118897,1188.97
118993,1189.93
119089,1190.89
119183,1191.83
119279,1192.79
119373,1193.73
119464,1194.64
119556,1195.56
119649,1196.49
119741,1197.41
119831,1198.31
119923,1199.23
120016,1200.16
120106,1201.06
120197,1201.97
120290,1202.9
120384,1203.84
120476,1204.76
120569,1205.69
120662,1206.62
120753,1207.53
120843,1208.43
120936,1209.36
121030,1210.3
121123,1211.23
121214,1212.14
121307,1213.07
121399,1213.99
121490,1214.9
121582,1215.82
121672,1216.72
121763,1217.63
121855,1218.55
121946,1219.46
122039,1220.39
122133,1221.33
122224,1222.24
122314,1223.14
122406,1224.06
122500,1225.0
122593,1225.93
122687,1226.87
122782,1227.82
122875,1228.75
122968,1229.68
123061,1230.61
123152,1231.52
123243,1232.43
123333,1233.33
123421,1234.21
123508,1235.08
123594,1235.94
123677,1236.77
123760,1237.6
123844,1238.44
123929,1239.29
124016,1240.16
124103,1241.03
124193,1241.93
124284,1242.84
124373,1243.73
124463,1244.63
124552,1245.52
124640,1246.4
124728,1247.28
124814,1248.14
124898,1248.98
124985,1249.85
125072,1250.72
125160,1251.6
125248,1252.48
125339,1253.39
125432,1254.32
125525,1255.25
125617,1256.17
125711,1257.11
125801,1258.01
125891,1258.91
125979,1259.79
126067,1260.67
126152,1261.52
126239,1262.39
126326,1263.26
126413,1264.13
126502,1265.02
126590,1265.9
126679,1266.79
126769,1267.69
126861,1268.61
126951,1269.51
127042,1270.42
127133,1271.33
127220,1272.2
127303,1273.03
127386,1273.86
127471,1274.71
127556,1275.56
127644,1276.44
127732,1277.32
127821,1278.21
127913,1279.13
128005,1280.05
128095,1280.95
128186,1281.86
128277,1282.77
128369,1283.69
128459,1284.59
128548,1285.48
128640,1286.4
128731,1287.31
128821,1288.21
128912,1289.12
129003,1290.03
129094,1290.94
129185,1291.85
129279,1292.79
129374,1293.74
129465,1294.65
129558,1295.58
129651,1296.51
129743,1297.43
129833,1298.33
129924,1299.24
130015,1300.15
130108,1301.08
130197,1301.97
130287,1302.87
130379,1303.79
130469,1304.69
130557,1305.57
130646,1306.46
130734,1307.34
130820,1308.2
130907,1309.07
130996,1309.96
131084,1310.84
131172,1311.72
131260,1312.6
131347,1313.47
131434,1314.34
131523,1315.23
131612,1316.12
131700,1317.0
131787,1317.87
131873,1318.73
131960,1319.6
132047,1320.47
132133,1321.33
132220,1322.2
132304,1323.04
132389,1323.89
132473,1324.73
132555,1325.55
132638,1326.38
132721,1327.21
132804,1328.04
132888,1328.88
132972,1329.72
133058,1330.58
133144,1331.44
133229,1332.29
133314,1333.14
133399,1333.99
133484,1334.84
133567,1335.67
133648,1336.48
133729,1337.29
133809,1338.09
133887,1338.87
133964,1339.64
134042,1340.42
134121,1341.21
134202,1342.02
134283,1342.83
134366,1343.66
134452,1344.52
134542,1345.42
134635,1346.35
134727,1347.27
134817,1348.17
134909,1349.09
135000,1350.0
135089,1350.89
135177,1351.77
135266,1352.66
135357,1353.57
135447,1354.47
135538,1355.38
135629,1356.29
135724,1357.24
135820,1358.2
135917,1359.17
136010,1360.1
136104,1361.04
136198,1361.98
136292,1362.92
136384,1363.84
136478,1364.78
136571,1365.71
136666,1366.66
136758,1367.58
136851,1368.51
136945,1369.45
137039,1370.39
137133,1371.33
137224,1372.24
137316,1373.16
137410,1374.1
137506,1375.06
137599,1375.99
137691,1376.91
137784,1377.84
137880,1378.8
137977,1379.77
138072,1380.72
138165,1381.65
138259,1382.59
138355,1383.55
138449,1384.49
138540,1385.4
138632,1386.32
138726,1387.26
138819,1388.19
138910,1389.1
139002,1390.02
139095,1390.95
139188,1391.88
139278,1392.78
139368,1393.68
139459,1394.59
139550,1395.5
139638,1396.38
139727,1397.27
139816,1398.16
139904,1399.04
139992,1399.92
140078,1400.78
140163,1401.63
140249,1402.49
140333,1403.33
140416,1404.16
140497,1404.97
140582,1405.82
140668,1406.68
140751,1407.51
140835,1408.35
140917,1409.17
140998,1409.98
141079,1410.79
141160,1411.6
141243,1412.43
141327,1413.27
141413,1414.13
141501,1415.01
141592,1415.92
141685,1416.85
141780,1417.8
141874,1418.74
141968,1419.68
142064,1420.64
142159,1421.59
142252,1422.52
142345,1423.45
142438,1424.38
142529,1425.29
142623,1426.23
142720,1427.2
142819,1428.19
142917,1429.17
143019,1430.19
143120,1431.2
143220,1432.2
143315,1433.15
143407,1434.07
143499,1434.99
143589,1435.89
143678,1436.78
143767,1437.67
143860,1438.6
143956,1439.56
144052,1440.52
144148,1441.48
144242,1442.42
144334,1443.34
144426,1444.26
144521,1445.21
144611,1446.11
144705,1447.05
144802,1448.02
144897,1448.97
144993,1449.93
145080,1450.8
145171,1451.71
145262,1452.62
145348,1453.48
145439,1454.39
145527,1455.27
145612,1456.12
145701,1457.01
145787,1457.87
145870,1458.7
145953,1459.53
146038,1460.38
146126,1461.26
146215,1462.15
146306,1463.06
146397,1463.97
146492,1464.92
146584,1465.84
146675,1466.75
146763,1467.63
146849,1468.49
146935,1469.35
147022,1470.22
147107,1471.07
147194,1471.94
147282,1472.82
147372,1473.72
147462,1474.62
147554,1475.54
147643,1476.43
147734,1477.34
147826,1478.26
147915,1479.15
148008,1480.08
148098,1480.98
148190,1481.9
148282,1482.82
148374,1483.74
148464,1484.64
148554,1485.54
148642,1486.42
148731,1487.31
148820,1488.2
148910,1489.1
148998,1489.98
149087,1490.87
149174,1491.74
149262,1492.62
149352,1493.52
149440,1494.4
149531,1495.31
149619,1496.19
149708,1497.08
149796,1497.96
149881,1498.81
149968,1499.68
150057,1500.57
150146,1501.46
150234,1502.34
150319,1503.19
150402,1504.02
150485,1504.85
150571,1505.71
150657,1506.57
150745,1507.45
150835,1508.35
150928,1509.28
151021,1510.21
151113,1511.13
151206,1512.06
151295,1512.95
151379,1513.79
151465,1514.65
151551,1515.51
151636,1516.36
151725,1517.25
151814,1518.14
151906,1519.06
152001,1520.01
152096,1520.96
152191,1521.91
152283,1522.83
152376,1523.76
152468,1524.68
152561,1525.61
152653,1526.53
152746,1527.46
152840,1528.4
152934,1529.34
153027,1530.27
153120,1531.2
153213,1532.13
153304,1533.04
153397,1533.97
153491,1534.91
153586,1535.86
153681,1536.81
153773,1537.73
153865,1538.65
153958,1539.58
154051,1540.51
154142,1541.42
154232,1542.32
154324,1543.24
154416,1544.16
154511,1545.11
154603,1546.03
154695,1546.95
154789,1547.89
154884,1548.84
154975,1549.75
155066,1550.66
155159,1551.59
155252,1552.52
155345,1553.45
155438,1554.38
155531,1555.31
155624,1556.24
155715,1557.15
155808,1558.08
155901,1559.01
155994,1559.94
156085,1560.85
156174,1561.74
156260,1562.6
156349,1563.49
156438,1564.38
156526,1565.26
156615,1566.15
156701,1567.01
156783,1567.83
156867,1568.67
156950,1569.5
157033,1570.33
157117,1571.17
157202,1572.02
157286,1572.86
157369,1573.69
157454,1574.54
157541,1575.41
157627,1576.27
157711,1577.11
157797,1577.97
157883,1578.83
157968,1579.68
158053,1580.53
158135,1581.35
158215,1582.15
158316,1583.16
158417,1584.17
158507,1585.07
158597,1585.97
158673,1586.73
158749,1587.49
158830,1588.3
158922,1589.22
159011,1590.11
159100,1591.0
159172,1591.72
159242,1592.42
159312,1593.12
159384,1593.84
159455,1594.55
159530,1595.3
159606,1596.06
159679,1596.79
159753,1597.53
159831,1598.31
159909,1599.09
159989,1599.89
160070,1600.7
160153,1601.53
160235,1602.35
160316,1603.16
160402,1604.02
160488,1604.88
160569,1605.69
160647,1606.47
160725,1607.25
160805,1608.05
160887,1608.87
160970,1609.7
161049,1610.49
161126,1611.26
161204,1612.04
161287,1612.87
161372,1613.72
161461,1614.61
161553,1615.53
161646,1616.46
161741,1617.41
161835,1618.35
161929,1619.29
162022,1620.22
162114,1621.14
162204,1622.04
162293,1622.93
162388,1623.88
162485,1624.85
162582,1625.82
162681,1626.81
162777,1627.77
162871,1628.71
162965,1629.65
163058,1630.58
163149,1631.49
163238,1632.38
163327,1633.27
163416,1634.16
163506,1635.06
163597,1635.97
163688,1636.88
163780,1637.8
163874,1638.74
163968,1639.68
164062,1640.62
164155,1641.55
164247,1642.47
164339,1643.39
164430,1644.3
164521,1645.21
164613,1646.13
164708,1647.08
164802,1648.02
164895,1648.95
164990,1649.9
165086,1650.86
165183,1651.83
165276,1652.76
165370,1653.7
165464,1654.64
165559,1655.59
165652,1656.52
165744,1657.44
165839,1658.39
165934,1659.34
166027,1660.27
166119,1661.19
166213,1662.13
166305,1663.05
166393,1663.93
166481,1664.81
166570,1665.7
166660,1666.6
166753,1667.53
166849,1668.49
166946,1669.46
167039,1670.39
167133,1671.33
167228,1672.28
167322,1673.22
167414,1674.14
167509,1675.09
167608,1676.08
167705,1677.05
167801,1678.01
167896,1678.96
167993,1679.93
168091,1680.91
168188,1681.88
168283,1682.83
168380,1683.8
168478,1684.78
168577,1685.77
168673,1686.73
168768,1687.68
168864,1688.64
168959,1689.59
169051,1690.51
169143,1691.43
169237,1692.37
169331,1693.31
169427,1694.27
169522,1695.22
169620,1696.2
169719,1697.19
169818,1698.18
169915,1699.15
170012,1700.12
170109,1701.09
170208,1702.08
170306,1703.06
170402,1704.02
170497,1704.97
170591,1705.91
170688,1706.88
170786,1707.86
170882,1708.82
170977,1709.77
171074,1710.74
171172,1711.72
171270,1712.7
171366,1713.66
171459,1714.59
171553,1715.53
171649,1716.49
171744,1717.44
171840,1718.4
171930,1719.3
172021,1720.21
172111,1721.11
172199,1721.99
172283,1722.83
172366,1723.66
172449,1724.49
172532,1725.32
172619,1726.19
172706,1727.06
172796,1727.96
172884,1728.84
172974,1729.74
173066,1730.66
173160,1731.6
173252,1732.52
173343,1733.43
173435,1734.35
173528,1735.28
173621,1736.21
173713,1737.13
173803,1738.03
173895,1738.95
173988,1739.88
174079,1740.79
174169,1741.69
174259,1742.59
174350,1743.5
174441,1744.41
174532,1745.32
174622,1746.22
174713,1747.13
174804,1748.04
174896,1748.96
174987,1749.87
175076,1750.76
175167,1751.67
175259,1752.59
175350,1753.5
175440,1754.4
175530,1755.3
175621,1756.21
175714,1757.14
175805,1758.05
175894,1758.94
175984,1759.84
176075,1760.75
176166,1761.66
176256,1762.56
176345,1763.45
176438,1764.38
176532,1765.32
176626,1766.26
176718,1767.18
176810,1768.1
176904,1769.04
176997,1769.97
177089,1770.89
177179,1771.79
177270,1772.7
177362,1773.62
177454,1774.54
177544,1775.44
177635,1776.35
177728,1777.28
177822,1778.22
177912,1779.12
178001,1780.01
178091,1780.91
178181,1781.81
178273,1782.73
178362,1783.62
178453,1784.53
178546,1785.46
178639,1786.39
178731,1787.31
178821,1788.21
178912,1789.12
179003,1790.03
179094,1790.94
179182,1791.82
179270,1792.7
179359,1793.59
179450,1794.5
179542,1795.42
179633,1796.33
179724,1797.24
179817,1798.17
179910,1799.1
180000,1800.0
180089,1800.89
180179,1801.79
180269,1802.69
180356,1803.56
180443,1804.43
180532,1805.32
180623,1806.23
180715,1807.15
180805,1808.05
180895,1808.95
180988,1809.88
181081,1810.81
181172,1811.72
181262,1812.62
181355,1813.55
181450,1814.5
181544,1815.44
181636,1816.36
181727,1817.27
181820,1818.2
181914,1819.14
182010,1820.1
182106,1821.06
182202,1822.02
182302,1823.02
182402,1824.02
182497,1824.97
182595,1825.95
182691,1826.91
182789,1827.89
182883,1828.83
182976,1829.76
183070,1830.7
183165,1831.65
183259,1832.59
183351,1833.51
183445,1834.45
183541,1835.41
183639,1836.39
183735,1837.35
183829,1838.29
183925,1839.25
184022,1840.22
184118,1841.18
184213,1842.13
184308,1843.08
184404,1844.04
184499,1844.99
184592,1845.92
184684,1846.84
184778,1847.78
184873,1848.73
184968,1849.68
185062,1850.62
185156,1851.56
185252,1852.52
185350,1853.5
185444,1854.44
185537,1855.37
185632,1856.32
185729,1857.29
185824,1858.24
185918,1859.18
186010,1860.1
186105,1861.05
186200,1862.0
186290,1862.9
186381,1863.81
186474,1864.74
186569,1865.69
186664,1866.64
186757,1867.57
186849,1868.49
186943,1869.43
187038,1870.38
187131,1871.31
187223,1872.23
187318,1873.18
187413,1874.13
187508,1875.08
187602,1876.02
187694,1876.94
187788,1877.88
187883,1878.83
187977,1879.77
188069,1880.69
188159,1881.59
188254,1882.54
188349,1883.49
188445,1884.45
188537,1885.37
188627,1886.27
188719,1887.19
188811,1888.11
188903,1889.03
188993,1889.93
189084,1890.84
189178,1891.78
189274,1892.74
189371,1893.71
189464,1894.64
189558,1895.58
189653,1896.53
189747,1897.47
189838,1898.38
189927,1899.27
190017,1900.17
190108,1901.08
190200,1902.0
190291,1902.91
190382,1903.82
190476,1904.76
190571,1905.71
190664,1906.64
190756,1907.56
190849,1908.49
190943,1909.43
191035,1910.35
191126,1911.26
191215,1912.15
191306,1913.06
191398,1913.98
191492,1914.92
191584,1915.84
191675,1916.75
191766,1917.66
191858,1918.58
191950,1919.5
192040,1920.4
192129,1921.29
192220,1922.2
192312,1923.12
192403,1924.03
192492,1924.92
192583,1925.83
192677,1926.77
192770,1927.7
192862,1928.62
192952,1929.52
193044,1930.44
193136,1931.36
193227,1932.27
193317,1933.17
193407,1934.07
193498,1934.98
193589,1935.89
193678,1936.78
193766,1937.66
193856,1938.56
193947,1939.47
194039,1940.39
194129,1941.29
194219,1942.19
194310,1943.1
194399,1943.99
194485,1944.85
194572,1945.72
194660,1946.6
194747,1947.47
194831,1948.31
194914,1949.14
194995,1949.95
195073,1950.73
195153,1951.53
195232,1952.32
195312,1953.12
195395,1953.95
195480,1954.8
195569,1955.69
195658,1956.58
195747,1957.47
195838,1958.38
195930,1959.3
196020,1960.2
196109,1961.09
196199,1961.99
196288,1962.88
196376,1963.76
196464,1964.64
196553,1965.53
196643,1966.43
196734,1967.34
196823,1968.23
196912,1969.12
197004,1970.04
197098,1970.98
197192,1971.92
197284,1972.84
197376,1973.76
197469,1974.69
197562,1975.62
197654,1976.54
197744,1977.44
197833,1978.33
197923,1979.23
198015,1980.15
198109,1981.09
198199,1981.99
198290,1982.9
198382,1983.82
198476,1984.76
198568,1985.68
198660,1986.6
198750,1987.5
198843,1988.43
198937,1989.37
199032,1990.32
199126,1991.26
199226,1992.26
199327,1993.27
199429,1994.29
199525,1995.25
199621,1996.21
199719,1997.19
199824,1998.24
199925,1999.25
200029,2000.29
200125,2001.25
200221,2002.21
200316,2003.16
200408,2004.08
200499,2004.99
200590,2005.9
200680,2006.8
200769,2007.69
200855,2008.55
200940,2009.4
201025,2010.25
201111,2011.11
201199,2011.99
201288,2012.88
201375,2013.75
201464,2014.64
201556,2015.56
201649,2016.49
201742,2017.42
201835,2018.35
201931,2019.31
202030,2020.3
202132,2021.32
202227,2022.27
202323,2023.23
202420,2024.2
202519,2025.19
202618,2026.18
202714,2027.14
202808,2028.08
202904,2029.04
203000,2030.0
203097,2030.97
203190,2031.9
203285,2032.85
203381,2033.81
203479,2034.79
203576,2035.76
203672,2036.72
203768,2037.68
203864,2038.64
203961,2039.61
204056,2040.56
204150,2041.5
204244,2042.44
204341,2043.41
204443,2044.43
204545,2045.45
204643,2046.43
204743,2047.43
204846,2048.46
204950,2049.5
205046,2050.46
205138,2051.38
205232,2052.32
205327,2053.27
205423,2054.23
205519,2055.19
205615,2056.15
205715,2057.15
205817,2058.17
205916,2059.16
206010,2060.1
206103,2061.03
206196,2061.96
206288,2062.88
206376,2063.76
206465,2064.65
206555,2065.55
206646,2066.46
206737,2067.37
206827,2068.27
206916,2069.16
207008,2070.08
207103,2071.03
207196,2071.96
207290,2072.9
207385,2073.85
207482,2074.82
207577,2075.77
207670,2076.7
207762,2077.62
207857,2078.57
207952,2079.52
208045,2080.45
208137,2081.37
208229,2082.29
208324,2083.24
208417,2084.17
208509,2085.09
208599,2085.99
208691,2086.91
208784,2087.84
208877,2088.77
208968,2089.68
209058,2090.58
209150,2091.5
209243,2092.43
209333,2093.33
209422,2094.22
209511,2095.11
209602,2096.02
209694,2096.94
209786,2097.86
209876,2098.76
209969,2099.69
210062,2100.62
210156,2101.56
210247,2102.47
210337,2103.37
210429,2104.29
210521,2105.21
210612,2106.12
210702,2107.02
210790,2107.9
210879,2108.79
210970,2109.7
211063,2110.63
211153,2111.53
211242,2112.42
211333,2113.33
211424,2114.24
211517,2115.17
211607,2116.07
211697,2116.97
211789,2117.89
211880,2118.8
212083,2120.83
212357,2123.57
212499,2124.99
212652,2126.52
212806,2128.06
212901,2129.01
212992,2129.92
213084,2130.84
213176,2131.76
213269,2132.69
213359,2133.59
213448,2134.48
213538,2135.38
213630,2136.3
213721,2137.21
213811,2138.11
213900,2139.0
213992,2139.92
214084,2140.84
214175,2141.75
214264,2142.64
214353,2143.53
214445,2144.45
214538,2145.38
214629,2146.29
214720,2147.2
214810,2148.1
214904,2149.04
214998,2149.98
215090,2150.9
215180,2151.8
215273,2152.73
215366,2153.66
215460,2154.6
215552,2155.52
215644,2156.44
215738,2157.38
215834,2158.34
215931,2159.31
216026,2160.26
216118,2161.18
216212,2162.12
216307,2163.07
216401,2164.01
216494,2164.94
216586,2165.86
216676,2166.76
216769,2167.69
216863,2168.63
216958,2169.58
217050,2170.5
217143,2171.43
217236,2172.36
217330,2173.3
217425,2174.25
217516,2175.16
217607,2176.07
217699,2176.99
217793,2177.93
217888,2178.88
217982,2179.82
218075,2180.75
218170,2181.7
218266,2182.66
218360,2183.6
218454,2184.54
218546,2185.46
218639,2186.39
218732,2187.32
218826,2188.26
218917,2189.17
219007,2190.07
219098,2190.98
219189,2191.89
219282,2192.82
219373,2193.73
219463,2194.63
219555,2195.55
219649,2196.49
219744,2197.44
219835,2198.35
219926,2199.26
220018,2200.18
220112,2201.12
220207,2202.07
220297,2202.97
220388,2203.88
220480,2204.8
220573,2205.73
220667,2206.67
220758,2207.58
220848,2208.48
220940,2209.4
221032,2210.32
221123,2211.23
221213,2212.13
221302,2213.02
221392,2213.92
221482,2214.82
221570,2215.7
221659,2216.59
221749,2217.49
221840,2218.4
221930,2219.3
222020,2220.2
222109,2221.09
222200,2222.0
222291,2222.91
222379,2223.79
222467,2224.67
222557,2225.57
222646,2226.46
222736,2227.36
222823,2228.23
222911,2229.11
223000,2230.0
223090,2230.9
223178,2231.78
223266,2232.66
223356,2233.56
223447,2234.47
223539,2235.39
223628,2236.28
223716,2237.16
223806,2238.06
223896,2238.96
223983,2239.83
224069,2240.69
224156,2241.56
224243,2242.43
224331,2243.31
224417,2244.17
224504,2245.04
224593,2245.93
224682,2246.82
224768,2247.68
224855,2248.55
224943,2249.43
225033,2250.33
225120,2251.2
225206,2252.06
225293,2252.93
225381,2253.81
225469,2254.69
225556,2255.56
225642,2256.42
225733,2257.33
225829,2258.29
225925,2259.25
226020,2260.2
226114,2261.14
226208,2262.08
226303,2263.03
226394,2263.94
226484,2264.84
226575,2265.75
226667,2266.67
226759,2267.59
226849,2268.49
226939,2269.39
227032,2270.32
227126,2271.26
227217,2272.17
227308,2273.08
227401,2274.01
227495,2274.95
227589,2275.89
227681,2276.81
227773,2277.73
227866,2278.66
227960,2279.6
228054,2280.54
228146,2281.46
228238,2282.38
228330,2283.3
228422,2284.22
228512,2285.12
228600,2286.0
228687,2286.87
228777,2287.77
228868,2288.68
228958,2289.58
229047,2290.47
229138,2291.38
229231,2292.31
229324,2293.24
229415,2294.15
229505,2295.05
229597,2295.97
229688,2296.88
229778,2297.78
229866,2298.66
229954,2299.54
230043,2300.43
230132,2301.32
230219,2302.19
230305,2303.05
230393,2303.93
230482,2304.82
230571,2305.71
230659,2306.59
230747,2307.47
230836,2308.36
230925,2309.25
231014,2310.14
231102,2311.02
231188,2311.88
231277,2312.77
231368,2313.68
231459,2314.59
231547,2315.47
231636,2316.36
231727,2317.27
231821,2318.21
231913,2319.13
232004,2320.04
232094,2320.94
232186,2321.86
232279,2322.79
232371,2323.71
232462,2324.62
232552,2325.52
232644,2326.44
232736,2327.36
232826,2328.26
232915,2329.15
233006,2330.06
233098,2330.98
233191,2331.91
233281,2332.81
233371,2333.71
233461,2334.61
233553,2335.53
233644,2336.44
233735,2337.35
233825,2338.25
233918,2339.18
234011,2340.11
234106,2341.06
234198,2341.98
234288,2342.88
234380,2343.8
234473,2344.73
234566,2345.66
234655,2346.55
234745,2347.45
234837,2348.37
234930,2349.3
235024,2350.24
235116,2351.16
235207,2352.07
235300,2353.0
235394,2353.94
235489,2354.89
235581,2355.81
235672,2356.72
235765,2357.65
235860,2358.6
235952,2359.52
236043,2360.43
236134,2361.34
236228,2362.28
236322,2363.22
236414,2364.14
236505,2365.05
236598,2365.98
236692,2366.92
236785,2367.85
236875,2368.75
236965,2369.65
237058,2370.58
237150,2371.5
237242,2372.42
237332,2373.32
237423,2374.23
237516,2375.16
237610,2376.1
237702,2377.02
237792,2377.92
237885,2378.85
237981,2379.81
238077,2380.77
238169,2381.69
238260,2382.6
238353,2383.53
238446,2384.46
238540,2385.4
238630,2386.3
238720,2387.2
238812,2388.12
238905,2389.05
238997,2389.97
239088,2390.88
239178,2391.78
239272,2392.72
239366,2393.66
239458,2394.58
239548,2395.48
239638,2396.38
239730,2397.3
239822,2398.22
239915,2399.15
240005,2400.05
240096,2400.96
240187,2401.87
240279,2402.79
240369,2403.69
240456,2404.56
240544,2405.44
240630,2406.3
240712,2407.12
240793,2407.93
240871,2408.71
240949,2409.49
241030,2410.3
241114,2411.14
241200,2412.0
241285,2412.85
241371,2413.71
241458,2414.58
241547,2415.47
241637,2416.37
241725,2417.25
241812,2418.12
241899,2418.99
241988,2419.88
242077,2420.77
242164,2421.64
242252,2422.52
242341,2423.41
242432,2424.32
242523,2425.23
242613,2426.13
242701,2427.01
242791,2427.91
242882,2428.82
242972,2429.72
243059,2430.59
243146,2431.46
243234,2432.34
243322,2433.22
243410,2434.1
243497,2434.97
243584,2435.84
243672,2436.72
243761,2437.61
243851,2438.51
243938,2439.38
244026,2440.26
244114,2441.14
244203,2442.03
244293,2442.93
244381,2443.81
244469,2444.69
244558,2445.58
244648,2446.48
244736,2447.36
244822,2448.22
244909,2449.09
244997,2449.97
245085,2450.85
245172,2451.72
245258,2452.58
245345,2453.45
245433,2454.33
245522,2455.22
245608,2456.08
245693,2456.93
245780,2457.8
245868,2458.68
245955,2459.55
246042,2460.42
246130,2461.3
246220,2462.2
246310,2463.1
246399,2463.99
246486,2464.86
246574,2465.74
246662,2466.62
246750,2467.5
246837,2468.37
246922,2469.22
247008,2470.08
247097,2470.97
247184,2471.84
247271,2472.71
247359,2473.59
247446,2474.46
247531,2475.31
247614,2476.14
247695,2476.95
247774,2477.74
247854,2478.54
247935,2479.35
248020,2480.2
248107,2481.07
248195,2481.95
248282,2482.82
248370,2483.7
248461,2484.61
248553,2485.53
248645,2486.45
248735,2487.35
248825,2488.25
248918,2489.18
249010,2490.1
249102,2491.02
249192,2491.92
249283,2492.83
249378,2493.78
249473,2494.73
249568,2495.68
249660,2496.6
249753,2497.53
249847,2498.47
249941,2499.41
250032,2500.32
250123,2501.23
250215,2502.15
250308,2503.08
250400,2504.0
250491,2504.91
250582,2505.82
250675,2506.75
250770,2507.7
250866,2508.66
250959,2509.59
251052,2510.52
251147,2511.47
251243,2512.43
251335,2513.35
251426,2514.26
251516,2515.16
251606,2516.06
251698,2516.98
251787,2517.87
251876,2518.76
251966,2519.66
252058,2520.58
252149,2521.49
252238,2522.38
252328,2523.28
252420,2524.2
252514,2525.14
252606,2526.06
252699,2526.99
252794,2527.94
252891,2528.91
252989,2529.89
253083,2530.83
253177,2531.77
253272,2532.72
253369,2533.69
253466,2534.66
253561,2535.61
253657,2536.57
253759,2537.59
253863,2538.63
253966,2539.66
254064,2540.64
254161,2541.61
254259,2542.59
254356,2543.56
254454,2544.54
254551,2545.51
254646,2546.46
254742,2547.42
254839,2548.39
254936,2549.36
255030,2550.3
255123,2551.23
255217,2552.17
255312,2553.12
255410,2554.1
255508,2555.08
255604,2556.04
255698,2556.98
255793,2557.93
255890,2558.9
255986,2559.86
256083,2560.83
256177,2561.77
256269,2562.69
256362,2563.62
256455,2564.55
256549,2565.49
256642,2566.42
256737,2567.37
256832,2568.32
256928,2569.28
257025,2570.25
257116,2571.16
257206,2572.06
257297,2572.97
257388,2573.88
257477,2574.77
257566,2575.66
257654,2576.54
257746,2577.46
257838,2578.38
257928,2579.28
258018,2580.18
258110,2581.1
258203,2582.03
258296,2582.96
258385,2583.85
258474,2584.74
258563,2585.63
258653,2586.53
258744,2587.44
258832,2588.32
258921,2589.21
259011,2590.11
259103,2591.03
259195,2591.95
259284,2592.84
259373,2593.73
259464,2594.64
259554,2595.54
259644,2596.44
259733,2597.33
259822,2598.22
259912,2599.12
260005,2600.05
260097,2600.97
260187,2601.87
260277,2602.77
260367,2603.67
260459,2604.59
260551,2605.51
260642,2606.42
260731,2607.31
260823,2608.23
260914,2609.14
261009,2610.09
261104,2611.04
261197,2611.97
261288,2612.88
261382,2613.82
261476,2614.76
261571,2615.71
261665,2616.65
261756,2617.56
261848,2618.48
261942,2619.42
262037,2620.37
262131,2621.31
262223,2622.23
262312,2623.12
262403,2624.03
262495,2624.95
262588,2625.88
262679,2626.79
262769,2627.69
262861,2628.61
262953,2629.53
263046,2630.46
263137,2631.37
263227,2632.27
263317,2633.17
263409,2634.09
263501,2635.01
263591,2635.91
263680,2636.8
263771,2637.71
263862,2638.62
263954,2639.54
264044,2640.44
264134,2641.34
264226,2642.26
264320,2643.2
264415,2644.15
264508,2645.08
264600,2646.0
264693,2646.93
264787,2647.87
264881,2648.81
264978,2649.78
265073,2650.73
265168,2651.68
265263,2652.63
265360,2653.6
265458,2654.58
265551,2655.51
265644,2656.44
265734,2657.34
265826,2658.26
265919,2659.19
266011,2660.11
266102,2661.02
266191,2661.91
266282,2662.82
266375,2663.75
266467,2664.67
266557,2665.57
266647,2666.47
266741,2667.41
266836,2668.36
266929,2669.29
267020,2670.2
267110,2671.1
267201,2672.01
267293,2672.93
267385,2673.85
267477,2674.77
267569,2675.69
267664,2676.64
267760,2677.6
267855,2678.55
267948,2679.48
268039,2680.39
268130,2681.3
268223,2682.23
268317,2683.17
268408,2684.08
268498,2684.98
268590,2685.9
268683,2686.83
268777,2687.77
268868,2688.68
268959,2689.59
269051,2690.51
269145,2691.45
269240,2692.4
269337,2693.37
269433,2694.33
269526,2695.26
269619,2696.19
269715,2697.15
269811,2698.11
269909,2699.09
270005,2700.05
270100,2701.0
270193,2701.93
270290,2702.9
270386,2703.86
270486,2704.86
270586,2705.86
270683,2706.83
270776,2707.76
270869,2708.69
270964,2709.64
271060,2710.6
271157,2711.57
271251,2712.51
271344,2713.44
271437,2714.37
271534,2715.34
271632,2716.32
271731,2717.31
271827,2718.27
271923,2719.23
272019,2720.19
272115,2721.15
272209,2722.09
272302,2723.02
272400,2724.0
272498,2724.98
272594,2725.94
272688,2726.88
272780,2727.8
272875,2728.75
272971,2729.71
273068,2730.68
273163,2731.63
273257,2732.57
273347,2733.47
273439,2734.39
273531,2735.31
273626,2736.26
273724,2737.24
273819,2738.19
273912,2739.12
274003,2740.03
274094,2740.94
274187,2741.87
274284,2742.84
274382,2743.82
274477,2744.77
274570,2745.7
274663,2746.63
274758,2747.58
274854,2748.54
274953,2749.53
275052,2750.52
275150,2751.5
275248,2752.48
275346,2753.46
275448,2754.48
275550,2755.5
275647,2756.47
275742,2757.42
275838,2758.38
275935,2759.35
276032,2760.32
276125,2761.25
276218,2762.18
276313,2763.13
276409,2764.09
276504,2765.04
276597,2765.97
276690,2766.9
276785,2767.85
276883,2768.83
276983,2769.83
277082,2770.82
277179,2771.79
277272,2772.72
277366,2773.66
277461,2774.61
277556,2775.56
277651,2776.51
277744,2777.44
277836,2778.36
277927,2779.27
278021,2780.21
278115,2781.15
278210,2782.1
278304,2783.04
278401,2784.01
278498,2784.98
278596,2785.96
278694,2786.94
278791,2787.91
278885,2788.85
278976,2789.76
279068,2790.68
279162,2791.62
279258,2792.58
279352,2793.52
279446,2794.46
279541,2795.41
279641,2796.41
279741,2797.41
279839,2798.39
279931,2799.31
280025,2800.25
280119,2801.19
280214,2802.14
280311,2803.11
280406,2804.06
280501,2805.01
280596,2805.96
280693,2806.93
280790,2807.9
280886,2808.86
280984,2809.84
281079,2810.79
281173,2811.73
281264,2812.64
281354,2813.54
281446,2814.46
281539,2815.39
281634,2816.34
281727,2817.27
281819,2818.19
281912,2819.12
282008,2820.08
282106,2821.06
282199,2821.99
282292,2822.92
282383,2823.83
282471,2824.71
282561,2825.61
282653,2826.53
282749,2827.49
282848,2828.48
282947,2829.47
283043,2830.43
283137,2831.37
283228,2832.28
283318,2833.18
283410,2834.1
283505,2835.05
283600,2836.0
283697,2836.97
283790,2837.9
283883,2838.83
283978,2839.78
284074,2840.74
284171,2841.71
284264,2842.64
284357,2843.57
284452,2844.52
284550,2845.5
284649,2846.49
284748,2847.48
284842,2848.42
284937,2849.37
285033,2850.33
285129,2851.29
285223,2852.23
285316,2853.16
285411,2854.11
285504,2855.04
285598,2855.98
285696,2856.96
285797,2857.97
285900,2859.0
286001,2860.01
286098,2860.98
286192,2861.92
286289,2862.89
286384,2863.84
286481,2864.81
286577,2865.77
286670,2866.7
286762,2867.62
286851,2868.51
286941,2869.41
287033,2870.33
287128,2871.28
287228,2872.28
287325,2873.25
287421,2874.21
287513,2875.13
287607,2876.07
287703,2877.03
287798,2877.98
287891,2878.91
287983,2879.83
288073,2880.73
288162,2881.62
288253,2882.53
288346,2883.46
288440,2884.4
288535,2885.35
288628,2886.28
288720,2887.2
288810,2888.1
288901,2889.01
288993,2889.93
289085,2890.85
289175,2891.75
289266,2892.66
289356,2893.56
289449,2894.49
289542,2895.42
289640,2896.4
289737,2897.37
289832,2898.32
289925,2899.25
290016,2900.16
290109,2901.09
290203,2902.03
290299,2902.99
290395,2903.95
290490,2904.9
290582,2905.82
290672,2906.72
290764,2907.64
290858,2908.58
290952,2909.52
291047,2910.47
291142,2911.42
291234,2912.34
291324,2913.24
291416,2914.16
291508,2915.08
291601,2916.01
291696,2916.96
291787,2917.87
291879,2918.79
291969,2919.69
292061,2920.61
292156,2921.56
292253,2922.53
292352,2923.52
292448,2924.48
292542,2925.42
292633,2926.33
292726,2927.26
292820,2928.2
292915,2929.15
293008,2930.08
293100,2931.0
293191,2931.91
293287,2932.87
293385,2933.85
293485,2934.85
293581,2935.81
293674,2936.74
293767,2937.67
293861,2938.61
293954,2939.54
294045,2940.45
294134,2941.34
294224,2942.24
294315,2943.15
294409,2944.09
294500,2945.0
294591,2945.91
294679,2946.79
294765,2947.65
294847,2948.47
294938,2949.38
295027,2950.27
295118,2951.18
295210,2952.1
295301,2953.01
295396,2953.96
295492,2954.92
295588,2955.88
295681,2956.81
295772,2957.72
295863,2958.63
295954,2959.54
296046,2960.46
296137,2961.37
296224,2962.24
296312,2963.12
296402,2964.02
296492,2964.92
296583,2965.83
296672,2966.72
296761,2967.61
296852,2968.52
296943,2969.43
297033,2970.33
297123,2971.23
297212,2972.12
297304,2973.04
297395,2973.95
297485,2974.85
297575,2975.75
297663,2976.63
297749,2977.49
297838,2978.38
297931,2979.31
298023,2980.23
298117,2981.17
298207,2982.07
298296,2982.96
298381,2983.81
298468,2984.68
298556,2985.56
298647,2986.47
298737,2987.37
298826,2988.26
298914,2989.14
299003,2990.03
299093,2990.93
299186,2991.86
299277,2992.77
299366,2993.66
299457,2994.57
299549,2995.49
299642,2996.42
299733,2997.33
299822,2998.22
299913,2999.13
300007,3000.07
300102,3001.02
300198,3001.98
300289,3002.89
300379,3003.79
300470,3004.7
300562,3005.62
300654,3006.54
300743,3007.43
300830,3008.3
300917,3009.17
301006,3010.06
301095,3010.95
301183,3011.83
301269,3012.69
301356,3013.56
301447,3014.47
301539,3015.39
301627,3016.27
301715,3017.15
301804,3018.04
301897,3018.97
301988,3019.88
302077,3020.77
302163,3021.63
302251,3022.51
302333,3023.33
302415,3024.15
302498,3024.98
302579,3025.79
302658,3026.58
302737,3027.37
302815,3028.15
302890,3028.9
302963,3029.63
303037,3030.37
303111,3031.11
303185,3031.85
303258,3032.58
303333,3033.33
303410,3034.1
303488,3034.88
303567,3035.67
303648,3036.48
303734,3037.34
303823,3038.23
303917,3039.17
304013,3040.13
304105,3041.05
304196,3041.96
304291,3042.91
304385,3043.85
304480,3044.8
304574,3045.74
304664,3046.64
304754,3047.54
304844,3048.44
304935,3049.35
305027,3050.27
305118,3051.18
305206,3052.06
305293,3052.93
305380,3053.8
305469,3054.69
305559,3055.59
305653,3056.53
305743,3057.43
305832,3058.32
305921,3059.21
306012,3060.12
306105,3061.05
306194,3061.94
306282,3062.82
306370,3063.7
306461,3064.61
306553,3065.53
306649,3066.49
306740,3067.4
306830,3068.3
306918,3069.18
307005,3070.05
307095,3070.95
307188,3071.88
307277,3072.77
307366,3073.66
307458,3074.58
307553,3075.53
307646,3076.46
307737,3077.37
307832,3078.32
307926,3079.26
308016,3080.16
308104,3081.04
308187,3081.87
308273,3082.73
308356,3083.56
308439,3084.39
308519,3085.19
308595,3085.95
308674,3086.74
308755,3087.55
308838,3088.38
308921,3089.21
309005,3090.05
309091,3090.91
309179,3091.79
309264,3092.64
309349,3093.49
309437,3094.37
309530,3095.3
309625,3096.25
309723,3097.23
309814,3098.14
309905,3099.05
309999,3099.99
310093,3100.93
310188,3101.88
310280,3102.8
310372,3103.72
310469,3104.69
310567,3105.67
310663,3106.63
310757,3107.57
310853,3108.53
310950,3109.5
311049,3110.49
311142,3111.42
311233,3112.33
311322,3113.22
311411,3114.11
311501,3115.01
311593,3115.93
311683,3116.83
311772,3117.72
311859,3118.59
311946,3119.46
312037,3120.37
312131,3121.31
312221,3122.21
312310,3123.1
312400,3124.0
312494,3124.94
312590,3125.9
312681,3126.81
312769,3127.69
312862,3128.62
312955,3129.55
313046,3130.46
313132,3131.32
313221,3132.21
313309,3133.09
313397,3133.97
313480,3134.8
313564,3135.64
313647,3136.47
313729,3137.29
313809,3138.09
313888,3138.88
313963,3139.63
314043,3140.43
314124,3141.24
314205,3142.05
314286,3142.86
314368,3143.68
314455,3144.55
314545,3145.45
314638,3146.38
314728,3147.28
314817,3148.17
314906,3149.06
314997,3149.97
315089,3150.89
315184,3151.84
315274,3152.74
315364,3153.64
315457,3154.57
315551,3155.51
315648,3156.48
315747,3157.47
315841,3158.41
315932,3159.32
316023,3160.23
316115,3161.15
316206,3162.06
316298,3162.98
316387,3163.87
316476,3164.76
316565,3165.65
316658,3166.58
316754,3167.54
316853,3168.53
316947,3169.47
317040,3170.4
317130,3171.3
317221,3172.21
317316,3173.16
317415,3174.15
317516,3175.16
317613,3176.13
317707,3177.07
317802,3178.02
317899,3178.99
317995,3179.95
318087,3180.87
318175,3181.75
318265,3182.65
318359,3183.59
318454,3184.54
318547,3185.47
318638,3186.38
318728,3187.28
318825,3188.25
318925,3189.25
319021,3190.21
319111,3191.11
319196,3191.96
319285,3192.85
319371,3193.71
319452,3194.52
319533,3195.33
319618,3196.18
319701,3197.01
319781,3197.81
319858,3198.58
319936,3199.36
320019,3200.19
320102,3201.02
320183,3201.83
320265,3202.65
320351,3203.51
320438,3204.38
320528,3205.28
320613,3206.13
320699,3206.99
320784,3207.84
320870,3208.7
320958,3209.58
321047,3210.47
321133,3211.33
321219,3212.19
321307,3213.07
321397,3213.97
321491,3214.91
321586,3215.86
321677,3216.77
321767,3217.67
321858,3218.58
321949,3219.49
322041,3220.41
322134,3221.34
322225,3222.25
322315,3223.15
322403,3224.03
322493,3224.93
322585,3225.85
322679,3226.79
322770,3227.7
322862,3228.62
322952,3229.52
323044,3230.44
323137,3231.37
323233,3232.33
323326,3233.26
323417,3234.17
323505,3235.05
323594,3235.94
323686,3236.86
323783,3237.83
323875,3238.75
323965,3239.65
324050,3240.5
324141,3241.41
324232,3242.32
324319,3243.19
324402,3244.02
324485,3244.85
324573,3245.73
324660,3246.6
324749,3247.49
324835,3248.35
324918,3249.18
325010,3250.1
325104,3251.04
325195,3251.95
325283,3252.83
325370,3253.7
325458,3254.58
325542,3255.42
325626,3256.26
325706,3257.06
325787,3257.87
325867,3258.67
325945,3259.45
326020,3260.2
326099,3260.99
326179,3261.79
326257,3262.57
326336,3263.36
326418,3264.18
326501,3265.01
326582,3265.82
326663,3266.63
326747,3267.47
326833,3268.33
326921,3269.21
327008,3270.08
327094,3270.94
327185,3271.85
327282,3272.82
327384,3273.84
327490,3274.9
327590,3275.9
327685,3276.85
327780,3277.8
327876,3278.76
327972,3279.72
328069,3280.69
328162,3281.62
328256,3282.56
328351,3283.51
328446,3284.46
328544,3285.44
328639,3286.39
328733,3287.33
328830,3288.3
328928,3289.28
329027,3290.27
329122,3291.22
329216,3292.16
329307,3293.07
329400,3294.0
329494,3294.94
329588,3295.88
329681,3296.81
329771,3297.71
329860,3298.6
329947,3299.47
330036,3300.36
330130,3301.3
330229,3302.29
330326,3303.26
330420,3304.2
330519,3305.19
330618,3306.18
330716,3307.16
330811,3308.11
330904,3309.04
330993,3309.93
331085,3310.85
331180,3311.8
331277,3312.77
331370,3313.7
331463,3314.63
331554,3315.54
331649,3316.49
331747,3317.47
331844,3318.44
331935,3319.35
332024,3320.24
332111,3321.11
332201,3322.01
332293,3322.93
332381,3323.81
332466,3324.66
332557,3325.57
332648,3326.48
332738,3327.38
332823,3328.23
332908,3329.08
332995,3329.95
333077,3330.77
333156,3331.56
333240,3332.4
333323,3333.23
333403,3334.03
333486,3334.86
333569,3335.69
333648,3336.48
333728,3337.28
333810,3338.1
333892,3338.92
333973,3339.73
334053,3340.53
334131,3341.31
334208,3342.08
334286,3342.86
334363,3343.63
334442,3344.42
334524,3345.24
334611,3346.11
334700,3347.0
334788,3347.88
334876,3348.76
334967,3349.67
335059,3350.59
335153,3351.53
335246,3352.46
335336,3353.36
335424,3354.24
335514,3355.14
335605,3356.05
335698,3356.98
335792,3357.92
335881,3358.81
335969,3359.69
336055,3360.55
336142,3361.42
336231,3362.31
336325,3363.25
336416,3364.16
336506,3365.06
336595,3365.95
336681,3366.81
336769,3367.69
336860,3368.6
336952,3369.52
337048,3370.48
337140,3371.4
337231,3372.31
337324,3373.24
337420,3374.2
337515,3375.15
337606,3376.06
337694,3376.94
337778,3377.78
337867,3378.67
337957,3379.57
338045,3380.45
338131,3381.31
338214,3382.14
338303,3383.03
338393,3383.93
338478,3384.78
338566,3385.66
338655,3386.55
338739,3387.39
338819,3388.19
338902,3389.02
338983,3389.83
339062,3390.62
339141,3391.41
339220,3392.2
339301,3393.01
339383,3393.83
339462,3394.62
339541,3395.41
339621,3396.21
339700,3397.0
339779,3397.79
339860,3398.6
339944,3399.44
340033,3400.33
340126,3401.26
340216,3402.16
340307,3403.07
340401,3404.01
340497,3404.97
340594,3405.94
340689,3406.89
340782,3407.82
340873,3408.73
340963,3409.63
341055,3410.55
341148,3411.48
341243,3412.43
341335,3413.35
341424,3414.24
341511,3415.11
341600,3416.0
341689,3416.89
341781,3417.81
341871,3418.71
341958,3419.58
342045,3420.45
342135,3421.35
342227,3422.27
342321,3423.21
342413,3424.13
342503,3425.03
342592,3425.92
342682,3426.82
342775,3427.75
342868,3428.68
342959,3429.59
343047,3430.47
343135,3431.35
343226,3432.26
343318,3433.18
343409,3434.09
343498,3434.98
343586,3435.86
343673,3436.73
343763,3437.63
343856,3438.56
343947,3439.47
344038,3440.38
344126,3441.26
344211,3442.11
344295,3442.95
344377,3443.77
344458,3444.58
344538,3445.38
344618,3446.18
344698,3446.98
344777,3447.77
344858,3448.58
344939,3449.39
345019,3450.19
345101,3451.01
345186,3451.86
345276,3452.76
345373,3453.73
345471,3454.71
345566,3455.66
345659,3456.59
345754,3457.54
345848,3458.48
345944,3459.44
346039,3460.39
346130,3461.3
346221,3462.21
346316,3463.16
346424,3464.24
346531,3465.31
346634,3466.34
346731,3467.31
346824,3468.24
346918,3469.18
347014,3470.14
347113,3471.13
347214,3472.14
347309,3473.09
347401,3474.01
347493,3474.93
347585,3475.85
347675,3476.75
347760,3477.6
347847,3478.47
347939,3479.39
348033,3480.33
348128,3481.28
348219,3482.19
348309,3483.09
348398,3483.98
348491,3484.91
348584,3485.84
348672,3486.72
348757,3487.57
348847,3488.47
348939,3489.39
349025,3490.25
349109,3491.09
349197,3491.97
349290,3492.9
349383,3493.83
349471,3494.71
349555,3495.55
349646,3496.46
349731,3497.31
349814,3498.14
349897,3498.97
349980,3499.8
350062,3500.62
350143,3501.43
350226,3502.26
350307,3503.07
350388,3503.88
350468,3504.68
350547,3505.47
350627,3506.27
350708,3507.08
350792,3507.92
350876,3508.76
350958,3509.58
351041,3510.41
351126,3511.26
351212,3512.12
351299,3512.99
351387,3513.87
351475,3514.75
351561,3515.61
351643,3516.43
351724,3517.24
351804,3518.04
351882,3518.82
351961,3519.61
352042,3520.42
352127,3521.27
352215,3522.15
352310,3523.1
352406,3524.06
352500,3525.0
352591,3525.91
352684,3526.84
352777,3527.77
352869,3528.69
352964,3529.64
353055,3530.55
353144,3531.44
353234,3532.34
353324,3533.24
353418,3534.18
353513,3535.13
353609,3536.09
353704,3537.04
353799,3537.99
353890,3538.9
353978,3539.78
354067,3540.67
354158,3541.58
354253,3542.53
354346,3543.46
354438,3544.38
354530,3545.3
354621,3546.21
354714,3547.14
354811,3548.11
354912,3549.12
355016,3550.16
355114,3551.14
355208,3552.08
355305,3553.05
355404,3554.04
355501,3555.01
355598,3555.98
355693,3556.93
355785,3557.85
355875,3558.75
355967,3559.67
356062,3560.62
356159,3561.59
356262,3562.62
356358,3563.58
356455,3564.55
356550,3565.5
356649,3566.49
356750,3567.5
356852,3568.52
356947,3569.47
357039,3570.39
357127,3571.27
357218,3572.18
357309,3573.09
357402,3574.02
357497,3574.97
357587,3575.87
357683,3576.83
357780,3577.8
357875,3578.75
357966,3579.66
358055,3580.55
358140,3581.4
358231,3582.31
358323,3583.23
358419,3584.19
358511,3585.11
358602,3586.02
358692,3586.92
358783,3587.83
358875,3588.75
358969,3589.69
359058,3590.58
359146,3591.46
359229,3592.29
359317,3593.17
359405,3594.05
359497,3594.97
359585,3595.85
359672,3596.72
359761,3597.61
359853,3598.53
359943,3599.43
360032,3600.32
360122,3601.22
360217,3602.17
360306,3603.06
360390,3603.9
360478,3604.78
360568,3605.68
360660,3606.6
360743,3607.43
360827,3608.27
360911,3609.11
360996,3609.96
361078,3610.78
361160,3611.6
361240,3612.4
361319,3613.19
361398,3613.98
361475,3614.75
361550,3615.5
361628,3616.28
361708,3617.08
361787,3617.87
361865,3618.65
361946,3619.46
362029,3620.29
362112,3621.12
362196,3621.96
362282,3622.82
362371,3623.71
362463,3624.63
362556,3625.56
362646,3626.46
362734,3627.34
362822,3628.22
362911,3629.11
363001,3630.01
363092,3630.92
363184,3631.84
363273,3632.73
363360,3633.6
363456,3634.56
363551,3635.51
363647,3636.47
363743,3637.43
363836,3638.36
363927,3639.27
364021,3640.21
364115,3641.15
364210,3642.1
364306,3643.06
364400,3644.0
364493,3644.93
364585,3645.85
364679,3646.79
364773,3647.73
364866,3648.66
364959,3649.59
365051,3650.51
365145,3651.45
365238,3652.38
365331,3653.31
365423,3654.23
365510,3655.1
365594,3655.94
365680,3656.8
365767,3657.67
365860,3658.6
365958,3659.58
366056,3660.56
366150,3661.5
366243,3662.43
366341,3663.41
366438,3664.38
366530,3665.3
366619,3666.19
366707,3667.07
366796,3667.96
366888,3668.88
366981,3669.81
367070,3670.7
367161,3671.61
367248,3672.48
367337,3673.37
367429,3674.29
367520,3675.2
367610,3676.1
367698,3676.98
367788,3677.88
367881,3678.81
367976,3679.76
368067,3680.67
368153,3681.53
368244,3682.44
368335,3683.35
368426,3684.26
368511,3685.11
368597,3685.97
368686,3686.86
368774,3687.74
368862,3688.62
368945,3689.45
369031,3690.31
369119,3691.19
369212,3692.12
369304,3693.04
369392,3693.92
369482,3694.82
369574,3695.74
369661,3696.61
369745,3697.45
369834,3698.34
369924,3699.24
370006,3700.06
370090,3700.9
370178,3701.78
370265,3702.65
370347,3703.47
370428,3704.28
370511,3705.11
370591,3705.91
370671,3706.71
370752,3707.52
370831,3708.31
370910,3709.1
370992,3709.92
371072,3710.72
371151,3711.51
371231,3712.31
371313,3713.13
371400,3714.0
371490,3714.9
371577,3715.77
371665,3716.65
371758,3717.58
371854,3718.54
371952,3719.52
372045,3720.45
372137,3721.37
372229,3722.29
372322,3723.22
372415,3724.15
372507,3725.07
372595,3725.95
372685,3726.85
372774,3727.74
372863,3728.63
372957,3729.57
373061,3730.61
373163,3731.63
373258,3732.58
373349,3733.49
373436,3734.36
373526,3735.26
373620,3736.2
373719,3737.19
373822,3738.22
373918,3739.18
374010,3740.1
374098,3740.98
374189,3741.89
374283,3742.83
374381,3743.81
374479,3744.79
374573,3745.73
374664,3746.64
374755,3747.55
374848,3748.48
374944,3749.44
375036,3750.36
375125,3751.25
375211,3752.11
375301,3753.01
375391,3753.91
375482,3754.82
375574,3755.74
375663,3756.63
375749,3757.49
375839,3758.39
375931,3759.31
376025,3760.25
376117,3761.17
376207,3762.07
376295,3762.95
376386,3763.86
376480,3764.8
376573,3765.73
376661,3766.61
376746,3767.46
376834,3768.34
376923,3769.23
377012,3770.12
377095,3770.95
377179,3771.79
377262,3772.62
377350,3773.5
377439,3774.39
377525,3775.25
377606,3776.06
377693,3776.93
377780,3777.8
377868,3778.68
377953,3779.53
378034,3780.34
378119,3781.19
378204,3782.04
378286,3782.86
378368,3783.68
378449,3784.49
378530,3785.3
378608,3786.08
378688,3786.88
378767,3787.67
378845,3788.45
378924,3789.24
379006,3790.06
379089,3790.89
379171,3791.71
379252,3792.52
379335,3793.35
379418,3794.18
379502,3795.02
379583,3795.83
379664,3796.64
379747,3797.47
379833,3798.33
379924,3799.24
380012,3800.12
380100,3801.0
380189,3801.89
380281,3802.81
380377,3803.77
380474,3804.74
380572,3805.72
380664,3806.64
380753,3807.53
380843,3808.43
380932,3809.32
381021,3810.21
381108,3811.08
381194,3811.94
381277,3812.77
381364,3813.64
381455,3814.55
381550,3815.5
381641,3816.41
381732,3817.32
381824,3818.24
381921,3819.21
382017,3820.17
382108,3821.08
382198,3821.98
382290,3822.9
382384,3823.84
382479,3824.79
382567,3825.67
382651,3826.51
382740,3827.4
382830,3828.3
382918,3829.18
383001,3830.01
383088,3830.88
383176,3831.76
383267,3832.67
383350,3833.5
383434,3834.34
383523,3835.23
383613,3836.13
383696,3836.96
383779,3837.79
383867,3838.67
383951,3839.51
384029,3840.29
384111,3841.11
384189,3841.89
384269,3842.69
384348,3843.48
384427,3844.27
384509,3845.09
384589,3845.89
384668,3846.68
384750,3847.5
384832,3848.32
384913,3849.13
384993,3849.93
385075,3850.75
385156,3851.56
385241,3852.41
385323,3853.23
385405,3854.05
385491,3854.91
385578,3855.78
385667,3856.67
385757,3857.57
385843,3858.43
385930,3859.3
386018,3860.18
386107,3861.07
386200,3862.0
386293,3862.93
386384,3863.84
386472,3864.72
386563,3865.63
386658,3866.58
386755,3867.55
386855,3868.55
386949,3869.49
387039,3870.39
387126,3871.26
387213,3872.13
387301,3873.01
387386,3873.86
387471,3874.71
387558,3875.58
387649,3876.49
387745,3877.45
387836,3878.36
387926,3879.26
388015,3880.15
388110,3881.1
388209,3882.09
388310,3883.1
388411,3884.11
388509,3885.09
388598,3885.98
388683,3886.83
388766,3887.66
388848,3888.48
388928,3889.28
389006,3890.06
389085,3890.85
389167,3891.67
389251,3892.51
389342,3893.42
389431,3894.31
389520,3895.2
389606,3896.06
389698,3896.98
389793,3897.93
389888,3898.88
389979,3899.79
390071,3900.71
390169,3901.69
390270,3902.7
390370,3903.7
390464,3904.64
390555,3905.55
390647,3906.47
390738,3907.38
390828,3908.28
390912,3909.12
390995,3909.95
391081,3910.81
391166,3911.66
391255,3912.55
391342,3913.42
391426,3914.26
391513,3915.13
391603,3916.03
391698,3916.98
391788,3917.88
391875,3918.75
391959,3919.59
392043,3920.43
392125,3921.25
392204,3922.04
392287,3922.87
392372,3923.72
392461,3924.61
392551,3925.51
392638,3926.38
392731,3927.31
392824,3928.24
392916,3929.16
393005,3930.05
393090,3930.9
393181,3931.81
393281,3932.81
393381,3933.81
393479,3934.79
393570,3935.7
393662,3936.62
393755,3937.55
393847,3938.47
393931,3939.31
394017,3940.17
394104,3941.04
394192,3941.92
394284,3942.84
394375,3943.75
394463,3944.63
394549,3945.49
394641,3946.41
394733,3947.33
394822,3948.22
394904,3949.04
394986,3949.86
395070,3950.7
395153,3951.53
395236,3952.36
395316,3953.16
395397,3953.97
395482,3954.82
395573,3955.73
395666,3956.66
395754,3957.54
395841,3958.41
395929,3959.29
396020,3960.2
396108,3961.08
396191,3961.91
396277,3962.77
396364,3963.64
396451,3964.51
396531,3965.31
396614,3966.14
396693,3966.93
396768,3967.68
396847,3968.47
396924,3969.24
397000,3970.0
397076,3970.76
397152,3971.52
397230,3972.3
397309,3973.09
397387,3973.87
397467,3974.67
397550,3975.5
397637,3976.37
397722,3977.22
397808,3978.08
397893,3978.93
397982,3979.82
398075,3980.75
398170,3981.7
398264,3982.64
398353,3983.53
398440,3984.4
398525,3985.25
398613,3986.13
398703,3987.03
398792,3987.92
398878,3988.78
398964,3989.64
399050,3990.5
399140,3991.4
399232,3992.32
399326,3993.26
399417,3994.17
399506,3995.06
399594,3995.94
399684,3996.84
399777,3997.77
399873,3998.73
399966,3999.66
400056,4000.56
400145,4001.45
400238,4002.38
400336,4003.36
400436,4004.36
400530,4005.3
400621,4006.21
400713,4007.13
400809,4008.09
400904,4009.04
400995,4009.95
401083,4010.83
401168,4011.68
401256,4012.56
401343,4013.43
401430,4014.3
401514,4015.14
401601,4016.01
401693,4016.93
401786,4017.86
401877,4018.77
401962,4019.62
402049,4020.49
402136,4021.36
402222,4022.22
402302,4023.02
402382,4023.82
402466,4024.66
402547,4025.47
402626,4026.26
402706,4027.06
402785,4027.85
402863,4028.63
402941,4029.41
403020,4030.2
403099,4030.99
403177,4031.77
403258,4032.58
403339,4033.39
403417,4034.17
403494,4034.94
403574,4035.74
403652,4036.52
403731,4037.31
403810,4038.1
403888,4038.88
403968,4039.68
404051,4040.51
404140,4041.4
404234,4042.34
404333,4043.33
404426,4044.26
404522,4045.22
404619,4046.19
404716,4047.16
404816,4048.16
404910,4049.1
405002,4050.02
405090,4050.9
405181,4051.81
405273,4052.73
405367,4053.67
405460,4054.6
405549,4055.49
405634,4056.34
405722,4057.22
405812,4058.12
405902,4059.02
405987,4059.87
406071,4060.71
406153,4061.53
406241,4062.41
406331,4063.31
406422,4064.22
406510,4065.1
406593,4065.93
406680,4066.8
406768,4067.68
406854,4068.54
406936,4069.36
407018,4070.18
407104,4071.04
407190,4071.9
407275,4072.75
407356,4073.56
407442,4074.42
407527,4075.27
407612,4076.12
407692,4076.92
407771,4077.71
407853,4078.53
407935,4079.35
408014,4080.14
408093,4080.93
408172,4081.72
408249,4082.49
408324,4083.24
408398,4083.98
408472,4084.72
408547,4085.47
408622,4086.22
408698,4086.98
408775,4087.75
408851,4088.51
408927,4089.27
409005,4090.05
409083,4090.83
409161,4091.61
409238,4092.38
409315,4093.15
409394,4093.94
409476,4094.76
409563,4095.63
409652,4096.52
409739,4097.39
409825,4098.25
409911,4099.11
410000,4100.0
410090,4100.9
410180,4101.8
410270,4102.7
410357,4103.57
410443,4104.43
410530,4105.3
410618,4106.18
410706,4107.06
410794,4107.94
410877,4108.77
410959,4109.59
411042,4110.42
411126,4111.26
411210,4112.1
411296,4112.96
411378,4113.78
411461,4114.61
411541,4115.41
411625,4116.25
411711,4117.11
411800,4118.0
411889,4118.89
411975,4119.75
412057,4120.57
412144,4121.44
412232,4122.32
412322,4123.22
412408,4124.08
412493,4124.93
412575,4125.75
412661,4126.61
412747,4127.47
412829,4128.29
412912,4129.12
412998,4129.98
413087,4130.87
413181,4131.81
413274,4132.74
413362,4133.62
413447,4134.47
413533,4135.33
413622,4136.22
413704,4137.04
413786,4137.86
413872,4138.72
413954,4139.54
414030,4140.3
414108,4141.08
414186,4141.86
414261,4142.61
414336,4143.36
414411,4144.11
414489,4144.89
414565,4145.65
414641,4146.41
414716,4147.16
414791,4147.91
414867,4148.67
414943,4149.43
415019,4150.19
415096,4150.96
415178,4151.78
415263,4152.63
415351,4153.51
415436,4154.36
415521,4155.21
415611,4156.11
415702,4157.02
415796,4157.96
415885,4158.85
415971,4159.71
416055,4160.55
416141,4161.41
416227,4162.27
416316,4163.16
416407,4164.07
416493,4164.93
416578,4165.78
416663,4166.63
416749,4167.49
416837,4168.37
416926,4169.26
417018,4170.18
417108,4171.08
417196,4171.96
417285,4172.85
417378,4173.78
417473,4174.73
417570,4175.7
417659,4176.59
417746,4177.46
417830,4178.3
417913,4179.13
417999,4179.99
418090,4180.9
418188,4181.88
418286,4182.86
418377,4183.77
418467,4184.67
418559,4185.59
418654,4186.54
418753,4187.53
418846,4188.46
418936,4189.36
419025,4190.25
419116,4191.16
419212,4192.12
419308,4193.08
419398,4193.98
419486,4194.86
419572,4195.72
419661,4196.61
419753,4197.53
419847,4198.47
419937,4199.37
420022,4200.22
420106,4201.06
420195,4201.95
420280,4202.8
420359,4203.59
420439,4204.39
420518,4205.18
420597,4205.97
420681,4206.81
420760,4207.6
420841,4208.41
420924,4209.24
421007,4210.07
421089,4210.89
421169,4211.69
421247,4212.47
421324,4213.24
421400,4214.0
421474,4214.74
421550,4215.5
421625,4216.25
421699,4216.99
421772,4217.72
421844,4218.44
421917,4219.17
421989,4219.89
422061,4220.61
422133,4221.33
422208,4222.08
422284,4222.84
422364,4223.64
422445,4224.45
422525,4225.25
422604,4226.04
422684,4226.84
422765,4227.65
422852,4228.52
422940,4229.4
423026,4230.26
423111,4231.11
423200,4232.0
423291,4232.91
423386,4233.86
423483,4234.83
423571,4235.71
423659,4236.59
423747,4237.47
423836,4238.36
423928,4239.28
424015,4240.15
424099,4240.99
424185,4241.85
424273,4242.73
424365,4243.65
424454,4244.54
424541,4245.41
424627,4246.27
424715,4247.15
424808,4248.08
424900,4249.0
424989,4249.89
425076,4250.76
425167,4251.67
425261,4252.61
425352,4253.52
425439,4254.39
425523,4255.23
425612,4256.12
425701,4257.01
425787,4257.87
425869,4258.69
425948,4259.48
426031,4260.31
426112,4261.12
426194,4261.94
426272,4262.72
426355,4263.55
426437,4264.37
426524,4265.24
426608,4266.08
426691,4266.91
426774,4267.74
426861,4268.61
426949,4269.49
427030,4270.3
427115,4271.15
427197,4271.97
427284,4272.84
427364,4273.64
427444,4274.44
427529,4275.29
427614,4276.14
427701,4277.01
427781,4277.81
427865,4278.65
427945,4279.45
428030,4280.3
428107,4281.07
428186,4281.86
428267,4282.67
428348,4283.48
428428,4284.28
428508,4285.08
428584,4285.84
428663,4286.63
428740,4287.4
428816,4288.16
428891,4288.91
428956,4289.56
429022,4290.22
429099,4290.99
429177,4291.77
429246,4292.46
429314,4293.14
429381,4293.81
429448,4294.48
429515,4295.15
429583,4295.83
429652,4296.52
429722,4297.22
429792,4297.92
429862,4298.62
429931,4299.31
429999,4299.99
430070,4300.7
430142,4301.42
430215,4302.15
430292,4302.92
430372,4303.72
430451,4304.51
430529,4305.29
430607,4306.07
430685,4306.85
430762,4307.62
430839,4308.39
430918,4309.18
430999,4309.99
431082,4310.82
431163,4311.63
431244,4312.44
431322,4313.22
431399,4313.99
431479,4314.79
431560,4315.6
431645,4316.45
431734,4317.34
431830,4318.3
431928,4319.28
432022,4320.22
432115,4321.15
432207,4322.07
432296,4322.96
432380,4323.8
432460,4324.6
432536,4325.36
432613,4326.13
432693,4326.93
432774,4327.74
432859,4328.59
432948,4329.48
433035,4330.35
433121,4331.21
433205,4332.05
433293,4332.93
433382,4333.82
433473,4334.73
433565,4335.65
433659,4336.59
433748,4337.48
433835,4338.35
433920,4339.2
434007,4340.07
434096,4340.96
434185,4341.85
434277,4342.77
434369,4343.69
434459,4344.59
434547,4345.47
434637,4346.37
434727,4347.27
434817,4348.17
434908,4349.08
434998,4349.98
435085,4350.85
435170,4351.7
435256,4352.56
435344,4353.44
435434,4354.34
435526,4355.26
435615,4356.15
435703,4357.03
435795,4357.95
435888,4358.88
435982,4359.82
436073,4360.73
436164,4361.64
436257,4362.57
436352,4363.52
436447,4364.47
436543,4365.43
436638,4366.38
436728,4367.28
436818,4368.18
436907,4369.07
436998,4369.98
437090,4370.9
437179,4371.79
437265,4372.65
437351,4373.51
437440,4374.4
437532,4375.32
437627,4376.27
437724,4377.24
437817,4378.17
437907,4379.07
437993,4379.93
438079,4380.79
438168,4381.68
438259,4382.59
438350,4383.5
438439,4384.39
438524,4385.24
438609,4386.09
438698,4386.98
438786,4387.86
438876,4388.76
438969,4389.69
439059,4390.59
439144,4391.44
439229,4392.29
439318,4393.18
439406,4394.06
439497,4394.97
439587,4395.87
439676,4396.76
439760,4397.6
439844,4398.44
439930,4399.3
440016,4400.16
440103,4401.03
440188,4401.88
440269,4402.69
440350,4403.5
440433,4404.33
440515,4405.15
440598,4405.98
440678,4406.78
440758,4407.58
440837,4408.37
440916,4409.16
440994,4409.94
441073,4410.73
441152,4411.52
441231,4412.31
441311,4413.11
441389,4413.89
441467,4414.67
441546,4415.46
441625,4416.25
441703,4417.03
441780,4417.8
441860,4418.6
441940,4419.4
442024,4420.24
442111,4421.11
442200,4422.0
442286,4422.86
442371,4423.71
442456,4424.56
442544,4425.44
442637,4426.37
442733,4427.33
442830,4428.3
442926,4429.26
443017,4430.17
443104,4431.04
443189,4431.89
443279,4432.79
443372,4433.72
443472,4434.72
443571,4435.71
443663,4436.63
443752,4437.52
443842,4438.42
443936,4439.36
444035,4440.35
444135,4441.35
444230,4442.3
444322,4443.22
444412,4444.12
444508,4445.08
444604,4446.04
444695,4446.95
444783,4447.83
444877,4448.77
444972,4449.72
445070,4450.7
445167,4451.67
445259,4452.59
445345,4453.45
445433,4454.33
445522,4455.22
445614,4456.14
445707,4457.07
445799,4457.99
445886,4458.86
445972,4459.72
446061,4460.61
446151,4461.51
446245,4462.45
446335,4463.35
446421,4464.21
446510,4465.1
446600,4466.0
446692,4466.92
446779,4467.79
446867,4468.67
446953,4469.53
447045,4470.45
447140,4471.4
447230,4472.3
447315,4473.15
447406,4474.06
447497,4474.97
447586,4475.86
447670,4476.7
447757,4477.57
447843,4478.43
447932,4479.32
448018,4480.18
448100,4481.0
448186,4481.86
448271,4482.71
448350,4483.5
448434,4484.34
448517,4485.17
448595,4485.95
448677,4486.77
448760,4487.6
448843,4488.43
448922,4489.22
449005,4490.05
449087,4490.87
449171,4491.71
449256,4492.56
449336,4493.36
449420,4494.2
449504,4495.04
449594,4495.94
449690,4496.9
449781,4497.81
449870,4498.7
449963,4499.63
450058,4500.58
450153,4501.53
450248,4502.48
450335,4503.35
450420,4504.2
450507,4505.07
450593,4505.93
450681,4506.81
450772,4507.72
450859,4508.59
450943,4509.43
451026,4510.26
451114,4511.14
451203,4512.03
451296,4512.96
451386,4513.86
451475,4514.75
451564,4515.64
451654,4516.54
451747,4517.47
451835,4518.35
451918,4519.18
452001,4520.01
452087,4520.87
452173,4521.73
452254,4522.54
452337,4523.37
452421,4524.21
452508,4525.08
452600,4526.0
452688,4526.88
452775,4527.75
452859,4528.59
452944,4529.44
453033,4530.33
453120,4531.2
453202,4532.02
453287,4532.87
453371,4533.71
453459,4534.59
453541,4535.41
453623,4536.23
453708,4537.08
453795,4537.95
453881,4538.81
453962,4539.62
454048,4540.48
454136,4541.36
454218,4542.18
454299,4542.99
454384,4543.84
454464,4544.64
454545,4545.45
454625,4546.25
454703,4547.03
454782,4547.82
454859,4548.59
454936,4549.36
455011,4550.11
455086,4550.86
455163,4551.63
455240,4552.4
455316,4553.16
455393,4553.93
455471,4554.71
455554,4555.54
455640,4556.4
455723,4557.23
455808,4558.08
455895,4558.95
455983,4559.83
456074,4560.74
456167,4561.67
456256,4562.56
456343,4563.43
456432,4564.32
456523,4565.23
456616,4566.16
456709,4567.09
456794,4567.94
456883,4568.83
456971,4569.71
457061,4570.61
457152,4571.52
457244,4572.44
457331,4573.31
457416,4574.16
457499,4574.99
457585,4575.85
457672,4576.72
457761,4577.61
457846,4578.46
457929,4579.29
458010,4580.1
458096,4580.96
458182,4581.82
458271,4582.71
458356,4583.56
458438,4584.38
458523,4585.23
458610,4586.1
458697,4586.97
458779,4587.79
458860,4588.6
458944,4589.44
459028,4590.28
459112,4591.12
459192,4591.92
459272,4592.72
459358,4593.58
459445,4594.45
459535,4595.35
459619,4596.19
459704,4597.04
459789,4597.89
459876,4598.76
459962,4599.62
460043,4600.43
460125,4601.25
460204,4602.04
460282,4602.82
460360,4603.6
460438,4604.38
460515,4605.15
460591,4605.91
460669,4606.69
460746,4607.46
460822,4608.22
460901,4609.01
460980,4609.8
461058,4610.58
461136,4611.36
461215,4612.15
461295,4612.95
461378,4613.78
461460,4614.6
461543,4615.43
461630,4616.3
461722,4617.22
461819,4618.19
461919,4619.19
462014,4620.14
462107,4621.07
462204,4622.04
462302,4623.02
462400,4624.0
462494,4624.94
462584,4625.84
462670,4626.7
462759,4627.59
462849,4628.49
462939,4629.39
463023,4630.23
463108,4631.08
463191,4631.91
463279,4632.79
463366,4633.66
463456,4634.56
463543,4635.43
463627,4636.27
463714,4637.14
463802,4638.02
463889,4638.89
463971,4639.71
464057,4640.57
464142,4641.42
464230,4642.3
464314,4643.14
464396,4643.96
464483,4644.83
464569,4645.69
464656,4646.56
464736,4647.36
464817,4648.17
464899,4648.99
464982,4649.82
465067,4650.67
465148,4651.48
465229,4652.29
465309,4653.09
465390,4653.9
465469,4654.69
465547,4655.47
465627,4656.27
465705,4657.05
465784,4657.84
465862,4658.62
465939,4659.39
466017,4660.17
466096,4660.96
466173,4661.73
466249,4662.49
466326,4663.26
466406,4664.06
466488,4664.88
466568,4665.68
466649,4666.49
466732,4667.32
466818,4668.18
466909,4669.09
466998,4669.98
467084,4670.84
467173,4671.73
467262,4672.62
467353,4673.53
467444,4674.44
467529,4675.29
467616,4676.16
467704,4677.04
467794,4677.94
467886,4678.86
467979,4679.79
468073,4680.73
468161,4681.61
468248,4682.48
468333,4683.33
468420,4684.2
468510,4685.1
468601,4686.01
468688,4686.88
468772,4687.72
468855,4688.55
468943,4689.43
469029,4690.29
469111,4691.11
469195,4691.95
469281,4692.81
469368,4693.68
469457,4694.57
469542,4695.42
469624,4696.24
469707,4697.07
469790,4697.9
469875,4698.75
469960,4699.6
470040,4700.4
470120,4701.2
470204,4702.04
470289,4702.89
470376,4703.76
470460,4704.6
470543,4705.43
470625,4706.25
470712,4707.12
470792,4707.92
470872,4708.72
470956,4709.56
471040,4710.4
471122,4711.22
471201,4712.01
471284,4712.84
471367,4713.67
471452,4714.52
471531,4715.31
471610,4716.1
471691,4716.91
471770,4717.7
471847,4718.47
471922,4719.22
471997,4719.97
472071,4720.71
472144,4721.44
472216,4722.16
472288,4722.88
472359,4723.59
472431,4724.31
472505,4725.05
472579,4725.79
472653,4726.53
472729,4727.29
472807,4728.07
472887,4728.87
472965,4729.65
473042,4730.42
473122,4731.22
473204,4732.04
473289,4732.89
473377,4733.77
473469,4734.69
473563,4735.63
473653,4736.53
473743,4737.43
473834,4738.34
473926,4739.26
474020,4740.2
474113,4741.13
474203,4742.03
474291,4742.91
474376,4743.76
474461,4744.61
474545,4745.45
474629,4746.29
474710,4747.1
474787,4747.87
474866,4748.66
474945,4749.45
475027,4750.27
475113,4751.13
475201,4752.01
475291,4752.91
475379,4753.79
475466,4754.66
475550,4755.5
475637,4756.37
475724,4757.24
475811,4758.11
475893,4758.93
475974,4759.74
476058,4760.58
476141,4761.41
476228,4762.28
476317,4763.17
476404,4764.04
476488,4764.88
476576,4765.76
476666,4766.66
476757,4767.57
476844,4768.44
476930,4769.3
477015,4770.15
477103,4771.03
477193,4771.93
477279,4772.79
477362,4773.62
477449,4774.49
477536,4775.36
477626,4776.26
477712,4777.12
477794,4777.94
477880,4778.8
477966,4779.66
478054,4780.54
478139,4781.39
478221,4782.21
478308,4783.08
478398,4783.98
478486,4784.86
478568,4785.68
478655,4786.55
478740,4787.4
478828,4788.28
478909,4789.09
478989,4789.89
479071,4790.71
479152,4791.52
479228,4792.28
479306,4793.06
479385,4793.85
479461,4794.61
479538,4795.38
479617,4796.17
479693,4796.93
479770,4797.7
479847,4798.47
479922,4799.22
479998,4799.98
480076,4800.76
480151,4801.51
480227,4802.27
480303,4803.03
480380,4803.8
480459,4804.59
480540,4805.4
480619,4806.19
480699,4806.99
480780,4807.8
480865,4808.65
480953,4809.53
481044,4810.44
481136,4811.36
481230,4812.3
481318,4813.18
481403,4814.03
481486,4814.86
481566,4815.66
481647,4816.47
481729,4817.29
481812,4818.12
481893,4818.93
481975,4819.75
482057,4820.57
482143,4821.43
482230,4822.3
482319,4823.19
482405,4824.05
482489,4824.89
482574,4825.74
482657,4826.57
482744,4827.44
482833,4828.33
482924,4829.24
483014,4830.14
483103,4831.03
483187,4831.87
483275,4832.75
483366,4833.66
483458,4834.58
483544,4835.44
483627,4836.27
483710,4837.1
483799,4837.99
483889,4838.89
483981,4839.81
484070,4840.7
484154,4841.54
484245,4842.45
484338,4843.38
484434,4844.34
484523,4845.23
484606,4846.06
484693,4846.93
484781,4847.81
484868,4848.68
484950,4849.5
485032,4850.32
485118,4851.18
485205,4852.05
485291,4852.91
485372,4853.72
485456,4854.56
485539,4855.39
485625,4856.25
485704,4857.04
485785,4857.85
485870,4858.7
485957,4859.57
486037,4860.37
486119,4861.19
486203,4862.03
486290,4862.9
486371,4863.71
486451,4864.51
486535,4865.35
486616,4866.16
486692,4866.92
486771,4867.71
486848,4868.48
486924,4869.24
486999,4869.99
487075,4870.75
487151,4871.51
487225,4872.25
487297,4872.97
487369,4873.69
487443,4874.43
487520,4875.2
487595,4875.95
487671,4876.71
487745,4877.45
487822,4878.22
487900,4879.0
487982,4879.82
488065,4880.65
488147,4881.47
488229,4882.29
488313,4883.13
488398,4883.98
488486,4884.86
488576,4885.76
488668,4886.68
488762,4887.62
488851,4888.51
488937,4889.37
489022,4890.22
489108,4891.08
489193,4891.93
489279,4892.79
489363,4893.63
489443,4894.43
489523,4895.23
489601,4896.01
489682,4896.82
489764,4897.64
489848,4898.48
489933,4899.33
490016,4900.16
490097,4900.97
490182,4901.82
490268,4902.68
490357,4903.57
490444,4904.44
490527,4905.27
490608,4906.08
490692,4906.92
490776,4907.76
490861,4908.61
490941,4909.41
491022,4910.22
491105,4911.05
491189,4911.89
491277,4912.77
491361,4913.61
491442,4914.42
491527,4915.27
491613,4916.13
491702,4917.02
491788,4917.88
491869,4918.69
491954,4919.54
492038,4920.38
492118,4921.18
492197,4921.97
492280,4922.8
492362,4923.62
492440,4924.4
492519,4925.19
492601,4926.01
492678,4926.78
492756,4927.56
492834,4928.34
492909,4929.09
492987,4929.87
493065,4930.65
493141,4931.41
493218,4932.18
493296,4932.96
493376,4933.76
493455,4934.55
493535,4935.35
493615,4936.15
493697,4936.97
493782,4937.82
493865,4938.65
493945,4939.45
494026,4940.26
494108,4941.08
494193,4941.93
494282,4942.82
494376,4943.76
494475,4944.75
494578,4945.78
494680,4946.8
494781,4947.81
494875,4948.75
494966,4949.66
495057,4950.57
495148,4951.48
495240,4952.4
495331,4953.31
495422,4954.22
495513,4955.13
495602,4956.02
495689,4956.89
495777,4957.77
495867,4958.67
495957,4959.57
496046,4960.46
496133,4961.33
496219,4962.19
496308,4963.08
496399,4963.99
496490,4964.9
496579,4965.79
496666,4966.66
496753,4967.53
496843,4968.43
496933,4969.33
497026,4970.26
497118,4971.18
497208,4972.08
497299,4972.99
497386,4973.86
497474,4974.74
497561,4975.61
497649,4976.49
497737,4977.37
497826,4978.26
497915,4979.15
498006,4980.06
498101,4981.01
498197,4981.97
498288,4982.88
498377,4983.77
498470,4984.7
498561,4985.61
498652,4986.52
498746,4987.46
498839,4988.39
498931,4989.31
499023,4990.23
499118,4991.18
499218,4992.18
499316,4993.16
499412,4994.12
499504,4995.04
499595,4995.95
499688,4996.88
499783,4997.83
499880,4998.8
499977,4999.77
500072,5000.72
500163,5001.63
500257,5002.57
500350,5003.5
500444,5004.44
500539,5005.39
500631,5006.31
500721,5007.21
500810,5008.1
500900,5009.0
500991,5009.91
501083,5010.83
501174,5011.74
501262,5012.62
501350,5013.5
501442,5014.42
501534,5015.34
501629,5016.29
501722,5017.22
501812,5018.12
501901,5019.01
501993,5019.93
502086,5020.86
502181,5021.81
502274,5022.74
502364,5023.64
502452,5024.52
502541,5025.41
502631,5026.31
502723,5027.23
502815,5028.15
502906,5029.06
502996,5029.96
503089,5030.89
503184,5031.84
503280,5032.8
503373,5033.73
503465,5034.65
503559,5035.59
503652,5036.52
503746,5037.46
503837,5038.37
503928,5039.28
504018,5040.18
504110,5041.1
504204,5042.04
504299,5042.99
504394,5043.94
504485,5044.85
504577,5045.77
504671,5046.71
504765,5047.65
504860,5048.6
504954,5049.54
505047,5050.47
505136,5051.36
505226,5052.26
505316,5053.16
505408,5054.08
505500,5055.0
505593,5055.93
505685,5056.85
505777,5057.77
505873,5058.73
505973,5059.73
506073,5060.73
506169,5061.69
506262,5062.62
506356,5063.56
506450,5064.5
506543,5065.43
506634,5066.34
506726,5067.26
506813,5068.13
506901,5069.01
506991,5069.91
507083,5070.83
507176,5071.76
507267,5072.67
507358,5073.58
507451,5074.51
507546,5075.46
507639,5076.39
507730,5077.3
507820,5078.2
507911,5079.11
508001,5080.01
508089,5080.89
508178,5081.78
508270,5082.7
508364,5083.64
508458,5084.58
508551,5085.51
508642,5086.42
508732,5087.32
508822,5088.22
508916,5089.16
509010,5090.1
509102,5091.02
509193,5091.93
509282,5092.82
509374,5093.74
509467,5094.67
509561,5095.61
509655,5096.55
509745,5097.45
509834,5098.34
509925,5099.25
510019,5100.19
510117,5101.17
510215,5102.15
510309,5103.09
510401,5104.01
510495,5104.95
510590,5105.9
510682,5106.82
510772,5107.72
510860,5108.6
510948,5109.48
511037,5110.37
511127,5111.27
511215,5112.15
511301,5113.01
511386,5113.86
511473,5114.73
511561,5115.61
511651,5116.51
511743,5117.43
511834,5118.34
511923,5119.23
512011,5120.11
512100,5121.0
512190,5121.9
512282,5122.82
512371,5123.71
512461,5124.61
512548,5125.48
512639,5126.39
512732,5127.32
512827,5128.27
512919,5129.19
513008,5130.08
513096,5130.96
513187,5131.87
513280,5132.8
513374,5133.74
513468,5134.68
513558,5135.58
513647,5136.47
513738,5137.38
513829,5138.29
513922,5139.22
514014,5140.14
514105,5141.05
514199,5141.99
514293,5142.93
514386,5143.86
514476,5144.76
514565,5145.65
514656,5146.56
514748,5147.48
514838,5148.38
514928,5149.28
515017,5150.17
515110,5151.1
515205,5152.05
515297,5152.97
515391,5153.91
515485,5154.85
515580,5155.8
515675,5156.75
515766,5157.66
515856,5158.56
515943,5159.43
516033,5160.33
516123,5161.23
516214,5162.14
516303,5163.03
516394,5163.94
516482,5164.82
516573,5165.73
516665,5166.65
516758,5167.58
516849,5168.49
516938,5169.38
517028,5170.28
517121,5171.21
517216,5172.16
517313,5173.13
517406,5174.06
517501,5175.01
517591,5175.91
517682,5176.82
517774,5177.74
517868,5178.68
517960,5179.6
518050,5180.5
518139,5181.39
518232,5182.32
518326,5183.26
518423,5184.23
518517,5185.17
518609,5186.09
518699,5186.99
518790,5187.9
518883,5188.83
518977,5189.77
519069,5190.69
519160,5191.6
519248,5192.48
519341,5193.41
519433,5194.33
519529,5195.29
519621,5196.21
519711,5197.11
519799,5197.99
519889,5198.89
519982,5199.82
520076,5200.76
520167,5201.67
520256,5202.56
520344,5203.44
520435,5204.35
520526,5205.26
520618,5206.18
520706,5207.06
520793,5207.93
520878,5208.78
520964,5209.64
521052,5210.52
521141,5211.41
521228,5212.28
521313,5213.13
521400,5214.0
521490,5214.9
521583,5215.83
521678,5216.78
521770,5217.7
521855,5218.55
521942,5219.42
522029,5220.29
522117,5221.17
522206,5222.06
522292,5222.92
522378,5223.78
522466,5224.66
522554,5225.54
522643,5226.43
522730,5227.3
522816,5228.16
522906,5229.06
522996,5229.96
523088,5230.88
523177,5231.77
523264,5232.64
523350,5233.5
523438,5234.38
523529,5235.29
523622,5236.22
523710,5237.1
523797,5237.97
523886,5238.86
523975,5239.75
524061,5240.61
524146,5241.46
524232,5242.32
524318,5243.18
524409,5244.09
524496,5244.96
524582,5245.82
524667,5246.67
524755,5247.55
524844,5248.44
524938,5249.38
525028,5250.28
525116,5251.16
525202,5252.02
525291,5252.91
525381,5253.81
525470,5254.7
525554,5255.54
525646,5256.46
525737,5257.37
525828,5258.28
525917,5259.17
526004,5260.04
526090,5260.9
526178,5261.78
526268,5262.68
526355,5263.55
526441,5264.41
526525,5265.25
526611,5266.11
526700,5267.0
526792,5267.92
526880,5268.8
526967,5269.67
527053,5270.53
527142,5271.42
527233,5272.33
527323,5273.23
527412,5274.12
527495,5274.95
527584,5275.84
527674,5276.74
527762,5277.62
527850,5278.5
527933,5279.33
528021,5280.21
528110,5281.1
528199,5281.99
528282,5282.82
528366,5283.66
528452,5284.52
528538,5285.38
528626,5286.26
528712,5287.12
528794,5287.94
528878,5288.78
528960,5289.6
529047,5290.47
529131,5291.31
529212,5292.12
529297,5292.97
529383,5293.83
529474,5294.74
529563,5295.63
529646,5296.46
529732,5297.32
529818,5298.18
529903,5299.03
529984,5299.84
530068,5300.68
530153,5301.53
530239,5302.39
530321,5303.21
530406,5304.06
530491,5304.91
530581,5305.81
530667,5306.67
530749,5307.49
530834,5308.34
530919,5309.19
531006,5310.06
531087,5310.87
531169,5311.69
531253,5312.53
531338,5313.38
531422,5314.22
531502,5315.02
531586,5315.86
531670,5316.7
531755,5317.55
531835,5318.35
531919,5319.19
532001,5320.01
532087,5320.87
532171,5321.71
532251,5322.51
532336,5323.36
532423,5324.23
532514,5325.14
532599,5325.99
532683,5326.83
532765,5327.65
532848,5328.48
532925,5329.25
533004,5330.04
533080,5330.8
533155,5331.55
533230,5332.3
533305,5333.05
533380,5333.8
533454,5334.54
533530,5335.3
533605,5336.05
533684,5336.84
533765,5337.65
533844,5338.44
533924,5339.24
534006,5340.06
534091,5340.91
534181,5341.81
534271,5342.71
534360,5343.6
534447,5344.47
534532,5345.32
534618,5346.18
534705,5347.05
534793,5347.93
534879,5348.79
534963,5349.63
535044,5350.44
535128,5351.28
535213,5352.13
535299,5352.99
535387,5353.87
535474,5354.74
535555,5355.55
535637,5356.37
535722,5357.22
535807,5358.07
535894,5358.94
535978,5359.78
536058,5360.58
536141,5361.41
536224,5362.24
536308,5363.08
536391,5363.91
536471,5364.71
536554,5365.54
536639,5366.39
536726,5367.26
536809,5368.09
536889,5368.89
536971,5369.71
537054,5370.54
537136,5371.36
537216,5372.16
537295,5372.95
537378,5373.78
537463,5374.63
537552,5375.52
537638,5376.38
537722,5377.22
537804,5378.04
537890,5378.9
537969,5379.69
538048,5380.48
538128,5381.28
538211,5382.11
538293,5382.93
538370,5383.7
538451,5384.51
538533,5385.33
538616,5386.16
538694,5386.94
538776,5387.76
538859,5388.59
538945,5389.45
539028,5390.28
539111,5391.11
539197,5391.97
539288,5392.88
539370,5393.7
539451,5394.51
539531,5395.31
539608,5396.08
539684,5396.84
539759,5397.59
539834,5398.34
539909,5399.09
539985,5399.85
540060,5400.6
540134,5401.34
540210,5402.1
540287,5402.87
540361,5403.61
540437,5404.37
540513,5405.13
540591,5405.91
540671,5406.71
540749,5407.49
540827,5408.27
540905,5409.05
540986,5409.86
541069,5410.69
541154,5411.54
541241,5412.41
541328,5413.28
541416,5414.16
541498,5414.98
541585,5415.85
541671,5416.71
541758,5417.58
541845,5418.45
541933,5419.33
542018,5420.18
542099,5420.99
542182,5421.82
542265,5422.65
542350,5423.5
542438,5424.38
542520,5425.2
542603,5426.03
542683,5426.83
542767,5427.67
542852,5428.52
542940,5429.4
543026,5430.26
543107,5431.07
543192,5431.92
543280,5432.8
543369,5433.69
543453,5434.53
543537,5435.37
543625,5436.25
543716,5437.16
543808,5438.08
543894,5438.94
543977,5439.77
544065,5440.65
544153,5441.53
544239,5442.39
544320,5443.2
544405,5444.05
544489,5444.89
544577,5445.77
544657,5446.57
544738,5447.38
544820,5448.2
544899,5448.99
544976,5449.76
545053,5450.53
545130,5451.3
545207,5452.07
545285,5452.85
545363,5453.63
545440,5454.4
545519,5455.19
545598,5455.98
545675,5456.75
545753,5457.53
545831,5458.31
545912,5459.12
545993,5459.93
546070,5460.7
546151,5461.51
546231,5462.31
546316,5463.16
546405,5464.05
546497,5464.97
546589,5465.89
546682,5466.82
546772,5467.72
546858,5468.58
546945,5469.45
547035,5470.35
547125,5471.25
547216,5472.16
547307,5473.07
547397,5473.97
547480,5474.8
547562,5475.62
547643,5476.43
547726,5477.26
547808,5478.08
547895,5478.95
547977,5479.77
548060,5480.6
548142,5481.42
548228,5482.28
548316,5483.16
548407,5484.07
548492,5484.92
548577,5485.77
548663,5486.63
548749,5487.49
548837,5488.37
548926,5489.26
549008,5490.08
549091,5490.91
549174,5491.74
549255,5492.55
549337,5493.37
549416,5494.16
549495,5494.95
549578,5495.78
549659,5496.59
549741,5497.41
549819,5498.19
549901,5499.01
549980,5499.8
550056,5500.56
550132,5501.32
550208,5502.08
550283,5502.83
550359,5503.59
550436,5504.36
550514,5505.14
550590,5505.9
550668,5506.68
550744,5507.44
550819,5508.19
550894,5508.94
550968,5509.68
551043,5510.43
551116,5511.16
551190,5511.9
551266,5512.66
551342,5513.42
551420,5514.2
551501,5515.01
551583,5515.83
551664,5516.64
551746,5517.46
551829,5518.29
551913,5519.13
551998,5519.98
552084,5520.84
552168,5521.68
552251,5522.51
552335,5523.35
552420,5524.2
552509,5525.09
552598,5525.98
552686,5526.86
552775,5527.75
552864,5528.64
552953,5529.53
553042,5530.42
553130,5531.3
553219,5532.19
553306,5533.06
553391,5533.91
553477,5534.77
553565,5535.65
553653,5536.53
553742,5537.42
553829,5538.29
553915,5539.15
554000,5540.0
554086,5540.86
554173,5541.73
554260,5542.6
554342,5543.42
554424,5544.24
554508,5545.08
554591,5545.91
554677,5546.77
554766,5547.66
554852,5548.52
554935,5549.35
555019,5550.19
555105,5551.05
555188,5551.88
555273,5552.73
555355,5553.55
555435,5554.35
555515,5555.15
555598,5555.98
555680,5556.8
555764,5557.64
555849,5558.49
555930,5559.3
556012,5560.12
556099,5560.99
556189,5561.89
556284,5562.84
556376,5563.76
556462,5564.62
556551,5565.51
556639,5566.39
556731,5567.31
556824,5568.24
556915,5569.15
556999,5569.99
557081,5570.81
557164,5571.64
557245,5572.45
557329,5573.29
557408,5574.08
557488,5574.88
557570,5575.7
557652,5576.52
557734,5577.34
557814,5578.14
557896,5578.96
557978,5579.78
558062,5580.62
558142,5581.42
558224,5582.24
558308,5583.08
558394,5583.94
558484,5584.84
558570,5585.7
558652,5586.52
558737,5587.37
558821,5588.21
558908,5589.08
558994,5589.94
559074,5590.74
559154,5591.54
559237,5592.37
559322,5593.22
559408,5594.08
559490,5594.9
559575,5595.75
559661,5596.61
559750,5597.5
559837,5598.37
559917,5599.17
560001,5600.01
560080,5600.8
560159,5601.59
560235,5602.35
560312,5603.12
560387,5603.87
560462,5604.62
560538,5605.38
560612,5606.12
560687,5606.87
560763,5607.63
560837,5608.37
560911,5609.11
560985,5609.85
561059,5610.59
561132,5611.32
561206,5612.06
561281,5612.81
561356,5613.56
561431,5614.31
561507,5615.07
561584,5615.84
561662,5616.62
561742,5617.42
561823,5618.23
561905,5619.05
561986,5619.86
562067,5620.67
562149,5621.49
562232,5622.32
562318,5623.18
562403,5624.03
562487,5624.87
562573,5625.73
562656,5626.56
562741,5627.41
562825,5628.25
562910,5629.1
562996,5629.96
563080,5630.8
563164,5631.64
563249,5632.49
563335,5633.35
563422,5634.22
563511,5635.11
563598,5635.98
563682,5636.82
563766,5637.66
563849,5638.49
563935,5639.35
564021,5640.21
564106,5641.06
564190,5641.9
564273,5642.73
564359,5643.59
564447,5644.47
564534,5645.34
564619,5646.19
564709,5647.09
564798,5647.98
564889,5648.89
564975,5649.75
565057,5650.57
565141,5651.41
565224,5652.24
565307,5653.07
565389,5653.89
565468,5654.68
565547,5655.47
565629,5656.29
565712,5657.12
565798,5657.98
565883,5658.83
565965,5659.65
566051,5660.51
566140,5661.4
566233,5662.33
566321,5663.21
566404,5664.04
566490,5664.9
566575,5665.75
566661,5666.61
566742,5667.42
566823,5668.23
566907,5669.07
566989,5669.89
567071,5670.71
567150,5671.5
567230,5672.3
567310,5673.1
567390,5673.9
567469,5674.69
567549,5675.49
567630,5676.3
567708,5677.08
567787,5677.87
567868,5678.68
567947,5679.47
568023,5680.23
568103,5681.03
568182,5681.82
568264,5682.64
568348,5683.48
568430,5684.3
568514,5685.14
568598,5685.98
568686,5686.86
568776,5687.76
568862,5688.62
568950,5689.5
569041,5690.41
569134,5691.34
569228,5692.28
569319,5693.19
569407,5694.07
569494,5694.94
569580,5695.8
569664,5696.64
569748,5697.48
569825,5698.25
569902,5699.02
569977,5699.77
570055,5700.55
570133,5701.33
570217,5702.17
570301,5703.01
570387,5703.87
570473,5704.73
570566,5705.66
570664,5706.64
570760,5707.6
570852,5708.52
570940,5709.4
571032,5710.32
571124,5711.24
571212,5712.12
571295,5712.95
571378,5713.78
571464,5714.64
571550,5715.5
571639,5716.39
571722,5717.22
571806,5718.06
571892,5718.92
571979,5719.79
572069,5720.69
572155,5721.55
572237,5722.37
572322,5723.22
572408,5724.08
572490,5724.9
572572,5725.72
572656,5726.56
572741,5727.41
572824,5728.24
572903,5729.03
572985,5729.85
573064,5730.64
573142,5731.42
573220,5732.2
573298,5732.98
573375,5733.75
573452,5734.52
573531,5735.31
573608,5736.08
573686,5736.86
573764,5737.64
573843,5738.43
573921,5739.21
573999,5739.99
574079,5740.79
574160,5741.6
574245,5742.45
574324,5743.24
574408,5744.08
574494,5744.94
574585,5745.85
574681,5746.81
574779,5747.79
574871,5748.71
574960,5749.6
575052,5750.52
575145,5751.45
575239,5752.39
575332,5753.32
575424,5754.24
575513,5755.13
575595,5755.95
575676,5756.76
575758,5757.58
575839,5758.39
575921,5759.21
576005,5760.05
576088,5760.88
576168,5761.68
576248,5762.48
576331,5763.31
576416,5764.16
576506,5765.06
576599,5765.99
576693,5766.93
576778,5767.78
576867,5768.67
576957,5769.57
577048,5770.48
577135,5771.35
577217,5772.17
577302,5773.02
577386,5773.86
577474,5774.74
577562,5775.62
577646,5776.46
577732,5777.32
577815,5778.15
577896,5778.96
577977,5779.77
578060,5780.6
578141,5781.41
578222,5782.22
578307,5783.07
578391,5783.91
578473,5784.73
578554,5785.54
578636,5786.36
578717,5787.17
578796,5787.96
578872,5788.72
578946,5789.46
579023,5790.23
579100,5791.0
579179,5791.79
579257,5792.57
579335,5793.35
579415,5794.15
579497,5794.97
579582,5795.82
579669,5796.69
579755,5797.55
579841,5798.41
579929,5799.29
580018,5800.18
580110,5801.1
580203,5802.03
580295,5802.95
580383,5803.83
580471,5804.71
580559,5805.59
580648,5806.48
580736,5807.36
580824,5808.24
580912,5809.12
581001,5810.01
581087,5810.87
581171,5811.71
581259,5812.59
581348,5813.48
581440,5814.4
581536,5815.36
581628,5816.28
581718,5817.18
581805,5818.05
581893,5818.93
581983,5819.83
582075,5820.75
582165,5821.65
582249,5822.49
582333,5823.33
582421,5824.21
582508,5825.08
582591,5825.91
582676,5826.76
582763,5827.63
582851,5828.51
582932,5829.32
583014,5830.14
583098,5830.98
583181,5831.81
583265,5832.65
583345,5833.45
583427,5834.27
583513,5835.13
583600,5836.0
583686,5836.86
583767,5837.67
583852,5838.52
583935,5839.35
584022,5840.22
584107,5841.07
584188,5841.88
584271,5842.71
584354,5843.54
584441,5844.41
584522,5845.22
584604,5846.04
584682,5846.82
584760,5847.6
584838,5848.38
584916,5849.16
584996,5849.96
585076,5850.76
585156,5851.56
585236,5852.36
585314,5853.14
585393,5853.93
585475,5854.75
585558,5855.58
585637,5856.37
585719,5857.19
585802,5858.02
585888,5858.88
585975,5859.75
586057,5860.57
586143,5861.43
586229,5862.29
586318,5863.18
586407,5864.07
586498,5864.98
586587,5865.87
586676,5866.76
586765,5867.65
586847,5868.47
586930,5869.3
587014,5870.14
587098,5870.98
587185,5871.85
587272,5872.72
587353,5873.53
587435,5874.35
587518,5875.18
587602,5876.02
587691,5876.91
587785,5877.85
587879,5878.79
587969,5879.69
588055,5880.55
588145,5881.45
588234,5882.34
588325,5883.25
588409,5884.09
588493,5884.93
588580,5885.8
588667,5886.67
588755,5887.55
588840,5888.4
588923,5889.23
589011,5890.11
589100,5891.0
589192,5891.92
589275,5892.75
589356,5893.56
589440,5894.4
589522,5895.22
589599,5895.99
589680,5896.8
589758,5897.58
589836,5898.36
589914,5899.14
589994,5899.94
590073,5900.73
590153,5901.53
590235,5902.35
590316,5903.16
590396,5903.96
590475,5904.75
590555,5905.55
590634,5906.34
590709,5907.09
590789,5907.89
590869,5908.69
590951,5909.51
591037,5910.37
591120,5911.2
591203,5912.03
591287,5912.87
591374,5913.74
591463,5914.63
591554,5915.54
591645,5916.45
591732,5917.32
591818,5918.18
591905,5919.05
591993,5919.93
592081,5920.81
592165,5921.65
592245,5922.45
592330,5923.3
592415,5924.15
592501,5925.01
592588,5925.88
592672,5926.72
592753,5927.53
592837,5928.37
592921,5929.21
593011,5930.11
593103,5931.03
593195,5931.95
593284,5932.84
593367,5933.67
593454,5934.54
593542,5935.42
593636,5936.36
593728,5937.28
593813,5938.13
593898,5938.98
593988,5939.88
594079,5940.79
594174,5941.74
594264,5942.64
594347,5943.47
594432,5944.32
594515,5945.15
594600,5946.0
594680,5946.8
594761,5947.61
594845,5948.45
594931,5949.31
595018,5950.18
595101,5951.01
595187,5951.87
595275,5952.75
595364,5953.64
595446,5954.46
595534,5955.34
595620,5956.2
595707,5957.07
595791,5957.91
595872,5958.72
595951,5959.51
596031,5960.31
596111,5961.11
596191,5961.91
596273,5962.73
596357,5963.57
596439,5964.39
596520,5965.2
596602,5966.02
596686,5966.86
596765,5967.65
596848,5968.48
596932,5969.32
597021,5970.21
597114,5971.14
597202,5972.02
597291,5972.91
597381,5973.81
597471,5974.71
597564,5975.64
597658,5976.58
597754,5977.54
597849,5978.49
597942,5979.42
598034,5980.34
598127,5981.27
598220,5982.2
598314,5983.14
598404,5984.04
598492,5984.92
598573,5985.73
598654,5986.54
598733,5987.33
598815,5988.15
598899,5988.99
598987,5989.87
599073,5990.73
599156,5991.56
599243,5992.43
599329,5993.29
599420,5994.2
599509,5995.09
599592,5995.92
599679,5996.79
599764,5997.64
599853,5998.53
599941,5999.41
600022,6000.22
600102,6001.02
600184,6001.84
600265,6002.65
600349,6003.49
600429,6004.29
600513,6005.13
600596,6005.96
600685,6006.85
600770,6007.7
600851,6008.51
600938,6009.38
601025,6010.25
601112,6011.12
601193,6011.93
601279,6012.79
601367,6013.67
601457,6014.57
601538,6015.38
601622,6016.22
601701,6017.01
601782,6017.82
601862,6018.62
601941,6019.41
602019,6020.19
602098,6020.98
602175,6021.75
602253,6022.53
602332,6023.32
602414,6024.14
602499,6024.99
602582,6025.82
602665,6026.65
602749,6027.49
602839,6028.39
602932,6029.32
603020,6030.2
603109,6031.09
603200,6032.0
603294,6032.94
603389,6033.89
603485,6034.85
603569,6035.69
603652,6036.52
603736,6037.36
603819,6038.19
603903,6039.03
603990,6039.9
604071,6040.71
604152,6041.52
604236,6042.36
604319,6043.19
604406,6044.06
604496,6044.96
604585,6045.85
604667,6046.67
604753,6047.53
604839,6048.39
604930,6049.3
605020,6050.2
605104,6051.04
605191,6051.91
605277,6052.77
605366,6053.66
605456,6054.56
605540,6055.4
605627,6056.27
605711,6057.11
605798,6057.98
605888,6058.88
605971,6059.71
606054,6060.54
606140,6061.4
606227,6062.27
606314,6063.14
606395,6063.95
606480,6064.8
606562,6065.62
606640,6066.4
606719,6067.19
606801,6068.01
606880,6068.8
606958,6069.58
607035,6070.35
607114,6071.14
607192,6071.92
607272,6072.72
607353,6073.53
607432,6074.32
607512,6075.12
607593,6075.93
607671,6076.71
607748,6077.48
607825,6078.25
607902,6079.02
607981,6079.81
608057,6080.57
608135,6081.35
608215,6082.15
608297,6082.97
608383,6083.83
608473,6084.73
608559,6085.59
608644,6086.44
608730,6087.3
608816,6088.16
608905,6089.05
608994,6089.94
609079,6090.79
609163,6091.63
609246,6092.46
609333,6093.33
609419,6094.19
609505,6095.05
609590,6095.9
609670,6096.7
609752,6097.52
609834,6098.34
609920,6099.2
610009,6100.09
610098,6100.98
610181,6101.81
610268,6102.68
610354,6103.54
610444,6104.44
610538,6105.38
610628,6106.28
610712,6107.12
610799,6107.99
610887,6108.87
610977,6109.77
611064,6110.64
611145,6111.45
611229,6112.29
611313,6113.13
611400,6114.0
611487,6114.87
611570,6115.7
611652,6116.52
611739,6117.39
611827,6118.27
611914,6119.14
611995,6119.95
612082,6120.82
612168,6121.68
612254,6122.54
612331,6123.31
612413,6124.13
612491,6124.91
612569,6125.69
612645,6126.45
612721,6127.21
612798,6127.98
612873,6128.73
612948,6129.48
613024,6130.24
613101,6131.01
613176,6131.76
613251,6132.51
613327,6133.27
613404,6134.04
613479,6134.79
613554,6135.54
613630,6136.3
613707,6137.07
613786,6137.86
613867,6138.67
613947,6139.47
614026,6140.26
614103,6141.03
614181,6141.81
614260,6142.6
614337,6143.37
614414,6144.14
614493,6144.93
614573,6145.73
614657,6146.57
614744,6147.44
614833,6148.33
614925,6149.25
615016,6150.16
615104,6151.04
615192,6151.92
615282,6152.82
615373,6153.73
615464,6154.64
615556,6155.56
615643,6156.43
615729,6157.29
615814,6158.14
615901,6159.01
615990,6159.9
616080,6160.8
616165,6161.65
616253,6162.53
616340,6163.4
616429,6164.29
616522,6165.22
616616,6166.16
616706,6167.06
616795,6167.95
616882,6168.82
616969,6169.69
617049,6170.49
617130,6171.3
617208,6172.08
617290,6172.9
617373,6173.73
617458,6174.58
617545,6175.45
617628,6176.28
617711,6177.11
617794,6177.94
617876,6178.76
617956,6179.56
618035,6180.35
618113,6181.13
618190,6181.9
618265,6182.65
618340,6183.4
618417,6184.17
618494,6184.94
618571,6185.71
618648,6186.48
618725,6187.25
618803,6188.03
618880,6188.8
618957,6189.57
619032,6190.32
619106,6191.06
619180,6191.8
619254,6192.54
619328,6193.28
619401,6194.01
619473,6194.73
619545,6195.45
619618,6196.18
619694,6196.94
619768,6197.68
619841,6198.41
619916,6199.16
619994,6199.94
620075,6200.75
620159,6201.59
620241,6202.41
620322,6203.22
620405,6204.05
620491,6204.91
620582,6205.82
620670,6206.7
620755,6207.55
620841,6208.41
620928,6209.28
621018,6210.18
621106,6211.06
621191,6211.91
621279,6212.79
621368,6213.68
621456,6214.56
621537,6215.37
621618,6216.18
621697,6216.97
621778,6217.78
621862,6218.62
621946,6219.46
622030,6220.3
622110,6221.1
622192,6221.92
622272,6222.72
622351,6223.51
622427,6224.27
622503,6225.03
622579,6225.79
622655,6226.55
622731,6227.31
622807,6228.07
622883,6228.83
622960,6229.6
623039,6230.39
623125,6231.25
623216,6232.16
623304,6233.04
623391,6233.91
623482,6234.82
623577,6235.77
623675,6236.75
623769,6237.69
623855,6238.55
623942,6239.42
624027,6240.27
624113,6241.13
624201,6242.01
624289,6242.89
624371,6243.71
624453,6244.53
624539,6245.39
624625,6246.25
624714,6247.14
624806,6248.06
624893,6248.93
624976,6249.76
625062,6250.62
625147,6251.47
625238,6252.38
625328,6253.28
625416,6254.16
625500,6255.0
625589,6255.89
625683,6256.83
625773,6257.73
625861,6258.61
625946,6259.46
626033,6260.33
626122,6261.22
626209,6262.09
626291,6262.91
626377,6263.77
626464,6264.64
626550,6265.5
626634,6266.34
626719,6267.19
626806,6268.06
626894,6268.94
626976,6269.76
627062,6270.62
627144,6271.44
627227,6272.27
627307,6273.07
627385,6273.85
627463,6274.63
627540,6275.4
627616,6276.16
627693,6276.93
627771,6277.71
627847,6278.47
627926,6279.26
628006,6280.06
628084,6280.84
628162,6281.62
628239,6282.39
628318,6283.18
628397,6283.97
628476,6284.76
628553,6285.53
628633,6286.33
628716,6287.16
628802,6288.02
628891,6288.91
628980,6289.8
629066,6290.66
629147,6291.47
629233,6292.33
629320,6293.2
629408,6294.08
629497,6294.97
629586,6295.86
629674,6296.74
629760,6297.6
629846,6298.46
629930,6299.3
630009,6300.09
630087,6300.87
630168,6301.68
630250,6302.5
630334,6303.34
630420,6304.2
630503,6305.03
630584,6305.84
630667,6306.67
630752,6307.52
630838,6308.38
630927,6309.27
631015,6310.15
631099,6310.99
631180,6311.8
631260,6312.6
631340,6313.4
631419,6314.19
631497,6314.97
631574,6315.74
631652,6316.52
631732,6317.32
631814,6318.14
631895,6318.95
631975,6319.75
632057,6320.57
632142,6321.42
632230,6322.3
632318,6323.18
632401,6324.01
632486,6324.86
632571,6325.71
632658,6326.58
632749,6327.49
632837,6328.37
632922,6329.22
633003,6330.03
633085,6330.85
633168,6331.68
633254,6332.54
633345,6333.45
633436,6334.36
633525,6335.25
633611,6336.11
633697,6336.97
633786,6337.86
633869,6338.69
633953,6339.53
634038,6340.38
634118,6341.18
634202,6342.02
634284,6342.84
634370,6343.7
634458,6344.58
634545,6345.45
634627,6346.27
634711,6347.11
634792,6347.92
634876,6348.76
634958,6349.58
635038,6350.38
635122,6351.22
635209,6352.09
635298,6352.98
635385,6353.85
635467,6354.67
635553,6355.53
635640,6356.4
635725,6357.25
635804,6358.04
635887,6358.87
635966,6359.66
636043,6360.43
636121,6361.21
636198,6361.98
636275,6362.75
636352,6363.52
636429,6364.29
636507,6365.07
636584,6365.84
636660,6366.6
636738,6367.38
636816,6368.16
636893,6368.93
636969,6369.69
637048,6370.48
637128,6371.28
637209,6372.09
637289,6372.89
637369,6373.69
637451,6374.51
637539,6375.39
637633,6376.33
637733,6377.33
637837,6378.37
637931,6379.31
638023,6380.23
638118,6381.18
638212,6382.12
638308,6383.08
638401,6384.01
638495,6384.95
638580,6385.8
638667,6386.67
638752,6387.52
638840,6388.4
638929,6389.29
639016,6390.16
639099,6390.99
639187,6391.87
639273,6392.73
639363,6393.63
639455,6394.55
639543,6395.43
639626,6396.26
639711,6397.11
639794,6397.94
639875,6398.75
639957,6399.57
640039,6400.39
640119,6401.19
640199,6401.99
640279,6402.79
640365,6403.65
640450,6404.5
640532,6405.32
640612,6406.12
640697,6406.97
640781,6407.81
640866,6408.66
640945,6409.45
641028,6410.28
641109,6411.09
641194,6411.94
641276,6412.76
641357,6413.57
641436,6414.36
641514,6415.14
641597,6415.97
641679,6416.79
641757,6417.57
641839,6418.39
641921,6419.21
642005,6420.05
642087,6420.87
642164,6421.64
642245,6422.45
642323,6423.23
642400,6424.0
642475,6424.75
642553,6425.53
642629,6426.29
642705,6427.05
642782,6427.82
642858,6428.58
642935,6429.35
643013,6430.13
643089,6430.89
643165,6431.65
643241,6432.41
643318,6433.18
643394,6433.94
643470,6434.7
643546,6435.46
643621,6436.21
643696,6436.96
643772,6437.72
643850,6438.5
643931,6439.31
644014,6440.14
644100,6441.0
644185,6441.85
644269,6442.69
644354,6443.54
644440,6444.4
644527,6445.27
644617,6446.17
644707,6447.07
644797,6447.97
644887,6448.87
644973,6449.73
645059,6450.59
645145,6451.45
645231,6452.31
645319,6453.19
645405,6454.05
645489,6454.89
645572,6455.72
645656,6456.56
645743,6457.43
645833,6458.33
645925,6459.25
646015,6460.15
646101,6461.01
646188,6461.88
646276,6462.76
646365,6463.65
646454,6464.54
646538,6465.38
646624,6466.24
646708,6467.08
646794,6467.94
646883,6468.83
646974,6469.74
647064,6470.64
647152,6471.52
647238,6472.38
647322,6473.22
647408,6474.08
647495,6474.95
647585,6475.85
647674,6476.74
647761,6477.61
647847,6478.47
647934,6479.34
648020,6480.2
648102,6481.02
648183,6481.83
648264,6482.64
648344,6483.44
648423,6484.23
648502,6485.02
648579,6485.79
648657,6486.57
648734,6487.34
648811,6488.11
648887,6488.87
648961,6489.61
649036,6490.36
649112,6491.12
649191,6491.91
649276,6492.76
649367,6493.67
649460,6494.6
649555,6495.55
649648,6496.48
649737,6497.37
649824,6498.24
649912,6499.12
650000,6500.0
650087,6500.87
650173,6501.73
650260,6502.6
650347,6503.47
650435,6504.35
650522,6505.22
650608,6506.08
650694,6506.94
650781,6507.81
650871,6508.71
650962,6509.62
651049,6510.49
651133,6511.33
651218,6512.18
651302,6513.02
651388,6513.88
651477,6514.77
651564,6515.64
651652,6516.52
651739,6517.39
651831,6518.31
651926,6519.26
652020,6520.2
652109,6521.09
652198,6521.98
652284,6522.84
652373,6523.73
652463,6524.63
652555,6525.55
652644,6526.44
652731,6527.31
652818,6528.18
652908,6529.08
652999,6529.99
653092,6530.92
653183,6531.83
653271,6532.71
653357,6533.57
653445,6534.45
653533,6535.33
653624,6536.24
653713,6537.13
653800,6538.0
653887,6538.87
653975,6539.75
654065,6540.65
654153,6541.53
654239,6542.39
654321,6543.21
654406,6544.06
654490,6544.9
654578,6545.78
654669,6546.69
654757,6547.57
654846,6548.46
654932,6549.32
655020,6550.2
655111,6551.11
655203,6552.03
655292,6552.92
655375,6553.75
655462,6554.62
655548,6555.48
655639,6556.39
655732,6557.32
655822,6558.22
655909,6559.09
655994,6559.94
656078,6560.78
656164,6561.64
656253,6562.53
656335,6563.35
656416,6564.16
656501,6565.01
656585,6565.85
656673,6566.73
656758,6567.58
656840,6568.4
656928,6569.28
657016,6570.16
657106,6571.06
657192,6571.92
657278,6572.78
657364,6573.64
657451,6574.51
657537,6575.37
657617,6576.17
657700,6577.0
657783,6577.83
657868,6578.68
657952,6579.52
658036,6580.36
658120,6581.2
658208,6582.08
658301,6583.01
658388,6583.88
658476,6584.76
658564,6585.64
658652,6586.52
658732,6587.32
658814,6588.14
658892,6588.92
658969,6589.69
659045,6590.45
659122,6591.22
659200,6592.0
659276,6592.76
659354,6593.54
659433,6594.33
659510,6595.1
659587,6595.87
659665,6596.65
659743,6597.43
659821,6598.21
659899,6598.99
659978,6599.78
660058,6600.58
660138,6601.38
660214,6602.14
660294,6602.94
660373,6603.73
660456,6604.56
660542,6605.42
660625,6606.25
660710,6607.1
660795,6607.95
660883,6608.83
660970,6609.7
661053,6610.53
661133,6611.33
661217,6612.17
661302,6613.02
661389,6613.89
661480,6614.8
661569,6615.69
661660,6616.6
661751,6617.51
661841,6618.41
661927,6619.27
662012,6620.12
662099,6620.99
662190,6621.9
662284,6622.84
662373,6623.73
662460,6624.6
662546,6625.46
662633,6626.33
662721,6627.21
662809,6628.09
662895,6628.95
662980,6629.8
663069,6630.69
663160,6631.6
663248,6632.48
663334,6633.34
663427,6634.27
663519,6635.19
663609,6636.09
663695,6636.95
663778,6637.78
663860,6638.6
663942,6639.42
664022,6640.22
664102,6641.02
664182,6641.82
664261,6642.61
664338,6643.38
664418,6644.18
664497,6644.97
664575,6645.75
664654,6646.54
664734,6647.34
664813,6648.13
664892,6648.92
664972,6649.72
665051,6650.51
665128,6651.28
665206,6652.06
665282,6652.82
665356,6653.56
665431,6654.31
665506,6655.06
665582,6655.82
665657,6656.57
665733,6657.33
665810,6658.1
665892,6658.92
665977,6659.77
666066,6660.66
666151,6661.51
666236,6662.36
666322,6663.22
666410,6664.1
666501,6665.01
666592,6665.92
666683,6666.83
666773,6667.73
666862,6668.62
666950,6669.5
667037,6670.37
667117,6671.17
667201,6672.01
667284,6672.84
667369,6673.69
667457,6674.57
667546,6675.46
667634,6676.34
667720,6677.2
667802,6678.02
667887,6678.87
667972,6679.72
668057,6680.57
668139,6681.39
668225,6682.25
668312,6683.12
668403,6684.03
668492,6684.92
668578,6685.78
668662,6686.62
668747,6687.47
668834,6688.34
668921,6689.21
669004,6690.04
669084,6690.84
669166,6691.66
669248,6692.48
669332,6693.32
669412,6694.12
669495,6694.95
669576,6695.76
669659,6696.59
669747,6697.47
669833,6698.33
669917,6699.17
670002,6700.02
670088,6700.88
670176,6701.76
670260,6702.6
670340,6703.4
670423,6704.23
670508,6705.08
670593,6705.93
670677,6706.77
670760,6707.6
670841,6708.41
670923,6709.23
671003,6710.03
671081,6710.81
671161,6711.61
671240,6712.4
671319,6713.19
671400,6714.0
671480,6714.8
671559,6715.59
671640,6716.4
671721,6717.21
671801,6718.01
671882,6718.82
671964,6719.64
672048,6720.48
672131,6721.31
672211,6722.11
672295,6722.95
672382,6723.82
672474,6724.74
672569,6725.69
672665,6726.65
672757,6727.57
672845,6728.45
672933,6729.33
673022,6730.22
673113,6731.13
673206,6732.06
673298,6732.98
673387,6733.87
673474,6734.74
673563,6735.63
673652,6736.52
673742,6737.42
673831,6738.31
673921,6739.21
674008,6740.08
674092,6740.92
674174,6741.74
674257,6742.57
674341,6743.41
674428,6744.28
674514,6745.14
674600,6746.0
674685,6746.85
674772,6747.72
674861,6748.61
674952,6749.52
675040,6750.4
675125,6751.25
675208,6752.08
675291,6752.91
675376,6753.76
675464,6754.64
675557,6755.57
675646,6756.46
675733,6757.33
675820,6758.2
675910,6759.1
676001,6760.01
676091,6760.91
676178,6761.78
676265,6762.65
676354,6763.54
676447,6764.47
676535,6765.35
676617,6766.17
676702,6767.02
676787,6767.87
676875,6768.75
676961,6769.61
677046,6770.46
677128,6771.28
677210,6772.1
677297,6772.97
677384,6773.84
677468,6774.68
677550,6775.5
677631,6776.31
677715,6777.15
677797,6777.97
677875,6778.75
677958,6779.58
678042,6780.42
678128,6781.28
678212,6782.12
678295,6782.95
678378,6783.78
678464,6784.64
678548,6785.48
678626,6786.26
678707,6787.07
678787,6787.87
678865,6788.65
678942,6789.42
679018,6790.18
679094,6790.94
679170,6791.7
679248,6792.48
679326,6793.26
679403,6794.03
679482,6794.82
679561,6795.61
679638,6796.38
679716,6797.16
679793,6797.93
679873,6798.73
679954,6799.54
680032,6800.32
680109,6801.09
680190,6801.9
680273,6802.73
680360,6803.6
680450,6804.5
680539,6805.39
680627,6806.27
680715,6807.15
680802,6808.02
680888,6808.88
680973,6809.73
681051,6810.51
681133,6811.33
681213,6812.13
681294,6812.94
681376,6813.76
681459,6814.59
681542,6815.42
681621,6816.21
681703,6817.03
681785,6817.85
681870,6818.7
681957,6819.57
682045,6820.45
682130,6821.3
682214,6822.14
682299,6822.99
682388,6823.88
682478,6824.78
682561,6825.61
682648,6826.48
682731,6827.31
682814,6828.14
682901,6829.01
682990,6829.9
683076,6830.76
683159,6831.59
683243,6832.43
683330,6833.3
683421,6834.21
683507,6835.07
683591,6835.91
683675,6836.75
683761,6837.61
683852,6838.52
683937,6839.37
684023,6840.23
684107,6841.07
684195,6841.95
684285,6842.85
684368,6843.68
684451,6844.51
684531,6845.31
684611,6846.11
684690,6846.9
684767,6847.67
684845,6848.45
684925,6849.25
685006,6850.06
685085,6850.85
685164,6851.64
685245,6852.45
685325,6853.25
685403,6854.03
685481,6854.81
685558,6855.58
685635,6856.35
685713,6857.13
685790,6857.9
685867,6858.67
685945,6859.45
686021,6860.21
686096,6860.96
686172,6861.72
686250,6862.5
686331,6863.31
686411,6864.11
686491,6864.91
686573,6865.73
686661,6866.61
686752,6867.52
686840,6868.4
686926,6869.26
687013,6870.13
687102,6871.02
687193,6871.93
687284,6872.84
687377,6873.77
687470,6874.7
687561,6875.61
687652,6876.52
687740,6877.4
687825,6878.25
687909,6879.09
687993,6879.93
688078,6880.78
688163,6881.63
688249,6882.49
688334,6883.34
688414,6884.14
688493,6884.93
688574,6885.74
688657,6886.57
688742,6887.42
688828,6888.28
688915,6889.15
688999,6889.99
689085,6890.85
689173,6891.73
689262,6892.62
689348,6893.48
689432,6894.32
689518,6895.18
689607,6896.07
689697,6896.97
689784,6897.84
689869,6898.69
689953,6899.53
690038,6900.38
690124,6901.24
690208,6902.08
690290,6902.9
690374,6903.74
690460,6904.6
690546,6905.46
690631,6906.31
690713,6907.13
690792,6907.92
690872,6908.72
690949,6909.49
691028,6910.28
691108,6911.08
691187,6911.87
691266,6912.66
691347,6913.47
691427,6914.27
691506,6915.06
691586,6915.86
691664,6916.64
691741,6917.41
691818,6918.18
691898,6918.98
691982,6919.82
692065,6920.65
692145,6921.45
692230,6922.3
692318,6923.18
692411,6924.11
692509,6925.09
692609,6926.09
692700,6927.0
692789,6927.89
692879,6928.79
692969,6929.69
693057,6930.57
693145,6931.45
693233,6932.33
693315,6933.15
693396,6933.96
693476,6934.76
693556,6935.56
693639,6936.39
693723,6937.23
693805,6938.05
693886,6938.86
693967,6939.67
694047,6940.47
694130,6941.3
694217,6942.17
694302,6943.02
694386,6943.86
694469,6944.69
694554,6945.54
694643,6946.43
694728,6947.28
694814,6948.14
694896,6948.96
694980,6949.8
695066,6950.66
695155,6951.55
695241,6952.41
695325,6953.25
695409,6954.09
695496,6954.96
695585,6955.85
695672,6956.72
695758,6957.58
695847,6958.47
695936,6959.36
696024,6960.24
696110,6961.1
696200,6962.0
696293,6962.93
696382,6963.82
696469,6964.69
696559,6965.59
696650,6966.5
696738,6967.38
696823,6968.23
696907,6969.07
696994,6969.94
697077,6970.77
697158,6971.58
697236,6972.36
697315,6973.15
697393,6973.93
697470,6974.7
697549,6975.49
697628,6976.28
697705,6977.05
697784,6977.84
697864,6978.64
697942,6979.42
698019,6980.19
698098,6980.98
698178,6981.78
698256,6982.56
698334,6983.34
698411,6984.11
698492,6984.92
698576,6985.76
698660,6986.6
698742,6987.42
698825,6988.25
698909,6989.09
698997,6989.97
699086,6990.86
699175,6991.75
699263,6992.63
699346,6993.46
699427,6994.27
699507,6995.07
699587,6995.87
699668,6996.68
699748,6997.48
699827,6998.27
699905,6999.05
699981,6999.81
700058,7000.58
700138,7001.38
700218,7002.18
700299,7002.99
700379,7003.79
700457,7004.57
700536,7005.36
700615,7006.15
700697,7006.97
700780,7007.8
700862,7008.62
700943,7009.43
701023,7010.23
701104,7011.04
701183,7011.83
701262,7012.62
701343,7013.43
701427,7014.27
701512,7015.12
701594,7015.94
701676,7016.76
701759,7017.59
701842,7018.42
701923,7019.23
702003,7020.03
702081,7020.81
702158,7021.58
702235,7022.35
702312,7023.12
702390,7023.9
702469,7024.69
702548,7025.48
702626,7026.26
702704,7027.04
702784,7027.84
702862,7028.62
702939,7029.39
703017,7030.17
703100,7031.0
703182,7031.82
703266,7032.66
703349,7033.49
703434,7034.34
703523,7035.23
703617,7036.17
703712,7037.12
703809,7038.09
703900,7039.0
703987,7039.87
704076,7040.76
704167,7041.67
704257,7042.57
704348,7043.48
704439,7044.39
704527,7045.27
704616,7046.16
704702,7047.02
704785,7047.85
704864,7048.64
704943,7049.43
705023,7050.23
705104,7051.04
705188,7051.88
705270,7052.7
705353,7053.53
705433,7054.33
705515,7055.15
705600,7056.0
705686,7056.86
705770,7057.7
705853,7058.53
705938,7059.38
706025,7060.25
706110,7061.1
706196,7061.96
706282,7062.82
706370,7063.7
706458,7064.58
706544,7065.44
706627,7066.27
706711,7067.11
706798,7067.98
706881,7068.81
706965,7069.65
707051,7070.51
707139,7071.39
707227,7072.27
707314,7073.14
707406,7074.06
707500,7075.0
707589,7075.89
707675,7076.75
707760,7077.6
707847,7078.47
707933,7079.33
708017,7080.17
708100,7081.0
708182,7081.82
708268,7082.68
708353,7083.53
708437,7084.37
708522,7085.22
708610,7086.1
708695,7086.95
708778,7087.78
708858,7088.58
708941,7089.41
709021,7090.21
709100,7091.0
709180,7091.8
709257,7092.57
709335,7093.35
709413,7094.13
709490,7094.9
709567,7095.67
709643,7096.43
709723,7097.23
709803,7098.03
709883,7098.83
709962,7099.62
710043,7100.43
710129,7101.29
710219,7102.19
710311,7103.11
710399,7103.99
710486,7104.86
710573,7105.73
710664,7106.64
710756,7107.56
710851,7108.51
710943,7109.43
711033,7110.33
711123,7111.23
711207,7112.07
711289,7112.89
711370,7113.7
711450,7114.5
711533,7115.33
711617,7116.17
711702,7117.02
711784,7117.84
711867,7118.67
711948,7119.48
712032,7120.32
712117,7121.17
712201,7122.01
712284,7122.84
712369,7123.69
712454,7124.54
712540,7125.4
712624,7126.24
712706,7127.06
712790,7127.9
712875,7128.75
712960,7129.6
713043,7130.43
713126,7131.26
713208,7132.08
713289,7132.89
713368,7133.68
713446,7134.46
713526,7135.26
713611,7136.11
713696,7136.96
713780,7137.8
713863,7138.63
713947,7139.47
714032,7140.32
714118,7141.18
714200,7142.0
714280,7142.8
714362,7143.62
714445,7144.45
714527,7145.27
714607,7146.07
714689,7146.89
714773,7147.73
714858,7148.58
714942,7149.42
715028,7150.28
715114,7151.14
715200,7152.0
715285,7152.85
715370,7153.7
715457,7154.57
715543,7155.43
715630,7156.3
715719,7157.19
715808,7158.08
715896,7158.96
715984,7159.84
716070,7160.7
716155,7161.55
716239,7162.39
716324,7163.24
716407,7164.07
716490,7164.9
716575,7165.75
716661,7166.61
716744,7167.44
716825,7168.25
716903,7169.03
716979,7169.79
717053,7170.53
717126,7171.26
717198,7171.98
717267,7172.67
717337,7173.37
717407,7174.07
717476,7174.76
717544,7175.44
717611,7176.11
717678,7176.78
717746,7177.46
717816,7178.16
717888,7178.88
717960,7179.6
718032,7180.32
718105,7181.05
718180,7181.8
718257,7182.57
718336,7183.36
718417,7184.17
718500,7185.0
718583,7185.83
718667,7186.67
718749,7187.49
718830,7188.3
718911,7189.11
718992,7189.92
719074,7190.74
719156,7191.56
719238,7192.38
719319,7193.19
719398,7193.98
719476,7194.76
719554,7195.54
719634,7196.34
719717,7197.17
719801,7198.01
719883,7198.83
719963,7199.63
720044,7200.44
720127,7201.27
720212,7202.12
720297,7202.97
720379,7203.79
720460,7204.6
720542,7205.42
720627,7206.27
720713,7207.13
720796,7207.96
720880,7208.8
720965,7209.65
721052,7210.52
721136,7211.36
721221,7212.21
721304,7213.04
721392,7213.92
721479,7214.79
