sample,time_sec
95,0.95
190,1.9
286,2.86
388,3.88
487,4.87
586,5.86
684,6.84
773,7.73
867,8.67
965,9.65
1061,10.61
1148,11.48
1240,12.4
1334,13.34
1428,14.28
1528,15.28
1627,16.27
1719,17.19
1809,18.09
1902,19.02
1989,19.89
2082,20.82
2177,21.77
2263,22.63
2355,23.55
2458,24.58
2551,25.51
2642,26.42
2727,27.27
2816,28.16
2919,29.19
3021,30.21
3121,31.21
3220,32.2
3323,33.23
3421,34.21
3518,35.18
3611,36.11
3704,37.04
3810,38.1
3912,39.12
4006,40.06
4107,41.07
4213,42.13
4316,43.16
4420,44.2
4513,45.13
4612,46.12
4714,47.14
4809,48.09
4906,49.06
5002,50.02
5097,50.97
5192,51.92
5285,52.85
5385,53.85
5490,54.9
5598,55.98
5707,57.07
5816,58.16
5912,59.12
6012,60.12
6118,61.18
6228,62.28
6336,63.36
6447,64.47
6561,65.61
6674,66.74
6786,67.86
6889,68.89
6995,69.95
7109,71.09
7217,72.17
7322,73.22
7429,74.29
7528,75.28
7625,76.25
7730,77.3
7846,78.46
7958,79.58
8068,80.68
8177,81.77
8284,82.84
8392,83.92
8507,85.07
8610,86.1
8716,87.16
8836,88.36
8947,89.47
9057,90.57
9161,91.61
9267,92.67
9369,93.69
9482,94.82
9593,95.93
9701,97.01
9807,98.07
9913,99.13
10015,100.15
10119,101.19
10226,102.26
10330,103.3
10425,104.25
10506,105.06
10582,105.82
10663,106.63
10773,107.73
10884,108.84
10984,109.84
11090,110.9
11199,111.99
11306,113.06
11417,114.17
11530,115.3
11631,116.31
11720,117.2
11807,118.07
11895,118.95
12000,120.0
12104,121.04
12207,122.07
12307,123.07
12416,124.16
12523,125.23
12618,126.18
12718,127.18
12823,128.23
12931,129.31
13042,130.42
13145,131.45
13251,132.51
13354,133.54
13457,134.57
13569,135.69
13684,136.84
13793,137.93
13897,138.97
14005,140.05
14107,141.07
14214,142.14
14324,143.24
14429,144.29
14529,145.29
14625,146.25
14722,147.22
14816,148.16
14909,149.09
15001,150.01
15099,150.99
15206,152.06
15307,153.07
15409,154.09
15515,155.15
15611,156.11
15711,157.11
15804,158.04
15912,159.12
16030,160.3
16139,161.39
16250,162.5
16364,163.64
16479,164.79
16595,165.95
16706,167.06
16813,168.13
16929,169.29
17040,170.4
17129,171.29
17218,172.18
17302,173.02
17386,173.86
17507,175.07
17621,176.21
17733,177.33
17849,178.49
17965,179.65
18077,180.77
18187,181.87
18296,182.96
18406,184.06
18518,185.18
18627,186.27
18737,187.37
18847,188.47
18955,189.55
19061,190.61
19173,191.73
19286,192.86
19387,193.87
19478,194.78
19589,195.89
19700,197.0
19809,198.09
19911,199.11
20012,200.12
20108,201.08
20217,202.17
20326,203.26
20425,204.25
20535,205.35
20628,206.28
20722,207.22
20824,208.24
20927,209.27
21031,210.31
21134,211.34
21231,212.31
21322,213.22
21419,214.19
21528,215.28
21632,216.32
21746,217.46
21853,218.53
21960,219.6
22065,220.65
22167,221.67
22271,222.71
22379,223.79
22481,224.81
22589,225.89
22704,227.04
22813,228.13
22920,229.2
23034,230.34
23143,231.43
23243,232.43
23343,233.43
23445,234.45
23554,235.54
23656,236.56
23752,237.52
23844,238.44
23947,239.47
24047,240.47
24131,241.31
24227,242.27
24344,243.44
24459,244.59
24574,245.74
24683,246.83
24796,247.96
24909,249.09
25021,250.21
25141,251.41
25256,252.56
25368,253.68
25476,254.76
25565,255.65
25655,256.55
25754,257.54
25856,258.56
25958,259.58
26060,260.6
26162,261.62
26280,262.8
26394,263.94
26486,264.86
26569,265.69
26654,266.54
26776,267.76
26892,268.92
27007,270.07
27122,271.22
27236,272.36
27344,273.44
27449,274.49
27530,275.3
27604,276.04
27677,276.77
27751,277.51
27864,278.64
27973,279.73
28082,280.82
28190,281.9
28298,282.98
28405,284.05
28510,285.1
28615,286.15
28722,287.22
28829,288.29
28934,289.34
29040,290.4
29147,291.47
29255,292.55
29364,293.64
29473,294.73
29582,295.82
29692,296.92
29801,298.01
29910,299.1
30017,300.17
30127,301.27
30239,302.39
30350,303.5
30460,304.6
30572,305.72
30685,306.85
30792,307.92
30898,308.98
30998,309.98
31088,310.88
31179,311.79
31268,312.68
31370,313.7
31480,314.8
31582,315.82
31687,316.87
31783,317.83
31879,318.79
31982,319.82
32083,320.83
32181,321.81
32276,322.76
32371,323.71
32477,324.77
32578,325.78
32673,326.73
32773,327.73
32880,328.8
32991,329.91
33101,331.01
33216,332.16
33321,333.21
33413,334.13
33513,335.13
33623,336.23
33726,337.26
33831,338.31
33923,339.23
34025,340.25
34126,341.26
34224,342.24
34310,343.1
34399,343.99
34493,344.93
34585,345.85
34677,346.77
34769,347.69
34860,348.6
34955,349.55
35049,350.49
35143,351.43
35239,352.39
35339,353.39
35447,354.47
35551,355.51
35654,356.54
35766,357.66
35880,358.8
35978,359.78
36071,360.71
36157,361.57
36237,362.37
36337,363.37
36437,364.37
36542,365.42
36661,366.61
36766,367.66
36865,368.65
36969,369.69
37079,370.79
37178,371.78
37278,372.78
37382,373.82
37495,374.95
37601,376.01
37707,377.07
37818,378.18
37917,379.17
38020,380.2
38129,381.29
38230,382.3
38328,383.28
38423,384.23
38503,385.03
38587,385.87
38679,386.79
38785,387.85
38896,388.96
39004,390.04
39104,391.04
39204,392.04
39311,393.11
39419,394.19
39529,395.29
39648,396.48
39759,397.59
39861,398.61
39965,399.65
40078,400.78
40198,401.98
40316,403.16
40432,404.32
40546,405.46
40655,406.55
40763,407.63
40876,408.76
40993,409.93
41109,411.09
41219,412.19
41323,413.23
41424,414.24
41538,415.38
41649,416.49
41761,417.61
41875,418.75
41981,419.81
42080,420.8
42178,421.78
42291,422.91
42405,424.05
42515,425.15
42628,426.28
42737,427.37
42838,428.38
42940,429.4
43055,430.55
43171,431.71
43281,432.81
43391,433.91
43490,434.9
43589,435.89
43696,436.96
43811,438.11
43928,439.28
44041,440.41
44152,441.52
44257,442.57
44361,443.61
44472,444.72
44585,445.85
44695,446.95
44808,448.08
44913,449.13
45022,450.22
45136,451.36
45245,452.45
45344,453.44
45439,454.39
45545,455.45
45653,456.53
45765,457.65
45870,458.7
45973,459.73
46076,460.76
46177,461.77
46265,462.65
46345,463.45
46438,464.38
46540,465.4
46598,465.98
46657,466.57
46762,467.62
46851,468.51
46936,469.36
47011,470.11
47098,470.98
47196,471.96
47286,472.86
47382,473.82
47485,474.85
47591,475.91
47698,476.98
47811,478.11
47926,479.26
48037,480.37
48140,481.4
48239,482.39
48350,483.5
48457,484.57
48568,485.68
48683,486.83
48787,487.87
48889,488.89
49010,490.1
49124,491.24
49237,492.37
49341,493.41
49436,494.36
49541,495.41
49640,496.4
49746,497.46
49854,498.54
49968,499.68
50087,500.87
50200,502.0
50307,503.07
50410,504.1
50517,505.17
50628,506.28
50735,507.35
50839,508.39
50943,509.43
51050,510.5
51156,511.56
51252,512.52
51354,513.54
51460,514.6
51563,515.63
51659,516.59
51741,517.41
51821,518.21
51942,519.42
52054,520.54
52162,521.62
52269,522.69
52373,523.73
52480,524.8
52587,525.87
52693,526.93
52792,527.92
52878,528.78
52968,529.68
53067,530.67
53164,531.64
53262,532.62
53363,533.63
53466,534.66
53578,535.78
53684,536.84
53790,537.9
53893,538.93
54002,540.02
54106,541.06
54212,542.12
54326,543.26
54430,544.3
54535,545.35
54646,546.46
54758,547.58
54863,548.63
54970,549.7
55080,550.8
55191,551.91
55288,552.88
55367,553.67
55447,554.47
55544,555.44
55647,556.47
55752,557.52
55839,558.39
55935,559.35
56037,560.37
56134,561.34
56221,562.21
56312,563.12
56400,564.0
56484,564.84
56562,565.62
56644,566.44
56721,567.21
56799,567.99
56872,568.72
56947,569.47
57018,570.18
57088,570.88
57159,571.59
57227,572.27
57295,572.95
57361,573.61
57427,574.27
57491,574.91
57558,575.58
57624,576.24
57691,576.91
57756,577.56
57823,578.23
57889,578.89
57958,579.58
58025,580.25
58080,580.8
58147,581.47
58187,581.87
58228,582.28
58296,582.96
58364,583.64
58430,584.3
58495,584.95
58561,585.61
58625,586.25
58690,586.9
58755,587.55
58822,588.22
58890,588.9
58957,589.57
59025,590.25
59093,590.93
59163,591.63
59233,592.33
59304,593.04
59373,593.73
59436,594.36
59500,595.0
59576,595.76
59644,596.44
59714,597.14
59783,597.83
59854,598.54
59924,599.24
59995,599.95
60066,600.66
60139,601.39
60209,602.09
60279,602.79
60347,603.47
60414,604.14
60482,604.82
60551,605.51
60619,606.19
60688,606.88
60758,607.58
60828,608.28
60897,608.97
60964,609.64
61032,610.32
61098,610.98
61165,611.65
61232,612.32
61301,613.01
61372,613.72
61440,614.4
61509,615.09
61578,615.78
61656,616.56
61732,617.32
61807,618.07
61879,618.79
61948,619.48
62016,620.16
62083,620.83
62149,621.49
62216,622.16
62285,622.85
62355,623.55
62426,624.26
62496,624.96
62570,625.7
62642,626.42
62710,627.1
62780,627.8
62855,628.55
62936,629.36
63015,630.15
63094,630.94
63175,631.75
63254,632.54
63337,633.37
63420,634.2
63508,635.08
63596,635.96
63695,636.95
63795,637.95
63896,638.96
63985,639.85
64067,640.67
64152,641.52
64242,642.42
64332,643.32
64417,644.17
64504,645.04
64592,645.92
64684,646.84
64778,647.78
64868,648.68
64975,649.75
65083,650.83
65186,651.86
65285,652.85
65383,653.83
65478,654.78
65581,655.81
65678,656.78
65770,657.7
65865,658.65
65969,659.69
66073,660.73
66173,661.73
66265,662.65
66353,663.53
66452,664.52
66557,665.57
66667,666.67
66773,667.73
66870,668.7
66968,669.68
67067,670.67
67176,671.76
67283,672.83
67390,673.9
67494,674.94
67600,676.0
67706,677.06
67815,678.15
67919,679.19
68019,680.19
68116,681.16
68220,682.2
68328,683.28
68432,684.32
68525,685.25
68610,686.1
68694,686.94
68771,687.71
68847,688.47
68938,689.38
69044,690.44
69157,691.57
69269,692.69
69373,693.73
69468,694.68
69556,695.56
69654,696.54
69766,697.66
69878,698.78
69979,699.79
70074,700.74
70180,701.8
70290,702.9
70401,704.01
70510,705.1
70609,706.09
70711,707.11
70817,708.17
70928,709.28
71034,710.34
71132,711.32
71233,712.33
71347,713.47
71453,714.53
71557,715.57
71654,716.54
71761,717.61
71867,718.67
71973,719.73
72077,720.77
72173,721.73
72268,722.68
72376,723.76
72483,724.83
72590,725.9
72694,726.94
72796,727.96
72898,728.98
73009,730.09
73119,731.19
73222,732.22
73320,733.2
73425,734.25
73528,735.28
73632,736.32
73729,737.29
73832,738.32
73938,739.38
74045,740.45
74145,741.45
74231,742.31
74321,743.21
74412,744.12
74503,745.03
74593,745.93
74705,747.05
74818,748.18
74926,749.26
75031,750.31
75131,751.31
75239,752.39
75346,753.46
75442,754.42
75533,755.33
75624,756.24
75720,757.2
75826,758.26
75933,759.33
76031,760.31
76121,761.21
76211,762.11
76307,763.07
76410,764.1
76510,765.1
76605,766.05
76705,767.05
76814,768.14
76927,769.27
77036,770.36
77129,771.29
77224,772.24
77323,773.23
77425,774.25
77516,775.16
77608,776.08
77712,777.12
77811,778.11
77903,779.03
77995,779.95
78098,780.98
78202,782.02
78299,782.99
78385,783.85
78488,784.88
78598,785.98
78703,787.03
78803,788.03
78904,789.04
79012,790.12
79120,791.2
79224,792.24
79315,793.15
79419,794.19
79523,795.23
79627,796.27
79728,797.28
79831,798.31
79936,799.36
80040,800.4
80136,801.36
80227,802.27
80327,803.27
80431,804.31
80536,805.36
80635,806.35
80733,807.33
80837,808.37
80938,809.38
81033,810.33
81124,811.24
81221,812.21
81311,813.11
81395,813.95
81471,814.71
81551,815.51
81635,816.35
81736,817.36
81838,818.38
81948,819.48
82053,820.53
82152,821.52
82259,822.59
82360,823.6
82451,824.51
82537,825.37
82624,826.24
82728,827.28
82840,828.4
82948,829.48
83054,830.54
83159,831.59
83273,832.73
83382,833.82
83485,834.85
83574,835.74
83669,836.69
83765,837.65
83863,838.63
83964,839.64
84068,840.68
84177,841.77
84281,842.81
84376,843.76
84470,844.7
84574,845.74
84680,846.8
84784,847.84
84884,848.84
84990,849.9
85094,850.94
85192,851.92
85287,852.87
85386,853.86
85493,854.93
85597,855.97
85697,856.97
85795,857.95
85897,858.97
86001,860.01
86098,860.98
86201,862.01
86305,863.05
86410,864.1
86510,865.1
86605,866.05
86705,867.05
86813,868.13
86922,869.22
87029,870.29
87128,871.28
87219,872.19
87328,873.28
87440,874.4
87554,875.54
87665,876.65
87767,877.67
87872,878.72
87983,879.83
88093,880.93
88200,882.0
88299,882.99
88404,884.04
88508,885.08
88614,886.14
88710,887.1
88802,888.02
88894,888.94
89001,890.01
89110,891.1
89219,892.19
89327,893.27
89427,894.27
89521,895.21
89624,896.24
89727,897.27
89832,898.32
89930,899.3
90025,900.25
90131,901.31
90236,902.36
90338,903.38
90430,904.3
90529,905.29
90636,906.36
90743,907.43
90840,908.4
90943,909.43
91049,910.49
91156,911.56
91256,912.56
91352,913.52
91463,914.63
91573,915.73
91680,916.8
91779,917.79
91879,918.79
91986,919.86
92095,920.95
92196,921.96
92297,922.97
92404,924.04
92514,925.14
92622,926.22
92726,927.26
92830,928.3
92941,929.41
93050,930.5
93159,931.59
93266,932.66
93368,933.68
93472,934.72
93578,935.78
93678,936.78
93775,937.75
93873,938.73
93976,939.76
94078,940.78
94174,941.74
94264,942.64
94367,943.67
94469,944.69
94566,945.66
94657,946.57
94755,947.55
94864,948.64
94962,949.62
95055,950.55
95154,951.54
95261,952.61
95369,953.69
95479,954.79
95582,955.82
95689,956.89
95793,957.93
95897,958.97
95997,959.97
96101,961.01
96208,962.08
96313,963.13
96410,964.1
96516,965.16
96623,966.23
96732,967.32
96837,968.37
96936,969.36
97033,970.33
97140,971.4
97245,972.45
97338,973.38
97428,974.28
97523,975.23
97625,976.25
97721,977.21
97815,978.15
97924,979.24
98030,980.3
98137,981.37
98236,982.36
98327,983.27
98424,984.24
98533,985.33
98634,986.34
98730,987.3
98828,988.28
98936,989.36
99044,990.44
99151,991.51
99255,992.55
99354,993.54
99443,994.43
99537,995.37
99643,996.43
99751,997.51
99857,998.57
99963,999.63
100067,1000.67
100166,1001.66
100260,1002.6
100359,1003.59
100464,1004.64
100572,1005.72
100679,1006.79
100778,1007.78
100875,1008.75
100977,1009.77
101078,1010.78
101177,1011.77
101269,1012.69
101368,1013.68
101473,1014.73
101580,1015.8
101685,1016.85
101794,1017.94
101898,1018.98
101990,1019.9
102087,1020.87
102189,1021.89
102289,1022.89
102391,1023.91
102490,1024.9
102589,1025.89
102687,1026.87
102789,1027.89
102892,1028.92
102985,1029.85
103077,1030.77
103172,1031.72
103267,1032.67
103357,1033.57
103449,1034.49
103545,1035.45
103644,1036.44
103737,1037.37
103830,1038.3
103925,1039.25
104020,1040.2
104108,1041.08
104198,1041.98
104296,1042.96
104396,1043.96
104489,1044.89
104569,1045.69
104644,1046.44
104726,1047.26
104807,1048.07
104891,1048.91
104969,1049.69
105041,1050.41
105123,1051.23
105235,1052.35
105341,1053.41
105449,1054.49
105556,1055.56
105661,1056.61
105767,1057.67
105865,1058.65
105969,1059.69
106077,1060.77
106179,1061.79
106278,1062.78
106370,1063.7
106466,1064.66
106572,1065.72
106677,1066.77
106780,1067.8
106882,1068.82
106982,1069.82
107084,1070.84
107180,1071.8
107277,1072.77
107373,1073.73
107474,1074.74
107575,1075.75
107668,1076.68
107757,1077.57
107855,1078.55
107956,1079.56
108060,1080.6
108161,1081.61
108263,1082.63
108360,1083.6
108453,1084.53
108548,1085.48
108649,1086.49
108752,1087.52
108849,1088.49
108937,1089.37
109022,1090.22
109111,1091.11
109204,1092.04
109301,1093.01
109404,1094.04
109501,1095.01
109593,1095.93
109686,1096.86
109785,1097.85
109884,1098.84
109982,1099.82
110074,1100.74
110160,1101.6
110246,1102.46
110335,1103.35
110432,1104.32
110522,1105.22
110615,1106.15
110712,1107.12
110809,1108.09
110904,1109.04
110997,1109.97
111083,1110.83
111171,1111.71
111258,1112.58
111356,1113.56
111453,1114.53
111555,1115.55
111649,1116.49
111740,1117.4
111829,1118.29
111921,1119.21
112024,1120.24
112130,1121.3
112231,1122.31
112331,1123.31
112427,1124.27
112517,1125.17
112616,1126.16
112719,1127.19
112821,1128.21
112921,1129.21
113020,1130.2
113116,1131.16
113213,1132.13
113311,1133.11
113412,1134.12
113504,1135.04
113590,1135.9
113679,1136.79
113775,1137.75
113878,1138.78
113978,1139.78
114071,1140.71
114159,1141.59
114247,1142.47
114346,1143.46
114451,1144.51
114550,1145.5
114644,1146.44
114739,1147.39
114851,1148.51
114961,1149.61
115065,1150.65
115159,1151.59
115249,1152.49
115343,1153.43
115442,1154.42
115543,1155.43
115646,1156.46
115749,1157.49
115856,1158.56
115957,1159.57
116055,1160.55
116151,1161.51
116246,1162.46
116338,1163.38
116435,1164.35
116533,1165.33
116629,1166.29
116723,1167.23
116820,1168.2
116915,1169.15
117016,1170.16
117107,1171.07
117201,1172.01
117298,1172.98
117395,1173.95
117490,1174.9
117581,1175.81
117676,1176.76
117774,1177.74
117874,1178.74
117967,1179.67
118052,1180.52
118142,1181.42
118234,1182.34
118324,1183.24
118411,1184.11
118496,1184.96
118587,1185.87
118687,1186.87
118784,1187.84
118876,1188.76
118968,1189.68
119059,1190.59
119150,1191.5
119236,1192.36
119322,1193.22
119417,1194.17
119517,1195.17
119613,1196.13
119706,1197.06
119807,1198.07
119909,1199.09
120009,1200.09
120103,1201.03
120196,1201.96
120297,1202.97
120398,1203.98
120497,1204.97
120592,1205.92
120691,1206.91
120792,1207.92
120887,1208.87
120976,1209.76
121068,1210.68
121163,1211.63
121255,1212.55
121346,1213.46
121437,1214.37
121532,1215.32
121632,1216.32
121731,1217.31
121826,1218.26
121915,1219.15
122006,1220.06
122098,1220.98
122194,1221.94
122286,1222.86
122375,1223.75
122469,1224.69
122564,1225.64
122657,1226.57
122745,1227.45
122831,1228.31
122922,1229.22
123010,1230.1
123094,1230.94
123181,1231.81
123272,1232.72
123363,1233.63
123454,1234.54
123540,1235.4
123632,1236.32
123732,1237.32
123828,1238.28
123920,1239.2
124008,1240.08
124105,1241.05
124210,1242.1
124313,1243.13
124415,1244.15
124520,1245.2
124626,1246.26
124730,1247.3
124827,1248.27
124922,1249.22
125020,1250.2
125119,1251.19
125214,1252.14
125312,1253.12
125423,1254.23
125529,1255.29
125629,1256.29
125718,1257.18
125804,1258.04
125898,1258.98
126001,1260.01
126099,1260.99
126192,1261.92
126282,1262.82
126386,1263.86
126492,1264.92
126591,1265.91
126677,1266.77
126767,1267.67
126863,1268.63
126958,1269.58
127046,1270.46
127134,1271.34
127232,1272.32
127339,1273.39
127446,1274.46
127543,1275.43
127643,1276.43
127749,1277.49
127856,1278.56
127952,1279.52
128045,1280.45
128139,1281.39
128235,1282.35
128333,1283.33
128423,1284.23
128518,1285.18
128619,1286.19
128718,1287.18
128812,1288.12
128902,1289.02
128998,1289.98
129104,1291.04
129199,1291.99
129289,1292.89
129383,1293.83
129487,1294.87
129585,1295.85
129672,1296.72
129753,1297.53
129827,1298.27
129899,1298.99
129976,1299.76
130062,1300.62
130166,1301.66
130270,1302.7
130374,1303.74
130472,1304.72
130572,1305.72
130676,1306.76
130780,1307.8
130873,1308.73
130964,1309.64
131062,1310.62
131168,1311.68
131271,1312.71
131374,1313.74
131474,1314.74
131577,1315.77
131682,1316.82
131785,1317.85
131882,1318.82
131979,1319.79
132070,1320.7
132166,1321.66
132263,1322.63
132356,1323.56
132451,1324.51
132549,1325.49
132644,1326.44
132736,1327.36
132827,1328.27
132919,1329.19
133014,1330.14
133103,1331.03
133188,1331.88
133272,1332.72
133367,1333.67
133469,1334.69
133571,1335.71
133663,1336.63
133748,1337.48
133838,1338.38
133940,1339.4
134044,1340.44
134127,1341.27
134204,1342.04
134277,1342.77
134343,1343.43
134395,1343.95
134471,1344.71
134548,1345.48
134617,1346.17
134674,1346.74
134745,1347.45
134830,1348.3
134882,1348.82
134935,1349.35
134997,1349.97
135061,1350.61
135123,1351.23
135185,1351.85
135232,1352.32
135298,1352.98
135365,1353.65
135424,1354.24
135483,1354.83
135541,1355.41
135592,1355.92
135650,1356.5
135722,1357.22
135784,1357.84
135847,1358.47
135913,1359.13
135979,1359.79
136045,1360.45
136116,1361.16
136188,1361.88
136262,1362.62
136337,1363.37
136415,1364.15
136496,1364.96
136582,1365.82
136668,1366.68
136743,1367.43
136819,1368.19
136906,1369.06
136985,1369.85
137064,1370.64
137143,1371.43
137224,1372.24
137304,1373.04
137389,1373.89
137476,1374.76
137563,1375.63
137645,1376.45
137728,1377.28
137832,1378.32
137934,1379.34
138033,1380.33
138125,1381.25
138217,1382.17
138315,1383.15
138406,1384.06
138492,1384.92
138586,1385.86
138689,1386.89
138787,1387.87
138880,1388.8
138966,1389.66
139045,1390.45
139129,1391.29
139211,1392.11
139298,1392.98
139381,1393.81
139463,1394.63
139541,1395.41
139615,1396.15
139704,1397.04
139792,1397.92
139883,1398.83
139976,1399.76
140070,1400.7
140164,1401.64
140261,1402.61
140361,1403.61
140468,1404.68
140574,1405.74
140672,1406.72
140772,1407.72
140875,1408.75
140978,1409.78
141081,1410.81
141184,1411.84
141288,1412.88
141392,1413.92
141495,1414.95
141598,1415.98
141705,1417.05
141808,1418.08
141905,1419.05
141998,1419.98
142097,1420.97
142198,1421.98
142301,1423.01
142403,1424.03
142503,1425.03
142600,1426.0
142690,1426.9
142779,1427.79
142870,1428.7
142963,1429.63
143059,1430.59
143151,1431.51
143239,1432.39
143323,1433.23
143412,1434.12
143507,1435.07
143603,1436.03
143698,1436.98
143786,1437.86
143875,1438.75
143971,1439.71
144067,1440.67
144162,1441.62
144250,1442.5
144341,1443.41
144431,1444.31
144526,1445.26
144618,1446.18
144708,1447.08
144802,1448.02
144895,1448.95
144987,1449.87
145074,1450.74
145167,1451.67
145258,1452.58
145352,1453.52
145440,1454.4
145527,1455.27
145618,1456.18
145703,1457.03
145785,1457.85
145860,1458.6
145930,1459.3
146004,1460.04
146083,1460.83
146174,1461.74
146268,1462.68
146364,1463.64
146460,1464.6
146550,1465.5
146635,1466.35
146722,1467.22
146816,1468.16
146907,1469.07
146994,1469.94
147079,1470.79
147169,1471.69
147260,1472.6
147356,1473.56
147449,1474.49
147542,1475.42
147636,1476.36
147732,1477.32
147826,1478.26
147918,1479.18
148013,1480.13
148111,1481.11
148210,1482.1
148308,1483.08
148404,1484.04
148498,1484.98
148593,1485.93
148687,1486.87
148779,1487.79
148867,1488.67
148955,1489.55
149047,1490.47
149139,1491.39
149231,1492.31
149320,1493.2
149409,1494.09
149501,1495.01
149595,1495.95
149690,1496.9
149781,1497.81
149869,1498.69
149961,1499.61
150057,1500.57
150155,1501.55
150255,1502.55
150352,1503.52
150447,1504.47
150539,1505.39
150628,1506.28
150718,1507.18
150808,1508.08
150900,1509.0
150990,1509.9
151080,1510.8
151170,1511.7
151258,1512.58
151344,1513.44
151429,1514.29
151521,1515.21
151612,1516.12
151700,1517.0
151786,1517.86
151877,1518.77
151969,1519.69
152057,1520.57
152142,1521.42
152234,1522.34
152326,1523.26
152418,1524.18
152505,1525.05
152594,1525.94
152684,1526.84
152776,1527.76
152869,1528.69
152960,1529.6
153049,1530.49
153140,1531.4
153228,1532.28
153315,1533.15
153407,1534.07
153500,1535.0
153595,1535.95
153686,1536.86
153773,1537.73
153864,1538.64
153957,1539.57
154053,1540.53
154145,1541.45
154235,1542.35
154329,1543.29
154424,1544.24
154523,1545.23
154619,1546.19
154709,1547.09
154803,1548.03
154896,1548.96
154995,1549.95
155087,1550.87
155180,1551.8
155276,1552.76
155369,1553.69
155462,1554.62
155558,1555.58
155660,1556.6
155756,1557.56
155851,1558.51
155950,1559.5
156048,1560.48
156161,1561.61
156265,1562.65
156359,1563.59
156445,1564.45
156530,1565.3
156623,1566.23
156721,1567.21
156822,1568.22
156916,1569.16
157008,1570.08
157105,1571.05
157209,1572.09
157311,1573.11
157406,1574.06
157498,1574.98
157596,1575.96
157697,1576.97
157797,1577.97
157893,1578.93
157987,1579.87
158081,1580.81
158186,1581.86
158281,1582.81
158377,1583.77
158469,1584.69
158560,1585.6
158651,1586.51
158747,1587.47
158845,1588.45
158938,1589.38
159031,1590.31
159125,1591.25
159219,1592.19
159317,1593.17
159407,1594.07
159500,1595.0
159595,1595.95
159687,1596.87
159776,1597.76
159867,1598.67
159959,1599.59
160052,1600.52
160142,1601.42
160227,1602.27
160320,1603.2
160414,1604.14
160505,1605.05
160593,1605.93
160679,1606.79
160765,1607.65
160851,1608.51
160938,1609.38
161025,1610.25
161111,1611.11
161199,1611.99
161288,1612.88
161380,1613.8
161469,1614.69
161557,1615.57
161645,1616.45
161741,1617.41
161832,1618.32
161922,1619.22
162009,1620.09
162094,1620.94
162182,1621.82
162273,1622.73
162366,1623.66
162453,1624.53
162539,1625.39
162629,1626.29
162720,1627.2
162812,1628.12
162899,1628.99
162985,1629.85
163074,1630.74
163163,1631.63
163249,1632.49
163336,1633.36
163422,1634.22
163509,1635.09
163598,1635.98
163683,1636.83
163768,1637.68
163855,1638.55
163946,1639.46
164034,1640.34
164122,1641.22
164217,1642.17
164315,1643.15
164411,1644.11
164502,1645.02
164588,1645.88
164675,1646.75
164763,1647.63
164850,1648.5
164936,1649.36
165023,1650.23
165113,1651.13
165206,1652.06
165294,1652.94
165382,1653.82
165473,1654.73
165565,1655.65
165660,1656.6
165749,1657.49
165838,1658.38
165931,1659.31
166025,1660.25
166120,1661.2
166211,1662.11
166303,1663.03
166395,1663.95
166487,1664.87
166577,1665.77
166667,1666.67
166760,1667.6
166858,1668.58
166956,1669.56
167055,1670.55
167148,1671.48
167246,1672.46
167340,1673.4
167435,1674.35
167525,1675.25
167623,1676.23
167722,1677.22
167823,1678.23
167920,1679.2
168014,1680.14
168107,1681.07
168201,1682.01
168298,1682.98
168393,1683.93
168486,1684.86
168582,1685.82
168680,1686.8
168775,1687.75
168867,1688.67
168957,1689.57
169072,1690.72
169187,1691.87
169291,1692.91
169380,1693.8
169461,1694.61
169538,1695.38
169613,1696.13
169687,1696.87
169763,1697.63
169842,1698.42
169922,1699.22
170002,1700.02
170079,1700.79
170156,1701.56
170230,1702.3
170303,1703.03
170381,1703.81
170465,1704.65
170547,1705.47
170628,1706.28
170706,1707.06
170783,1707.83
170856,1708.56
170929,1709.29
171000,1710.0
171071,1710.71
171141,1711.41
171210,1712.1
171280,1712.8
171351,1713.51
171425,1714.25
171500,1715.0
171574,1715.74
171657,1716.57
171737,1717.37
171820,1718.2
171910,1719.1
172006,1720.06
172098,1720.98
172181,1721.81
172266,1722.66
172354,1723.54
172448,1724.48
172537,1725.37
172622,1726.22
172712,1727.12
172804,1728.04
172896,1728.96
172985,1729.85
173071,1730.71
173158,1731.58
173246,1732.46
173334,1733.34
173420,1734.2
173507,1735.07
173599,1735.99
173688,1736.88
173775,1737.75
173863,1738.63
173954,1739.54
174045,1740.45
174137,1741.37
174227,1742.27
174313,1743.13
174403,1744.03
174499,1744.99
174600,1746.0
174700,1747.0
174793,1747.93
174886,1748.86
174991,1749.91
175091,1750.91
175187,1751.87
175279,1752.79
175367,1753.67
175459,1754.59
175557,1755.57
175653,1756.53
175745,1757.45
175843,1758.43
175939,1759.39
176034,1760.34
176129,1761.29
176221,1762.21
176318,1763.18
176414,1764.14
176506,1765.06
176596,1765.96
176691,1766.91
176790,1767.9
176887,1768.87
176982,1769.82
177075,1770.75
177172,1771.72
177270,1772.7
177363,1773.63
177456,1774.56
177545,1775.45
177633,1776.33
177725,1777.25
177818,1778.18
177911,1779.11
178002,1780.02
178093,1780.93
178189,1781.89
178289,1782.89
178384,1783.84
178476,1784.76
178565,1785.65
178654,1786.54
178743,1787.43
178833,1788.33
178920,1789.2
179005,1790.05
179097,1790.97
179187,1791.87
179278,1792.78
179365,1793.65
179457,1794.57
179552,1795.52
179642,1796.42
179727,1797.27
179811,1798.11
179897,1798.97
179988,1799.88
180079,1800.79
180169,1801.69
180262,1802.62
180356,1803.56
180451,1804.51
180544,1805.44
180639,1806.39
180737,1807.37
180829,1808.29
180918,1809.18
181009,1810.09
181103,1811.03
181193,1811.93
181281,1812.81
181370,1813.7
181464,1814.64
181559,1815.59
181654,1816.54
181743,1817.43
181832,1818.32
181926,1819.26
182024,1820.24
182114,1821.14
182203,1822.03
182298,1822.98
182392,1823.92
182488,1824.88
182578,1825.78
182669,1826.69
182763,1827.63
182861,1828.61
182956,1829.56
183045,1830.45
183132,1831.32
183222,1832.22
183313,1833.13
183401,1834.01
183491,1834.91
183587,1835.87
183679,1836.79
183771,1837.71
183857,1838.57
183949,1839.49
184046,1840.46
184142,1841.42
184232,1842.32
184319,1843.19
184407,1844.07
184500,1845.0
184587,1845.87
184673,1846.73
184762,1847.62
184852,1848.52
184946,1849.46
185040,1850.4
185131,1851.31
185223,1852.23
185314,1853.14
185404,1854.04
185490,1854.9
185579,1855.79
185669,1856.69
185761,1857.61
185850,1858.5
185938,1859.38
186036,1860.36
186134,1861.34
186225,1862.25
186316,1863.16
186408,1864.08
186500,1865.0
186593,1865.93
186683,1866.83
186775,1867.75
186873,1868.73
186969,1869.69
187060,1870.6
187152,1871.52
187245,1872.45
187336,1873.36
187425,1874.25
187518,1875.18
187615,1876.15
187713,1877.13
187802,1878.02
187892,1878.92
187985,1879.85
188077,1880.77
188165,1881.65
188249,1882.49
188337,1883.37
188431,1884.31
188527,1885.27
188619,1886.19
188712,1887.12
188811,1888.11
188912,1889.12
189012,1890.12
189111,1891.11
189211,1892.11
189308,1893.08
189410,1894.1
189511,1895.11
189607,1896.07
189701,1897.01
189797,1897.97
189889,1898.89
189981,1899.81
190072,1900.72
190163,1901.63
190256,1902.56
190348,1903.48
190441,1904.41
190529,1905.29
190622,1906.22
190714,1907.14
190810,1908.1
190900,1909.0
190992,1909.92
191084,1910.84
191177,1911.77
191266,1912.66
191352,1913.52
191446,1914.46
191543,1915.43
191637,1916.37
191729,1917.29
191819,1918.19
191916,1919.16
192013,1920.13
192105,1921.05
192197,1921.97
192288,1922.88
192379,1923.79
192469,1924.69
192565,1925.65
192661,1926.61
192747,1927.47
192833,1928.33
192922,1929.22
193013,1930.13
193103,1931.03
193191,1931.91
193284,1932.84
193381,1933.81
193476,1934.76
193570,1935.7
193666,1936.66
193763,1937.63
193858,1938.58
193947,1939.47
194036,1940.36
194129,1941.29
194222,1942.22
194311,1943.11
194398,1943.98
194486,1944.86
194575,1945.75
194663,1946.63
194748,1947.48
194833,1948.33
194924,1949.24
195017,1950.17
195107,1951.07
195195,1951.95
195286,1952.86
195376,1953.76
195462,1954.62
195548,1955.48
195634,1956.34
195721,1957.21
195812,1958.12
195906,1959.06
195995,1959.95
196083,1960.83
196177,1961.77
196272,1962.72
196367,1963.67
196456,1964.56
196543,1965.43
196632,1966.32
196720,1967.2
196807,1968.07
196894,1968.94
196983,1969.83
197075,1970.75
197169,1971.69
197263,1972.63
197354,1973.54
197446,1974.46
197544,1975.44
197642,1976.42
197739,1977.39
197833,1978.33
197927,1979.27
198020,1980.2
198110,1981.1
198198,1981.98
198288,1982.88
198378,1983.78
198471,1984.71
198566,1985.66
198655,1986.55
198743,1987.43
198833,1988.33
198926,1989.26
199016,1990.16
199103,1991.03
199191,1991.91
199281,1992.81
199368,1993.68
199456,1994.56
199549,1995.49
199643,1996.43
199733,1997.33
199826,1998.26
199923,1999.23
200018,2000.18
200107,2001.07
200196,2001.96
200292,2002.92
200392,2003.92
200492,2004.92
200585,2005.85
200677,2006.77
200768,2007.68
200860,2008.6
200951,2009.51
201039,2010.39
201127,2011.27
201219,2012.19
201311,2013.11
201400,2014.0
201489,2014.89
201580,2015.8
201668,2016.68
201755,2017.55
201840,2018.4
201925,2019.25
202012,2020.12
202100,2021.0
202187,2021.87
202271,2022.71
202358,2023.58
202447,2024.47
202535,2025.35
202620,2026.2
202706,2027.06
202795,2027.95
202885,2028.85
202973,2029.73
203058,2030.58
203143,2031.43
203230,2032.3
203319,2033.19
203412,2034.12
203500,2035.0
203586,2035.86
203677,2036.77
203768,2037.68
203857,2038.57
203945,2039.45
204036,2040.36
204130,2041.3
204221,2042.21
204307,2043.07
204397,2043.97
204489,2044.89
204579,2045.79
204669,2046.69
204760,2047.6
204854,2048.54
204947,2049.47
205038,2050.38
205128,2051.28
205216,2052.16
205304,2053.04
205392,2053.92
205476,2054.76
205561,2055.61
205649,2056.49
205740,2057.4
205829,2058.29
205919,2059.19
206014,2060.14
206108,2061.08
206199,2061.99
206287,2062.87
206377,2063.77
206468,2064.68
206556,2065.56
206647,2066.47
206737,2067.37
206825,2068.25
206915,2069.15
207001,2070.01
207085,2070.85
207172,2071.72
207261,2072.61
207352,2073.52
207440,2074.4
207530,2075.3
207629,2076.29
207725,2077.25
207821,2078.21
207915,2079.15
208004,2080.04
208093,2080.93
208183,2081.83
208274,2082.74
208362,2083.62
208452,2084.52
208548,2085.48
208641,2086.41
208739,2087.39
208832,2088.32
208923,2089.23
209013,2090.13
209109,2091.09
209203,2092.03
209296,2092.96
209385,2093.85
209475,2094.75
209563,2095.63
209648,2096.48
209731,2097.31
209816,2098.16
209902,2099.02
209987,2099.87
210070,2100.7
210152,2101.52
210237,2102.37
210324,2103.24
210411,2104.11
210496,2104.96
210585,2105.85
210676,2106.76
210779,2107.79
210882,2108.82
210970,2109.7
211061,2110.61
211156,2111.56
211252,2112.52
211345,2113.45
211438,2114.38
211537,2115.37
211635,2116.35
211731,2117.31
211825,2118.25
211921,2119.21
212021,2120.21
212114,2121.14
212208,2122.08
212304,2123.04
212399,2123.99
212490,2124.9
212579,2125.79
212668,2126.68
212756,2127.56
212846,2128.46
212933,2129.33
213021,2130.21
213111,2131.11
213201,2132.01
213291,2132.91
213379,2133.79
213472,2134.72
213568,2135.68
213659,2136.59
213748,2137.48
213833,2138.33
213914,2139.14
213995,2139.95
214080,2140.8
214166,2141.66
214250,2142.5
214327,2143.27
214401,2144.01
214468,2144.68
214532,2145.32
214594,2145.94
214656,2146.56
214716,2147.16
214770,2147.7
214825,2148.25
214887,2148.87
214949,2149.49
215005,2150.05
215062,2150.62
215117,2151.17
215172,2151.72
215228,2152.28
215284,2152.84
215343,2153.43
215402,2154.02
215461,2154.61
215522,2155.22
215586,2155.86
215650,2156.5
215714,2157.14
215774,2157.74
215834,2158.34
215895,2158.95
215957,2159.57
216023,2160.23
216090,2160.9
216157,2161.57
216225,2162.25
216292,2162.92
216360,2163.6
216429,2164.29
216499,2164.99
216569,2165.69
216636,2166.36
216707,2167.07
216780,2167.8
216855,2168.55
216929,2169.29
217007,2170.07
217084,2170.84
217158,2171.58
217229,2172.29
217299,2172.99
217370,2173.7
217442,2174.42
217516,2175.16
217589,2175.89
217666,2176.66
217744,2177.44
217821,2178.21
217896,2178.96
217970,2179.7
218041,2180.41
218113,2181.13
218188,2181.88
218261,2182.61
218333,2183.33
218404,2184.04
218476,2184.76
218546,2185.46
218615,2186.15
218684,2186.84
218752,2187.52
218819,2188.19
218885,2188.85
218950,2189.5
219011,2190.11
219072,2190.72
219134,2191.34
219196,2191.96
219259,2192.59
219323,2193.23
219386,2193.86
219446,2194.46
219508,2195.08
219575,2195.75
219642,2196.42
219712,2197.12
219785,2197.85
219861,2198.61
219936,2199.36
220012,2200.12
220091,2200.91
220166,2201.66
220238,2202.38
220307,2203.07
220375,2203.75
220445,2204.45
220515,2205.15
220588,2205.88
220672,2206.72
220752,2207.52
220837,2208.37
220918,2209.18
220997,2209.97
221077,2210.77
221157,2211.57
221235,2212.35
221314,2213.14
221393,2213.93
221471,2214.71
221546,2215.46
221620,2216.2
221697,2216.97
221774,2217.74
221851,2218.51
221929,2219.29
222007,2220.07
222083,2220.83
222156,2221.56
222229,2222.29
222299,2222.99
222371,2223.71
222443,2224.43
222514,2225.14
222583,2225.83
222652,2226.52
222720,2227.2
222788,2227.88
222854,2228.54
222919,2229.19
222982,2229.82
223047,2230.47
223112,2231.12
223178,2231.78
223243,2232.43
223308,2233.08
223383,2233.83
223459,2234.59
223531,2235.31
223603,2236.03
223680,2236.8
223756,2237.56
223834,2238.34
223920,2239.2
224002,2240.02
224082,2240.82
224160,2241.6
224236,2242.36
224312,2243.12
224390,2243.9
224473,2244.73
224558,2245.58
224643,2246.43
224725,2247.25
224807,2248.07
224880,2248.8
224951,2249.51
225024,2250.24
225120,2251.2
225216,2252.16
225300,2253.0
225382,2253.82
225465,2254.65
225553,2255.53
225642,2256.42
225733,2257.33
225825,2258.25
225916,2259.16
226006,2260.06
226096,2260.96
226184,2261.84
226273,2262.73
226363,2263.63
226451,2264.51
226536,2265.36
226623,2266.23
226711,2267.11
226796,2267.96
226878,2268.78
226960,2269.6
227043,2270.43
227125,2271.25
227209,2272.09
227293,2272.93
227378,2273.78
227461,2274.61
227539,2275.39
227605,2276.05
227672,2276.72
227746,2277.46
227821,2278.21
227892,2278.92
227966,2279.66
228042,2280.42
228126,2281.26
228210,2282.1
228290,2282.9
228370,2283.7
228453,2284.53
228538,2285.38
228623,2286.23
228707,2287.07
228793,2287.93
228881,2288.81
228969,2289.69
229056,2290.56
229140,2291.4
229229,2292.29
229316,2293.16
229404,2294.04
229492,2294.92
229576,2295.76
229656,2296.56
229736,2297.36
229818,2298.18
229896,2298.96
229976,2299.76
230058,2300.58
230137,2301.37
230214,2302.14
230290,2302.9
230364,2303.64
230436,2304.36
230507,2305.07
230579,2305.79
230651,2306.51
230726,2307.26
230799,2307.99
230872,2308.72
230948,2309.48
231027,2310.27
231108,2311.08
231192,2311.92
231273,2312.73
231350,2313.5
231434,2314.34
231519,2315.19
231599,2315.99
231674,2316.74
231750,2317.5
231831,2318.31
231910,2319.1
231994,2319.94
232074,2320.74
232150,2321.5
232227,2322.27
232309,2323.09
232406,2324.06
232504,2325.04
232589,2325.89
232673,2326.73
232755,2327.55
232837,2328.37
232920,2329.2
233003,2330.03
233088,2330.88
233174,2331.74
233263,2332.63
233347,2333.47
233432,2334.32
233515,2335.15
233598,2335.98
233681,2336.81
233760,2337.6
233838,2338.38
233915,2339.15
233993,2339.93
234069,2340.69
234143,2341.43
234211,2342.11
234281,2342.81
234353,2343.53
234423,2344.23
234494,2344.94
234564,2345.64
234632,2346.32
234702,2347.02
234776,2347.76
234854,2348.54
234936,2349.36
235021,2350.21
235108,2351.08
235193,2351.93
235278,2352.78
235363,2353.63
235455,2354.55
235546,2355.46
235628,2356.28
235710,2357.1
235810,2358.1
235911,2359.11
236000,2360.0
236088,2360.88
236174,2361.74
236260,2362.6
236347,2363.47
236437,2364.37
236529,2365.29
236619,2366.19
236706,2367.06
236790,2367.9
236874,2368.74
236954,2369.54
237030,2370.3
237105,2371.05
237177,2371.77
237244,2372.44
237311,2373.11
237378,2373.78
237457,2374.57
237536,2375.36
237615,2376.15
237694,2376.94
237791,2377.91
237892,2378.92
237991,2379.91
238091,2380.91
238183,2381.83
238271,2382.71
238356,2383.56
238441,2384.41
238524,2385.24
238609,2386.09
238695,2386.95
238780,2387.8
238867,2388.67
238956,2389.56
239042,2390.42
239128,2391.28
239216,2392.16
239305,2393.05
239394,2393.94
239483,2394.83
239571,2395.71
239659,2396.59
239745,2397.45
239832,2398.32
239919,2399.19
240005,2400.05
240092,2400.92
240180,2401.8
240268,2402.68
240354,2403.54
240442,2404.42
240530,2405.3
240618,2406.18
240706,2407.06
240794,2407.94
240880,2408.8
240968,2409.68
241057,2410.57
241146,2411.46
241234,2412.34
241320,2413.2
241408,2414.08
241495,2414.95
241585,2415.85
241673,2416.73
241757,2417.57
241837,2418.37
241919,2419.19
241999,2419.99
242076,2420.76
242152,2421.52
242226,2422.26
242293,2422.93
242363,2423.63
242438,2424.38
242520,2425.2
242614,2426.14
242704,2427.04
242791,2427.91
242877,2428.77
242965,2429.65
243054,2430.54
243144,2431.44
243233,2432.33
243317,2433.17
243402,2434.02
243488,2434.88
243570,2435.7
243657,2436.57
243743,2437.43
243830,2438.3
243917,2439.17
244000,2440.0
244081,2440.81
244162,2441.62
244239,2442.39
244319,2443.19
244395,2443.95
244469,2444.69
244546,2445.46
244627,2446.27
244707,2447.07
244788,2447.88
244868,2448.68
244951,2449.51
245035,2450.35
245117,2451.17
245197,2451.97
245274,2452.74
245345,2453.45
245416,2454.16
245491,2454.91
245572,2455.72
245665,2456.65
245759,2457.59
245841,2458.41
245919,2459.19
245994,2459.94
246071,2460.71
246153,2461.53
246248,2462.48
246344,2463.44
246432,2464.32
246522,2465.22
246614,2466.14
246699,2466.99
246784,2467.84
246868,2468.68
246951,2469.51
247033,2470.33
247117,2471.17
247198,2471.98
247280,2472.8
247363,2473.63
247447,2474.47
247528,2475.28
247606,2476.06
247683,2476.83
247754,2477.54
247826,2478.26
247902,2479.02
247978,2479.78
248049,2480.49
248119,2481.19
248187,2481.87
248256,2482.56
248325,2483.25
248391,2483.91
248456,2484.56
248525,2485.25
248595,2485.95
248665,2486.65
248735,2487.35
248804,2488.04
248871,2488.71
248938,2489.38
248999,2489.99
249063,2490.63
249125,2491.25
249185,2491.85
249251,2492.51
249318,2493.18
249389,2493.89
249460,2494.6
249547,2495.47
249636,2496.36
249727,2497.27
249819,2498.19
249910,2499.1
249992,2499.92
250071,2500.71
250148,2501.48
250222,2502.22
250296,2502.96
250366,2503.66
250435,2504.35
250504,2505.04
250574,2505.74
250644,2506.44
250716,2507.16
250789,2507.89
250864,2508.64
250942,2509.42
251012,2510.12
251081,2510.81
251150,2511.5
251215,2512.15
251276,2512.76
251340,2513.4
251402,2514.02
251470,2514.7
251552,2515.52
251643,2516.43
251738,2517.38
251828,2518.28
251910,2519.1
251984,2519.84
252057,2520.57
252129,2521.29
252198,2521.98
252268,2522.68
252342,2523.42
252417,2524.17
252495,2524.95
252571,2525.71
252643,2526.43
252717,2527.17
252805,2528.05
252899,2528.99
252989,2529.89
253080,2530.8
253171,2531.71
253258,2532.58
253345,2533.45
253434,2534.34
253528,2535.28
253621,2536.21
253713,2537.13
253802,2538.02
253893,2538.93
253981,2539.81
254075,2540.75
254167,2541.67
254257,2542.57
254348,2543.48
254435,2544.35
254523,2545.23
254613,2546.13
254706,2547.06
254795,2547.95
254886,2548.86
254975,2549.75
255058,2550.58
255136,2551.36
255210,2552.1
255290,2552.9
255382,2553.82
255471,2554.71
255557,2555.57
255644,2556.44
255737,2557.37
255828,2558.28
255918,2559.18
256008,2560.08
256098,2560.98
256182,2561.82
256268,2562.68
256355,2563.55
256446,2564.46
256535,2565.35
256625,2566.25
256715,2567.15
256801,2568.01
256891,2568.91
256979,2569.79
257069,2570.69
257157,2571.57
257246,2572.46
257333,2573.33
257421,2574.21
257514,2575.14
257608,2576.08
257703,2577.03
257792,2577.92
257879,2578.79
257968,2579.68
258062,2580.62
258158,2581.58
258250,2582.5
258337,2583.37
258423,2584.23
258509,2585.09
258600,2586.0
258693,2586.93
258786,2587.86
258881,2588.81
258971,2589.71
259057,2590.57
259143,2591.43
259232,2592.32
259323,2593.23
259414,2594.14
259502,2595.02
259588,2595.88
259678,2596.78
259767,2597.67
259857,2598.57
259946,2599.46
260037,2600.37
260126,2601.26
260210,2602.1
260294,2602.94
260381,2603.81
260469,2604.69
260558,2605.58
260646,2606.46
260730,2607.3
260815,2608.15
260902,2609.02
260992,2609.92
261080,2610.8
261168,2611.68
261252,2612.52
261335,2613.35
261422,2614.22
261511,2615.11
261602,2616.02
261693,2616.93
261781,2617.81
261867,2618.67
261953,2619.53
262042,2620.42
262132,2621.32
262222,2622.22
262310,2623.1
262397,2623.97
262484,2624.84
262572,2625.72
262668,2626.68
262761,2627.61
262854,2628.54
262946,2629.46
263036,2630.36
263125,2631.25
263218,2632.18
263310,2633.1
263405,2634.05
263498,2634.98
263588,2635.88
263675,2636.75
263762,2637.62
263853,2638.53
263945,2639.45
264038,2640.38
264135,2641.35
264227,2642.27
264317,2643.17
264411,2644.11
264509,2645.09
264608,2646.08
264702,2647.02
264794,2647.94
264879,2648.79
264967,2649.67
265058,2650.58
265149,2651.49
265240,2652.4
265331,2653.31
265420,2654.2
265507,2655.07
265599,2655.99
265692,2656.92
265785,2657.85
265878,2658.78
265971,2659.71
266061,2660.61
266152,2661.52
266238,2662.38
266327,2663.27
266415,2664.15
266498,2664.98
266575,2665.75
266651,2666.51
266719,2667.19
266791,2667.91
266857,2668.57
266922,2669.22
266993,2669.93
267065,2670.65
267157,2671.57
267263,2672.63
267368,2673.68
267470,2674.7
267563,2675.63
267650,2676.5
267740,2677.4
267834,2678.34
267929,2679.29
268024,2680.24
268121,2681.21
268212,2682.12
268302,2683.02
268390,2683.9
268484,2684.84
268580,2685.8
268677,2686.77
268773,2687.73
268866,2688.66
268959,2689.59
269052,2690.52
269144,2691.44
269234,2692.34
269324,2693.24
269418,2694.18
269518,2695.18
269620,2696.2
269720,2697.2
269817,2698.17
269918,2699.18
270015,2700.15
270109,2701.09
270198,2701.98
270289,2702.89
270382,2703.82
270483,2704.83
270579,2705.79
270673,2706.73
270770,2707.7
270871,2708.71
270971,2709.71
271069,2710.69
271168,2711.68
271265,2712.65
271358,2713.58
271450,2714.5
271541,2715.41
271633,2716.33
271723,2717.23
271811,2718.11
271901,2719.01
271993,2719.93
272084,2720.84
272176,2721.76
272268,2722.68
272358,2723.58
272452,2724.52
272543,2725.43
272633,2726.33
272717,2727.17
272799,2727.99
272883,2728.83
272968,2729.68
273055,2730.55
273142,2731.42
273229,2732.29
273313,2733.13
273399,2733.99
273485,2734.85
273570,2735.7
273651,2736.51
273727,2737.27
273803,2738.03
273881,2738.81
273955,2739.55
274037,2740.37
274127,2741.27
274219,2742.19
274308,2743.08
274395,2743.95
274477,2744.77
274566,2745.66
274659,2746.59
274754,2747.54
274847,2748.47
274938,2749.38
275024,2750.24
275103,2751.03
275177,2751.77
275252,2752.52
275333,2753.33
275422,2754.22
275511,2755.11
275594,2755.94
275676,2756.76
275759,2757.59
275849,2758.49
275939,2759.39
276034,2760.34
276126,2761.26
276219,2762.19
276314,2763.14
276412,2764.12
276511,2765.11
276607,2766.07
276706,2767.06
276807,2768.07
276900,2769.0
276995,2769.95
277090,2770.9
277186,2771.86
277286,2772.86
277386,2773.86
277493,2774.93
277593,2775.93
277691,2776.91
277787,2777.87
277879,2778.79
277971,2779.71
278065,2780.65
278156,2781.56
278249,2782.49
278343,2783.43
278434,2784.34
278523,2785.23
278609,2786.09
278698,2786.98
278787,2787.87
278876,2788.76
278965,2789.65
279057,2790.57
279144,2791.44
279233,2792.33
279322,2793.22
279409,2794.09
279497,2794.97
279584,2795.84
279672,2796.72
279763,2797.63
279853,2798.53
279939,2799.39
280026,2800.26
280112,2801.12
280199,2801.99
280285,2802.85
280370,2803.7
280454,2804.54
280541,2805.41
280629,2806.29
280721,2807.21
280813,2808.13
280898,2808.98
280984,2809.84
281072,2810.72
281161,2811.61
281252,2812.52
281346,2813.46
281435,2814.35
281528,2815.28
281623,2816.23
281718,2817.18
281813,2818.13
281908,2819.08
282001,2820.01
282095,2820.95
282188,2821.88
282280,2822.8
282369,2823.69
282458,2824.58
282549,2825.49
282639,2826.39
282728,2827.28
282817,2828.17
282908,2829.08
282997,2829.97
283084,2830.84
283174,2831.74
283265,2832.65
283356,2833.56
283447,2834.47
283536,2835.36
283624,2836.24
283715,2837.15
283808,2838.08
283904,2839.04
283995,2839.95
284081,2840.81
284166,2841.66
284254,2842.54
284346,2843.46
284438,2844.38
284526,2845.26
284614,2846.14
284708,2847.08
284802,2848.02
284899,2848.99
284994,2849.94
285091,2850.91
285192,2851.92
285297,2852.97
285400,2854.0
285497,2854.97
285589,2855.89
285678,2856.78
285768,2857.68
285859,2858.59
285949,2859.49
286039,2860.39
286125,2861.25
286212,2862.12
286303,2863.03
286399,2863.99
286491,2864.91
286580,2865.8
286670,2866.7
286762,2867.62
286855,2868.55
286945,2869.45
287035,2870.35
287125,2871.25
287217,2872.17
287310,2873.1
287400,2874.0
287490,2874.9
287578,2875.78
287666,2876.66
287755,2877.55
287845,2878.45
287934,2879.34
288023,2880.23
288110,2881.1
288202,2882.02
288295,2882.95
288383,2883.83
288469,2884.69
288558,2885.58
288647,2886.47
288735,2887.35
288819,2888.19
288905,2889.05
288993,2889.93
289079,2890.79
289166,2891.66
289251,2892.51
289336,2893.36
289428,2894.28
289520,2895.2
289610,2896.1
289699,2896.99
289786,2897.86
289876,2898.76
289968,2899.68
290058,2900.58
290148,2901.48
290238,2902.38
290330,2903.3
290420,2904.2
290508,2905.08
290599,2905.99
290691,2906.91
290780,2907.8
290867,2908.67
290953,2909.53
291041,2910.41
291128,2911.28
291214,2912.14
291298,2912.98
291383,2913.83
291469,2914.69
291561,2915.61
291655,2916.55
291747,2917.47
291834,2918.34
291918,2919.18
291997,2919.97
292066,2920.66
292133,2921.33
292201,2922.01
292269,2922.69
292339,2923.39
292410,2924.1
292481,2924.81
292552,2925.52
292623,2926.23
292692,2926.92
292758,2927.58
292825,2928.25
292892,2928.92
292963,2929.63
293047,2930.47
293137,2931.37
293225,2932.25
293309,2933.09
293394,2933.94
293489,2934.89
293593,2935.93
293692,2936.92
293786,2937.86
293872,2938.72
293964,2939.64
294058,2940.58
294151,2941.51
294249,2942.49
294343,2943.43
294436,2944.36
294530,2945.3
294624,2946.24
294714,2947.14
294801,2948.01
294888,2948.88
294979,2949.79
295070,2950.7
295163,2951.63
295253,2952.53
295343,2953.43
295436,2954.36
295528,2955.28
295620,2956.2
295708,2957.08
295799,2957.99
295892,2958.92
295983,2959.83
296070,2960.7
296154,2961.54
296242,2962.42
296332,2963.32
296423,2964.23
296516,2965.16
296604,2966.04
296695,2966.95
296787,2967.87
296882,2968.82
296973,2969.73
297062,2970.62
297151,2971.51
297242,2972.42
297334,2973.34
297429,2974.29
297519,2975.19
297610,2976.1
297702,2977.02
297796,2977.96
297886,2978.86
297977,2979.77
298069,2980.69
298163,2981.63
298256,2982.56
298347,2983.47
298437,2984.37
298532,2985.32
298622,2986.22
298712,2987.12
298801,2988.01
298891,2988.91
298983,2989.83
299072,2990.72
299158,2991.58
299249,2992.49
299341,2993.41
299440,2994.4
299531,2995.31
299621,2996.21
299715,2997.15
299813,2998.13
299908,2999.08
300003,3000.03
300093,3000.93
300185,3001.85
300275,3002.75
300363,3003.63
300447,3004.47
300531,3005.31
300618,3006.18
300704,3007.04
300794,3007.94
300886,3008.86
300976,3009.76
301072,3010.72
301169,3011.69
301268,3012.68
301365,3013.65
301460,3014.6
301554,3015.54
301649,3016.49
301741,3017.41
301834,3018.34
301922,3019.22
302010,3020.1
302096,3020.96
302183,3021.83
302273,3022.73
302369,3023.69
302467,3024.67
302565,3025.65
302656,3026.56
302745,3027.45
302836,3028.36
302924,3029.24
303013,3030.13
303102,3031.02
303193,3031.93
303282,3032.82
303374,3033.74
303460,3034.6
303545,3035.45
303629,3036.29
303711,3037.11
303791,3037.91
303869,3038.69
303941,3039.41
304017,3040.17
304105,3041.05
304189,3041.89
304277,3042.77
304361,3043.61
304451,3044.51
304544,3045.44
304638,3046.38
304730,3047.3
304820,3048.2
304916,3049.16
305011,3050.11
305107,3051.07
305200,3052.0
305292,3052.92
305385,3053.85
305479,3054.79
305575,3055.75
305670,3056.7
305760,3057.6
305850,3058.5
305941,3059.41
306036,3060.36
306129,3061.29
306220,3062.2
306310,3063.1
306405,3064.05
306507,3065.07
306603,3066.03
306695,3066.95
306783,3067.83
306876,3068.76
306972,3069.72
307078,3070.78
307179,3071.79
307277,3072.77
307371,3073.71
307467,3074.67
307563,3075.63
307665,3076.65
307764,3077.64
307864,3078.64
307960,3079.6
308056,3080.56
308148,3081.48
308236,3082.36
308324,3083.24
308415,3084.15
308509,3085.09
308604,3086.04
308697,3086.97
308790,3087.9
308884,3088.84
308984,3089.84
309084,3090.84
309175,3091.75
309266,3092.66
309364,3093.64
309457,3094.57
309548,3095.48
309637,3096.37
309726,3097.26
309819,3098.19
309913,3099.13
310005,3100.05
310093,3100.93
310188,3101.88
310285,3102.85
310387,3103.87
310490,3104.9
310589,3105.89
310683,3106.83
310780,3107.8
310877,3108.77
310969,3109.69
311061,3110.61
311155,3111.55
311248,3112.48
311338,3113.38
311427,3114.27
311515,3115.15
311603,3116.03
311691,3116.91
311778,3117.78
311864,3118.64
311956,3119.56
312046,3120.46
312132,3121.32
312216,3122.16
312300,3123.0
312386,3123.86
312470,3124.7
312550,3125.5
312628,3126.28
312703,3127.03
312774,3127.74
312843,3128.43
312910,3129.1
312978,3129.78
313051,3130.51
313127,3131.27
313202,3132.02
313277,3132.77
313360,3133.6
313445,3134.45
313530,3135.3
313611,3136.11
313692,3136.92
313789,3137.89
313890,3138.9
313986,3139.86
314086,3140.86
314180,3141.8
314274,3142.74
314367,3143.67
314462,3144.62
314558,3145.58
314657,3146.57
314756,3147.56
314850,3148.5
314940,3149.4
315028,3150.28
315120,3151.2
315215,3152.15
315310,3153.1
315400,3154.0
315487,3154.87
315575,3155.75
315663,3156.63
315751,3157.51
315838,3158.38
315922,3159.22
316010,3160.1
316099,3160.99
316190,3161.9
316278,3162.78
316362,3163.62
316448,3164.48
316535,3165.35
316623,3166.23
316709,3167.09
316799,3167.99
316892,3168.92
316985,3169.85
317075,3170.75
317164,3171.64
317250,3172.5
317338,3173.38
317427,3174.27
317516,3175.16
317603,3176.03
317689,3176.89
317779,3177.79
317870,3178.7
317962,3179.62
318051,3180.51
318138,3181.38
318228,3182.28
318319,3183.19
318413,3184.13
318503,3185.03
318593,3185.93
318687,3186.87
318786,3187.86
318884,3188.84
318978,3189.78
319067,3190.67
319160,3191.6
319260,3192.6
319356,3193.56
319458,3194.58
319559,3195.59
319663,3196.63
319759,3197.59
319851,3198.51
319945,3199.45
320040,3200.4
320131,3201.31
320226,3202.26
320322,3203.22
320413,3204.13
320505,3205.05
320596,3205.96
320685,3206.85
320775,3207.75
320868,3208.68
320961,3209.61
321052,3210.52
321141,3211.41
321231,3212.31
321321,3213.21
321408,3214.08
321496,3214.96
321583,3215.83
321669,3216.69
321757,3217.57
321848,3218.48
321939,3219.39
322030,3220.3
322120,3221.2
322213,3222.13
322309,3223.09
322402,3224.02
322491,3224.91
322582,3225.82
322674,3226.74
322765,3227.65
322854,3228.54
322942,3229.42
323034,3230.34
323124,3231.24
323214,3232.14
323303,3233.03
323389,3233.89
323476,3234.76
323567,3235.67
323662,3236.62
323756,3237.56
323853,3238.53
323953,3239.53
324048,3240.48
324140,3241.4
324229,3242.29
324319,3243.19
324414,3244.14
324511,3245.11
324606,3246.06
324696,3246.96
324783,3247.83
324869,3248.69
324958,3249.58
325048,3250.48
325137,3251.37
325227,3252.27
325321,3253.21
325416,3254.16
325511,3255.11
325605,3256.05
325702,3257.02
325803,3258.03
325899,3258.99
325992,3259.92
326082,3260.82
326178,3261.78
326274,3262.74
326373,3263.73
326468,3264.68
326559,3265.59
326654,3266.54
326748,3267.48
326841,3268.41
326935,3269.35
327027,3270.27
327119,3271.19
327215,3272.15
327306,3273.06
327394,3273.94
327483,3274.83
327571,3275.71
327661,3276.61
327749,3277.49
327838,3278.38
327933,3279.33
328031,3280.31
328127,3281.27
328220,3282.2
328312,3283.12
328408,3284.08
328502,3285.02
328593,3285.93
328685,3286.85
328782,3287.82
328879,3288.79
328972,3289.72
329066,3290.66
329162,3291.62
329257,3292.57
329347,3293.47
329439,3294.39
329532,3295.32
329626,3296.26
329715,3297.15
329802,3298.02
329890,3298.9
329978,3299.78
330068,3300.68
330155,3301.55
330242,3302.42
330332,3303.32
330427,3304.27
330517,3305.17
330605,3306.05
330691,3306.91
330778,3307.78
330862,3308.62
330947,3309.47
331029,3310.29
331115,3311.15
331206,3312.06
331297,3312.97
331385,3313.85
331476,3314.76
331570,3315.7
331664,3316.64
331755,3317.55
331846,3318.46
331939,3319.39
332033,3320.33
332122,3321.22
332208,3322.08
332300,3323.0
332394,3323.94
332484,3324.84
332573,3325.73
332664,3326.64
332755,3327.55
332845,3328.45
332937,3329.37
333029,3330.29
333122,3331.22
333215,3332.15
333307,3333.07
333398,3333.98
333493,3334.93
333587,3335.87
333679,3336.79
333769,3337.69
333857,3338.57
333948,3339.48
334038,3340.38
334127,3341.27
334215,3342.15
334304,3343.04
334398,3343.98
334492,3344.92
334583,3345.83
334670,3346.7
334759,3347.59
334848,3348.48
334939,3349.39
335030,3350.3
335122,3351.22
335218,3352.18
335312,3353.12
335407,3354.07
335499,3354.99
335594,3355.94
335688,3356.88
335782,3357.82
335876,3358.76
335966,3359.66
336055,3360.55
336145,3361.45
336236,3362.36
336325,3363.25
336412,3364.12
336498,3364.98
336587,3365.87
336676,3366.76
336763,3367.63
336850,3368.5
336937,3369.37
337028,3370.28
337119,3371.19
337208,3372.08
337297,3372.97
337387,3373.87
337478,3374.78
337568,3375.68
337655,3376.55
337742,3377.42
337831,3378.31
337922,3379.22
338010,3380.1
338097,3380.97
338187,3381.87
338278,3382.78
338367,3383.67
338453,3384.53
338540,3385.4
338630,3386.3
338720,3387.2
338811,3388.11
338900,3389.0
338990,3389.9
339089,3390.89
339189,3391.89
339283,3392.83
339373,3393.73
339465,3394.65
339557,3395.57
339653,3396.53
339746,3397.46
339835,3398.35
339927,3399.27
340022,3400.22
340121,3401.21
340217,3402.17
340310,3403.1
340406,3404.06
340501,3405.01
340596,3405.96
340686,3406.86
340775,3407.75
340864,3408.64
340956,3409.56
341048,3410.48
341141,3411.41
341239,3412.39
341339,3413.39
341435,3414.35
341529,3415.29
341623,3416.23
341717,3417.17
341805,3418.05
341892,3418.92
341980,3419.8
342069,3420.69
342158,3421.58
342246,3422.46
342334,3423.34
342426,3424.26
342521,3425.21
342614,3426.14
342703,3427.03
342795,3427.95
342890,3428.9
342983,3429.83
343076,3430.76
343167,3431.67
343258,3432.58
343352,3433.52
343445,3434.45
343537,3435.37
343629,3436.29
343718,3437.18
343807,3438.07
343900,3439.0
343993,3439.93
344085,3440.85
344173,3441.73
344260,3442.6
344351,3443.51
344441,3444.41
344529,3445.29
344615,3446.15
344705,3447.05
344797,3447.97
344887,3448.87
344973,3449.73
345057,3450.57
345143,3451.43
345232,3452.32
345324,3453.24
345415,3454.15
345507,3455.07
345606,3456.06
345706,3457.06
345806,3458.06
345901,3459.01
345993,3459.93
346086,3460.86
346182,3461.82
346283,3462.83
346379,3463.79
346474,3464.74
346572,3465.72
346670,3466.7
346769,3467.69
346864,3468.64
346959,3469.59
347053,3470.53
347150,3471.5
347248,3472.48
347344,3473.44
347437,3474.37
347529,3475.29
347619,3476.19
347713,3477.13
347806,3478.06
347902,3479.02
348002,3480.02
348097,3480.97
348187,3481.87
348275,3482.75
348362,3483.62
348451,3484.51
348536,3485.36
348620,3486.2
348706,3487.06
348792,3487.92
348881,3488.81
348970,3489.7
349057,3490.57
349149,3491.49
349241,3492.41
349329,3493.29
349415,3494.15
349500,3495.0
349587,3495.87
349676,3496.76
349765,3497.65
349850,3498.5
349935,3499.35
350024,3500.24
350117,3501.17
350211,3502.11
350302,3503.02
350403,3504.03
350507,3505.07
350605,3506.05
350697,3506.97
350788,3507.88
350879,3508.79
350968,3509.68
351056,3510.56
351143,3511.43
351229,3512.29
351315,3513.15
351404,3514.04
351495,3514.95
351583,3515.83
351671,3516.71
351757,3517.57
351848,3518.48
351943,3519.43
352041,3520.41
352135,3521.35
352228,3522.28
352321,3523.21
352412,3524.12
352500,3525.0
352584,3525.84
352671,3526.71
352762,3527.62
352856,3528.56
352948,3529.48
353038,3530.38
353130,3531.3
353223,3532.23
353320,3533.2
353412,3534.12
353505,3535.05
353599,3535.99
353692,3536.92
353784,3537.84
353873,3538.73
353962,3539.62
354055,3540.55
354148,3541.48
354238,3542.38
354327,3543.27
354420,3544.2
354514,3545.14
354608,3546.08
354697,3546.97
354784,3547.84
354876,3548.76
354968,3549.68
355060,3550.6
355149,3551.49
355238,3552.38
355330,3553.3
355423,3554.23
355512,3555.12
355599,3555.99
355685,3556.85
355770,3557.7
355855,3558.55
355941,3559.41
356025,3560.25
356108,3561.08
356194,3561.94
356281,3562.81
356368,3563.68
356455,3564.55
356546,3565.46
356638,3566.38
356729,3567.29
356821,3568.21
356910,3569.1
357000,3570.0
357090,3570.9
357180,3571.8
357268,3572.68
357360,3573.6
357454,3574.54
357547,3575.47
357638,3576.38
357726,3577.26
357815,3578.15
357907,3579.07
357999,3579.99
358090,3580.9
358181,3581.81
358269,3582.69
358363,3583.63
358454,3584.54
358546,3585.46
358634,3586.34
358722,3587.22
358815,3588.15
358908,3589.08
359001,3590.01
359089,3590.89
359177,3591.77
359267,3592.67
359357,3593.57
359447,3594.47
359533,3595.33
359619,3596.19
359706,3597.06
359795,3597.95
359884,3598.84
359970,3599.7
360057,3600.57
360147,3601.47
360238,3602.38
360328,3603.28
360414,3604.14
360501,3605.01
360592,3605.92
360686,3606.86
360780,3607.8
360869,3608.69
360963,3609.63
361056,3610.56
361149,3611.49
361237,3612.37
361323,3613.23
361409,3614.09
361499,3614.99
361590,3615.9
361682,3616.82
361769,3617.69
361860,3618.6
361954,3619.54
362051,3620.51
362147,3621.47
362240,3622.4
362329,3623.29
362422,3624.22
362515,3625.15
362609,3626.09
362702,3627.02
362792,3627.92
362883,3628.83
362978,3629.78
363069,3630.69
363158,3631.58
363246,3632.46
363336,3633.36
363425,3634.25
363515,3635.15
363601,3636.01
363686,3636.86
363775,3637.75
363869,3638.69
363962,3639.62
364051,3640.51
364139,3641.39
364228,3642.28
364318,3643.18
364408,3644.08
364496,3644.96
364581,3645.81
364669,3646.69
364756,3647.56
364845,3648.45
364930,3649.3
365014,3650.14
365101,3651.01
365192,3651.92
365285,3652.85
365372,3653.72
365459,3654.59
365545,3655.45
365629,3656.29
365715,3657.15
365800,3658.0
365883,3658.83
365961,3659.61
366033,3660.33
366098,3660.98
366162,3661.62
366223,3662.23
366282,3662.82
366340,3663.4
366396,3663.96
366453,3664.53
366510,3665.1
366566,3665.66
366622,3666.22
366677,3666.77
366732,3667.32
366787,3667.87
366842,3668.42
366896,3668.96
366951,3669.51
367004,3670.04
367058,3670.58
367111,3671.11
367164,3671.64
367216,3672.16
367269,3672.69
367321,3673.21
367374,3673.74
367426,3674.26
367478,3674.78
367531,3675.31
367583,3675.83
367636,3676.36
367689,3676.89
367742,3677.42
367795,3677.95
367849,3678.49
367903,3679.03
367957,3679.57
368011,3680.11
368065,3680.65
368119,3681.19
368174,3681.74
368229,3682.29
368284,3682.84
368339,3683.39
368393,3683.93
368448,3684.48
368502,3685.02
368557,3685.57
368611,3686.11
368667,3686.67
368724,3687.24
368783,3687.83
368842,3688.42
368900,3689.0
368957,3689.57
369015,3690.15
369072,3690.72
369130,3691.3
369188,3691.88
369245,3692.45
369304,3693.04
369364,3693.64
369425,3694.25
369485,3694.85
369546,3695.46
369605,3696.05
369663,3696.63
369722,3697.22
369781,3697.81
369839,3698.39
369897,3698.97
369956,3699.56
370016,3700.16
370080,3700.8
370146,3701.46
370212,3702.12
370275,3702.75
370337,3703.37
370400,3704.0
370465,3704.65
370531,3705.31
370594,3705.94
370657,3706.57
370718,3707.18
370778,3707.78
370838,3708.38
370897,3708.97
370956,3709.56
371016,3710.16
371075,3710.75
371137,3711.37
371203,3712.03
371278,3712.78
371350,3713.5
371416,3714.16
371480,3714.8
371544,3715.44
371609,3716.09
371681,3716.81
371757,3717.57
371839,3718.39
371931,3719.31
372024,3720.24
372104,3721.04
372177,3721.77
372245,3722.45
372309,3723.09
372370,3723.7
372433,3724.33
372504,3725.04
372574,3725.74
372639,3726.39
372706,3727.06
372777,3727.77
372854,3728.54
372948,3729.48
373035,3730.35
373120,3731.2
373203,3732.03
373287,3732.87
373367,3733.67
373443,3734.43
373516,3735.16
373587,3735.87
373653,3736.53
373719,3737.19
373787,3737.87
373860,3738.6
373932,3739.32
374001,3740.01
374069,3740.69
374143,3741.43
374225,3742.25
374312,3743.12
374400,3744.0
374487,3744.87
374577,3745.77
374666,3746.66
374752,3747.52
374837,3748.37
374921,3749.21
375005,3750.05
375087,3750.87
375170,3751.7
375255,3752.55
375339,3753.39
375425,3754.25
375512,3755.12
375597,3755.97
375681,3756.81
375764,3757.64
375844,3758.44
375919,3759.19
375988,3759.88
376053,3760.53
376116,3761.16
376180,3761.8
376242,3762.42
376309,3763.09
376393,3763.93
376476,3764.76
376557,3765.57
376639,3766.39
376735,3767.35
376831,3768.31
376921,3769.21
376994,3769.94
377062,3770.62
377130,3771.3
377204,3772.04
377306,3773.06
377408,3774.08
377499,3774.99
377593,3775.93
377687,3776.87
377786,3777.86
377885,3778.85
377979,3779.79
378070,3780.7
378163,3781.63
378250,3782.5
378336,3783.36
378420,3784.2
378505,3785.05
378587,3785.87
378668,3786.68
378751,3787.51
378835,3788.35
378920,3789.2
379008,3790.08
379091,3790.91
379173,3791.73
379255,3792.55
379335,3793.35
379415,3794.15
379496,3794.96
379575,3795.75
379651,3796.51
379725,3797.25
379794,3797.94
379860,3798.6
379924,3799.24
379985,3799.85
380046,3800.46
380109,3801.09
380172,3801.72
380239,3802.39
380315,3803.15
380394,3803.94
380477,3804.77
380549,3805.49
380616,3806.16
380683,3806.83
380749,3807.49
380814,3808.14
380877,3808.77
380945,3809.45
381025,3810.25
381113,3811.13
381202,3812.02
381303,3813.03
381405,3814.05
381503,3815.03
381593,3815.93
381679,3816.79
381768,3817.68
381859,3818.59
381947,3819.47
382035,3820.35
382120,3821.2
382204,3822.04
382288,3822.88
382370,3823.7
382451,3824.51
382536,3825.36
382618,3826.18
382700,3827.0
382781,3827.81
382860,3828.6
382936,3829.36
383008,3830.08
383076,3830.76
383143,3831.43
383213,3832.13
383281,3832.81
383348,3833.48
383415,3834.15
383480,3834.8
383543,3835.43
383612,3836.12
383690,3836.9
383774,3837.74
383859,3838.59
383957,3839.57
384065,3840.65
384174,3841.74
384272,3842.72
384367,3843.67
384462,3844.62
384557,3845.57
384649,3846.49
384737,3847.37
384826,3848.26
384917,3849.17
385012,3850.12
385102,3851.02
385189,3851.89
385275,3852.75
385365,3853.65
385457,3854.57
385548,3855.48
385641,3856.41
385732,3857.32
385825,3858.25
385912,3859.12
385994,3859.94
386077,3860.77
386164,3861.64
386254,3862.54
386340,3863.4
386422,3864.22
386506,3865.06
386597,3865.97
386685,3866.85
386765,3867.65
386845,3868.45
386923,3869.23
387001,3870.01
387076,3870.76
387148,3871.48
387218,3872.18
387287,3872.87
387354,3873.54
387421,3874.21
387494,3874.94
387590,3875.9
387687,3876.87
387781,3877.81
387874,3878.74
387966,3879.66
388062,3880.62
388159,3881.59
388253,3882.53
388343,3883.43
388434,3884.34
388524,3885.24
388612,3886.12
388698,3886.98
388783,3887.83
388869,3888.69
388956,3889.56
389044,3890.44
389132,3891.32
389222,3892.22
389314,3893.14
389408,3894.08
389502,3895.02
389593,3895.93
389680,3896.8
389768,3897.68
389857,3898.57
389944,3899.44
390027,3900.27
390110,3901.1
390192,3901.92
390275,3902.75
390358,3903.58
390440,3904.4
390522,3905.22
390608,3906.08
390696,3906.96
390783,3907.83
390867,3908.67
390951,3909.51
391036,3910.36
391119,3911.19
391201,3912.01
391285,3912.85
391370,3913.7
391457,3914.57
391543,3915.43
391628,3916.28
391715,3917.15
391804,3918.04
391895,3918.95
391984,3919.84
392071,3920.71
392155,3921.55
392239,3922.39
392328,3923.28
392418,3924.18
392503,3925.03
392590,3925.9
392678,3926.78
392765,3927.65
392851,3928.51
392934,3929.34
393018,3930.18
393104,3931.04
393192,3931.92
393279,3932.79
393364,3933.64
393449,3934.49
393538,3935.38
393628,3936.28
393719,3937.19
393809,3938.09
393899,3938.99
393991,3939.91
394084,3940.84
394177,3941.77
394266,3942.66
394354,3943.54
394439,3944.39
394523,3945.23
394607,3946.07
394691,3946.91
394775,3947.75
394859,3948.59
394941,3949.41
395021,3950.21
395101,3951.01
395177,3951.77
395251,3952.51
395320,3953.2
395386,3953.86
395450,3954.5
395512,3955.12
395572,3955.72
395632,3956.32
395692,3956.92
395756,3957.56
395819,3958.19
395882,3958.82
395946,3959.46
396009,3960.09
396073,3960.73
396136,3961.36
396198,3961.98
396260,3962.6
396323,3963.23
396385,3963.85
396447,3964.47
396510,3965.1
396572,3965.72
396634,3966.34
396695,3966.95
396755,3967.55
396816,3968.16
396881,3968.81
396950,3969.5
397017,3970.17
397088,3970.88
397161,3971.61
397235,3972.35
397310,3973.1
397383,3973.83
397456,3974.56
397528,3975.28
397596,3975.96
397665,3976.65
397731,3977.31
397794,3977.94
397857,3978.57
397918,3979.18
397980,3979.8
398043,3980.43
398108,3981.08
398173,3981.73
398236,3982.36
398301,3983.01
398374,3983.74
398452,3984.52
398548,3985.48
398644,3986.44
398740,3987.4
398834,3988.34
398924,3989.24
399010,3990.1
399093,3990.93
399182,3991.82
399275,3992.75
399374,3993.74
399462,3994.62
399545,3995.45
399628,3996.28
399714,3997.14
399802,3998.02
399891,3998.91
399983,3999.83
400075,4000.75
400165,4001.65
400251,4002.51
400333,4003.33
400411,4004.11
400487,4004.87
400557,4005.57
400627,4006.27
400700,4007.0
400776,4007.76
400856,4008.56
400940,4009.4
401021,4010.21
401105,4011.05
401181,4011.81
401252,4012.52
401324,4013.24
401400,4014.0
401479,4014.79
401558,4015.58
401642,4016.42
401721,4017.21
401801,4018.01
401881,4018.81
401969,4019.69
402058,4020.58
402140,4021.4
402225,4022.25
402307,4023.07
402389,4023.89
402470,4024.7
402545,4025.45
402613,4026.13
402680,4026.8
402747,4027.47
402814,4028.14
402881,4028.81
402946,4029.46
403016,4030.16
403104,4031.04
403187,4031.87
403265,4032.65
403339,4033.39
403416,4034.16
403500,4035.0
403597,4035.97
403695,4036.95
403781,4037.81
403873,4038.73
403965,4039.65
404056,4040.56
404149,4041.49
404241,4042.41
404334,4043.34
404425,4044.25
404515,4045.15
404605,4046.05
404693,4046.93
404782,4047.82
404869,4048.69
404960,4049.6
405049,4050.49
405139,4051.39
405228,4052.28
405320,4053.2
405412,4054.12
405503,4055.03
405591,4055.91
405677,4056.77
405760,4057.6
405844,4058.44
405930,4059.3
406016,4060.16
406097,4060.97
406175,4061.75
406252,4062.52
406329,4063.29
406407,4064.07
406487,4064.87
406566,4065.66
406648,4066.48
406733,4067.33
406822,4068.22
406912,4069.12
407003,4070.03
407089,4070.89
407178,4071.78
407269,4072.69
407361,4073.61
407455,4074.55
407552,4075.52
407646,4076.46
407739,4077.39
407830,4078.3
407925,4079.25
408020,4080.2
408113,4081.13
408207,4082.07
408303,4083.03
408395,4083.95
408484,4084.84
408572,4085.72
408660,4086.6
408748,4087.48
408833,4088.33
408918,4089.18
409003,4090.03
409087,4090.87
409173,4091.73
409264,4092.64
409352,4093.52
409438,4094.38
409525,4095.25
409614,4096.14
409700,4097.0
409785,4097.85
409870,4098.7
409952,4099.52
410038,4100.38
410124,4101.24
410212,4102.12
410298,4102.98
410383,4103.83
410471,4104.71
410559,4105.59
410648,4106.48
410735,4107.35
410820,4108.2
410903,4109.03
410990,4109.9
411077,4110.77
411163,4111.63
411247,4112.47
411332,4113.32
411423,4114.23
411517,4115.17
411609,4116.09
411699,4116.99
411790,4117.9
411880,4118.8
411969,4119.69
412059,4120.59
412148,4121.48
412235,4122.35
412322,4123.22
412410,4124.1
412498,4124.98
412584,4125.84
412666,4126.66
412748,4127.48
412832,4128.32
412920,4129.2
413009,4130.09
413097,4130.97
413183,4131.83
413274,4132.74
413365,4133.65
413454,4134.54
413541,4135.41
413627,4136.27
413714,4137.14
413800,4138.0
413887,4138.87
413972,4139.72
414059,4140.59
414144,4141.44
414228,4142.28
414313,4143.13
414401,4144.01
414489,4144.89
414578,4145.78
414666,4146.66
414751,4147.51
414840,4148.4
414929,4149.29
415016,4150.16
415102,4151.02
415185,4151.85
415271,4152.71
415356,4153.56
415440,4154.4
415522,4155.22
415610,4156.1
415701,4157.01
415793,4157.93
415884,4158.84
415974,4159.74
416067,4160.67
416159,4161.59
416251,4162.51
416341,4163.41
416427,4164.27
416517,4165.17
416609,4166.09
416700,4167.0
416787,4167.87
416872,4168.72
416955,4169.55
417042,4170.42
417128,4171.28
417217,4172.17
417305,4173.05
417394,4173.94
417488,4174.88
417585,4175.85
417679,4176.79
417772,4177.72
417868,4178.68
417962,4179.62
418055,4180.55
418144,4181.44
418232,4182.32
418323,4183.23
418415,4184.15
418503,4185.03
418591,4185.91
418679,4186.79
418767,4187.67
418852,4188.52
418936,4189.36
419025,4190.25
419115,4191.15
419205,4192.05
419291,4192.91
419377,4193.77
419465,4194.65
419551,4195.51
419637,4196.37
419726,4197.26
419812,4198.12
419899,4198.99
419986,4199.86
420069,4200.69
420156,4201.56
420242,4202.42
420330,4203.3
420414,4204.14
420499,4204.99
420586,4205.86
420677,4206.77
420763,4207.63
420850,4208.5
420939,4209.39
421032,4210.32
421124,4211.24
421215,4212.15
421304,4213.04
421393,4213.93
421481,4214.81
421570,4215.7
421656,4216.56
421743,4217.43
421835,4218.35
421925,4219.25
422017,4220.17
422107,4221.07
422197,4221.97
422291,4222.91
422387,4223.87
422475,4224.75
422562,4225.62
422652,4226.52
422741,4227.41
422828,4228.28
422913,4229.13
423002,4230.02
423092,4230.92
423180,4231.8
423265,4232.65
423349,4233.49
423433,4234.33
423519,4235.19
423607,4236.07
423691,4236.91
423776,4237.76
423862,4238.62
423952,4239.52
424041,4240.41
424125,4241.25
424210,4242.1
424295,4242.95
424384,4243.84
424471,4244.71
424556,4245.56
424641,4246.41
424726,4247.26
424815,4248.15
424901,4249.01
424985,4249.85
425070,4250.7
425158,4251.58
425249,4252.49
425336,4253.36
425422,4254.22
425510,4255.1
425598,4255.98
425687,4256.87
425776,4257.76
425862,4258.62
425950,4259.5
426039,4260.39
426125,4261.25
426210,4262.1
426296,4262.96
426385,4263.85
426475,4264.75
426569,4265.69
426657,4266.57
426746,4267.46
426838,4268.38
426935,4269.35
427029,4270.29
427117,4271.17
427204,4272.04
427296,4272.96
427388,4273.88
427480,4274.8
427568,4275.68
427655,4276.55
427746,4277.46
427839,4278.39
427932,4279.32
428023,4280.23
428112,4281.12
428199,4281.99
428286,4282.86
428376,4283.76
428463,4284.63
428544,4285.44
428627,4286.27
428711,4287.11
428795,4287.95
428879,4288.79
428963,4289.63
429052,4290.52
429144,4291.44
429236,4292.36
429326,4293.26
429414,4294.14
429506,4295.06
429598,4295.98
429690,4296.9
429779,4297.79
429867,4298.67
429955,4299.55
430046,4300.46
430135,4301.35
430222,4302.22
430308,4303.08
430398,4303.98
430490,4304.9
430579,4305.79
430670,4306.7
430760,4307.6
430849,4308.49
430936,4309.36
431021,4310.21
431107,4311.07
431193,4311.93
431279,4312.79
431363,4313.63
431448,4314.48
431536,4315.36
431627,4316.27
431714,4317.14
431800,4318.0
431886,4318.86
431976,4319.76
432067,4320.67
432156,4321.56
432243,4322.43
432333,4323.33
432422,4324.22
432509,4325.09
432595,4325.95
432682,4326.82
432771,4327.71
432858,4328.58
432942,4329.42
433024,4330.24
433108,4331.08
433193,4331.93
433279,4332.79
433365,4333.65
433449,4334.49
433534,4335.34
433621,4336.21
433708,4337.08
433794,4337.94
433879,4338.79
433966,4339.66
434056,4340.56
434146,4341.46
434233,4342.33
434323,4343.23
434415,4344.15
434508,4345.08
434602,4346.02
434690,4346.9
434775,4347.75
434865,4348.65
434954,4349.54
435042,4350.42
435128,4351.28
435211,4352.11
435295,4352.95
435380,4353.8
435466,4354.66
435551,4355.51
435634,4356.34
435720,4357.2
435812,4358.12
435902,4359.02
435991,4359.91
436080,4360.8
436172,4361.72
436266,4362.66
436360,4363.6
436447,4364.47
436532,4365.32
436620,4366.2
436708,4367.08
436794,4367.94
436879,4368.79
436964,4369.64
437053,4370.53
437142,4371.42
437232,4372.32
437318,4373.18
437408,4374.08
437499,4374.99
437589,4375.89
437675,4376.75
437762,4377.62
437848,4378.48
437937,4379.37
438028,4380.28
438118,4381.18
438205,4382.05
438293,4382.93
438381,4383.81
438472,4384.72
438561,4385.61
438649,4386.49
438737,4387.37
438823,4388.23
438908,4389.08
438998,4389.98
439088,4390.88
439180,4391.8
439267,4392.67
439351,4393.51
439440,4394.4
439529,4395.29
439617,4396.17
439704,4397.04
439790,4397.9
439881,4398.81
439970,4399.7
440058,4400.58
440148,4401.48
440234,4402.34
440323,4403.23
440412,4404.12
440497,4404.97
440579,4405.79
440660,4406.6
440742,4407.42
440826,4408.26
440910,4409.1
440994,4409.94
441082,4410.82
441169,4411.69
441258,4412.58
441344,4413.44
441429,4414.29
441517,4415.17
441605,4416.05
441691,4416.91
441776,4417.76
441860,4418.6
441947,4419.47
442034,4420.34
442118,4421.18
442202,4422.02
442288,4422.88
442374,4423.74
442460,4424.6
442547,4425.47
442632,4426.32
442719,4427.19
442807,4428.07
442895,4428.95
442981,4429.81
443071,4430.71
443158,4431.58
443247,4432.47
443334,4433.34
443420,4434.2
443507,4435.07
443597,4435.97
443689,4436.89
443778,4437.78
443868,4438.68
443960,4439.6
444052,4440.52
444143,4441.43
444231,4442.31
444317,4443.17
444406,4444.06
444494,4444.94
444579,4445.79
444664,4446.64
444751,4447.51
444837,4448.37
444921,4449.21
445004,4450.04
445090,4450.9
445179,4451.79
445268,4452.68
445355,4453.55
445444,4454.44
445535,4455.35
445629,4456.29
445718,4457.18
445803,4458.03
445892,4458.92
445980,4459.8
446072,4460.72
446159,4461.59
446243,4462.43
446325,4463.25
446408,4464.08
446492,4464.92
446576,4465.76
446660,4466.6
446744,4467.44
446832,4468.32
446922,4469.22
447011,4470.11
447097,4470.97
447180,4471.8
447266,4472.66
447352,4473.52
447439,4474.39
447524,4475.24
447608,4476.08
447694,4476.94
447780,4477.8
447866,4478.66
447950,4479.5
448034,4480.34
448118,4481.18
448205,4482.05
448292,4482.92
448377,4483.77
448460,4484.6
448546,4485.46
448635,4486.35
448723,4487.23
448808,4488.08
448891,4488.91
448972,4489.72
449054,4490.54
449138,4491.38
449222,4492.22
449305,4493.05
449388,4493.88
449475,4494.75
449564,4495.64
449650,4496.5
449733,4497.33
449817,4498.17
449905,4499.05
449993,4499.93
450082,4500.82
450167,4501.67
450250,4502.5
450334,4503.34
450420,4504.2
450504,4505.04
450586,4505.86
450668,4506.68
450751,4507.51
450838,4508.38
450923,4509.23
451007,4510.07
451087,4510.87
451168,4511.68
451253,4512.53
451337,4513.37
451420,4514.2
451502,4515.02
451586,4515.86
451671,4516.71
451758,4517.58
451845,4518.45
451930,4519.3
452021,4520.21
452112,4521.12
452201,4522.01
452286,4522.86
452373,4523.73
452461,4524.61
452550,4525.5
452639,4526.39
452723,4527.23
452808,4528.08
452894,4528.94
452980,4529.8
453067,4530.67
453150,4531.5
453233,4532.33
453317,4533.17
453400,4534.0
453484,4534.84
453569,4535.69
453656,4536.56
453744,4537.44
453828,4538.28
453911,4539.11
453993,4539.93
454076,4540.76
454160,4541.6
454242,4542.42
454323,4543.23
454405,4544.05
454487,4544.87
454570,4545.7
454651,4546.51
454733,4547.33
454818,4548.18
454903,4549.03
454986,4549.86
455069,4550.69
455151,4551.51
455237,4552.37
455325,4553.25
455412,4554.12
455495,4554.95
455578,4555.78
455663,4556.63
455749,4557.49
455833,4558.33
455916,4559.16
455997,4559.97
456079,4560.79
456163,4561.63
456246,4562.46
456328,4563.28
456412,4564.12
456497,4564.97
456583,4565.83
456669,4566.69
456753,4567.53
456837,4568.37
456922,4569.22
457006,4570.06
457092,4570.92
457175,4571.75
457258,4572.58
457340,4573.4
457423,4574.23
457505,4575.05
457587,4575.87
457667,4576.67
457746,4577.46
457827,4578.27
457911,4579.11
457993,4579.93
458074,4580.74
458156,4581.56
458241,4582.41
458328,4583.28
458413,4584.13
458497,4584.97
458582,4585.82
458667,4586.67
458751,4587.51
458832,4588.32
458912,4589.12
458994,4589.94
459077,4590.77
459162,4591.62
459246,4592.46
459328,4593.28
459414,4594.14
459502,4595.02
459589,4595.89
459672,4596.72
459755,4597.55
459839,4598.39
459924,4599.24
460011,4600.11
460095,4600.95
460178,4601.78
460263,4602.63
460349,4603.49
460434,4604.34
460517,4605.17
460602,4606.02
460688,4606.88
460776,4607.76
460860,4608.6
460944,4609.44
461027,4610.27
461112,4611.12
461196,4611.96
461276,4612.76
461357,4613.57
461438,4614.38
461521,4615.21
461605,4616.05
461687,4616.87
461767,4617.67
461849,4618.49
461932,4619.32
462015,4620.15
462098,4620.98
462178,4621.78
462259,4622.59
462343,4623.43
462428,4624.28
462512,4625.12
462595,4625.95
462678,4626.78
462762,4627.62
462847,4628.47
462930,4629.3
463012,4630.12
463098,4630.98
463185,4631.85
463267,4632.67
463350,4633.5
463435,4634.35
463521,4635.21
463608,4636.08
463693,4636.93
463777,4637.77
463863,4638.63
463950,4639.5
464037,4640.37
464120,4641.2
464202,4642.02
464286,4642.86
464370,4643.7
464454,4644.54
464536,4645.36
464617,4646.17
464699,4646.99
464781,4647.81
464864,4648.64
464945,4649.45
465024,4650.24
465104,4651.04
465187,4651.87
465270,4652.7
465354,4653.54
465436,4654.36
465517,4655.17
465601,4656.01
465686,4656.86
465770,4657.7
465853,4658.53
465935,4659.35
466019,4660.19
466105,4661.05
466191,4661.91
466274,4662.74
466358,4663.58
466444,4664.44
466528,4665.28
466611,4666.11
466690,4666.9
466769,4667.69
466850,4668.5
466932,4669.32
467016,4670.16
467098,4670.98
467178,4671.78
467261,4672.61
467346,4673.46
467430,4674.3
467513,4675.13
467597,4675.97
467683,4676.83
467771,4677.71
467857,4678.57
467942,4679.42
468028,4680.28
468115,4681.15
468202,4682.02
468286,4682.86
468369,4683.69
468454,4684.54
468540,4685.4
468625,4686.25
468708,4687.08
468791,4687.91
468875,4688.75
468960,4689.6
469045,4690.45
469128,4691.28
469210,4692.1
469297,4692.97
469383,4693.83
469467,4694.67
469550,4695.5
469632,4696.32
469715,4697.15
469800,4698.0
469886,4698.86
469971,4699.71
470054,4700.54
470138,4701.38
470223,4702.23
470308,4703.08
470391,4703.91
470474,4704.74
470559,4705.59
470645,4706.45
470729,4707.29
470813,4708.13
470897,4708.97
470981,4709.81
471064,4710.64
471146,4711.46
471226,4712.26
471306,4713.06
471387,4713.87
471468,4714.68
471550,4715.5
471630,4716.3
471713,4717.13
471798,4717.98
471885,4718.85
471966,4719.66
472048,4720.48
472133,4721.33
472220,4722.2
472306,4723.06
472389,4723.89
472470,4724.7
472553,4725.53
472639,4726.39
472723,4727.23
472805,4728.05
472886,4728.86
472970,4729.7
473054,4730.54
473140,4731.4
473223,4732.23
473304,4733.04
473387,4733.87
473470,4734.7
473553,4735.53
473633,4736.33
473714,4737.14
473799,4737.99
473886,4738.86
473973,4739.73
474057,4740.57
474141,4741.41
474228,4742.28
474314,4743.14
474400,4744.0
474484,4744.84
474566,4745.66
474650,4746.5
474734,4747.34
474818,4748.18
474899,4748.99
474980,4749.8
475063,4750.63
475146,4751.46
475230,4752.3
475315,4753.15
475396,4753.96
475477,4754.77
475558,4755.58
475639,4756.39
475721,4757.21
475801,4758.01
475880,4758.8
475963,4759.63
476046,4760.46
476126,4761.26
476206,4762.06
476289,4762.89
476374,4763.74
476460,4764.6
476543,4765.43
476625,4766.25
476709,4767.09
476793,4767.93
476878,4768.78
476961,4769.61
477042,4770.42
477125,4771.25
477209,4772.09
477292,4772.92
477374,4773.74
477454,4774.54
477533,4775.33
477615,4776.15
477698,4776.98
477784,4777.84
477868,4778.68
477951,4779.51
478035,4780.35
478120,4781.2
478203,4782.03
478284,4782.84
478366,4783.66
478450,4784.5
478533,4785.33
478617,4786.17
478702,4787.02
478782,4787.82
478864,4788.64
478945,4789.45
479027,4790.27
479111,4791.11
479192,4791.92
479273,4792.73
479356,4793.56
479437,4794.37
479519,4795.19
479599,4795.99
479679,4796.79
479762,4797.62
479844,4798.44
479924,4799.24
480005,4800.05
480088,4800.88
480174,4801.74
480259,4802.59
480343,4803.43
480426,4804.26
480510,4805.1
480595,4805.95
480678,4806.78
480759,4807.59
480844,4808.44
480931,4809.31
481016,4810.16
481096,4810.96
481176,4811.76
481258,4812.58
481341,4813.41
481426,4814.26
481507,4815.07
481589,4815.89
481674,4816.74
481757,4817.57
481840,4818.4
481919,4819.19
482000,4820.0
482082,4820.82
482164,4821.64
482246,4822.46
482327,4823.27
482406,4824.06
482487,4824.87
482572,4825.72
482657,4826.57
482737,4827.37
482818,4828.18
482902,4829.02
482986,4829.86
483069,4830.69
483150,4831.5
483231,4832.31
483312,4833.12
483395,4833.95
483475,4834.75
483554,4835.54
483631,4836.31
483711,4837.11
483791,4837.91
483875,4838.75
483957,4839.57
484038,4840.38
484123,4841.23
484210,4842.1
484296,4842.96
484381,4843.81
484463,4844.63
484544,4845.44
484627,4846.27
484711,4847.11
484795,4847.95
484875,4848.75
484955,4849.55
485037,4850.37
485120,4851.2
485204,4852.04
485286,4852.86
485366,4853.66
485448,4854.48
485533,4855.33
485618,4856.18
485701,4857.01
485782,4857.82
485865,4858.65
485949,4859.49
486033,4860.33
486118,4861.18
486200,4862.0
486281,4862.81
486362,4863.62
486445,4864.45
486528,4865.28
486609,4866.09
486690,4866.9
486772,4867.72
486855,4868.55
486936,4869.36
487018,4870.18
487096,4870.96
487175,4871.75
487258,4872.58
487342,4873.42
487426,4874.26
487506,4875.06
487586,4875.86
487668,4876.68
487752,4877.52
487836,4878.36
487919,4879.19
488003,4880.03
488087,4880.87
488174,4881.74
488261,4882.61
488346,4883.46
488430,4884.3
488515,4885.15
488601,4886.01
488683,4886.83
488764,4887.64
488847,4888.47
488930,4889.3
489013,4890.13
489094,4890.94
489175,4891.75
489260,4892.6
489344,4893.44
489428,4894.28
489508,4895.08
489589,4895.89
489672,4896.72
489754,4897.54
489836,4898.36
489916,4899.16
489996,4899.96
490077,4900.77
490159,4901.59
490241,4902.41
490322,4903.22
490402,4904.02
490485,4904.85
490569,4905.69
490652,4906.52
490734,4907.34
490816,4908.16
490898,4908.98
490980,4909.8
491061,4910.61
491140,4911.4
491221,4912.21
491300,4913.0
491380,4913.8
491460,4914.6
491541,4915.41
491624,4916.24
491710,4917.1
491796,4917.96
491883,4918.83
491968,4919.68
492054,4920.54
492140,4921.4
492228,4922.28
492315,4923.15
492396,4923.96
492477,4924.77
492561,4925.61
492646,4926.46
492729,4927.29
492811,4928.11
492892,4928.92
492975,4929.75
493057,4930.57
493141,4931.41
493222,4932.22
493302,4933.02
493384,4933.84
493466,4934.66
493547,4935.47
493629,4936.29
493711,4937.11
493795,4937.95
493876,4938.76
493957,4939.57
494040,4940.4
494125,4941.25
494210,4942.1
494293,4942.93
494374,4943.74
494459,4944.59
494545,4945.45
494631,4946.31
494714,4947.14
494794,4947.94
494874,4948.74
494955,4949.55
495037,4950.37
495119,4951.19
495200,4952.0
495284,4952.84
495370,4953.7
495458,4954.58
495542,4955.42
495625,4956.25
495709,4957.09
495794,4957.94
495876,4958.76
495954,4959.54
496032,4960.32
496113,4961.13
496195,4961.95
496278,4962.78
496359,4963.59
496440,4964.4
496524,4965.24
496611,4966.11
496699,4966.99
496782,4967.82
496867,4968.67
496953,4969.53
497039,4970.39
497122,4971.22
497204,4972.04
497288,4972.88
497376,4973.76
497465,4974.65
497550,4975.5
497634,4976.34
497718,4977.18
497802,4978.02
497888,4978.88
497974,4979.74
498056,4980.56
498139,4981.39
498223,4982.23
498307,4983.07
498392,4983.92
498475,4984.75
498556,4985.56
498638,4986.38
498720,4987.2
498803,4988.03
498884,4988.84
498965,4989.65
499048,4990.48
499132,4991.32
499217,4992.17
499297,4992.97
499377,4993.77
499459,4994.59
499541,4995.41
499624,4996.24
499706,4997.06
499786,4997.86
499867,4998.67
499951,4999.51
500036,5000.36
500122,5001.22
500203,5002.03
500284,5002.84
500366,5003.66
500449,5004.49
500532,5005.32
500612,5006.12
500694,5006.94
500776,5007.76
500859,5008.59
500942,5009.42
501024,5010.24
501104,5011.04
501187,5011.87
501271,5012.71
501356,5013.56
501439,5014.39
501520,5015.2
501601,5016.01
501682,5016.82
501766,5017.66
501849,5018.49
501931,5019.31
502013,5020.13
502097,5020.97
502183,5021.83
502270,5022.7
502352,5023.52
502433,5024.33
502515,5025.15
502598,5025.98
502682,5026.82
502765,5027.65
502852,5028.52
502939,5029.39
503024,5030.24
503108,5031.08
503191,5031.91
503275,5032.75
503360,5033.6
503443,5034.43
503523,5035.23
503603,5036.03
503685,5036.85
503767,5037.67
503848,5038.48
503928,5039.28
504007,5040.07
504087,5040.87
504169,5041.69
504252,5042.52
504333,5043.33
504413,5044.13
504495,5044.95
504578,5045.78
504660,5046.6
504742,5047.42
504826,5048.26
504911,5049.11
504993,5049.93
505075,5050.75
505160,5051.6
505244,5052.44
505327,5053.27
505407,5054.07
505487,5054.87
505567,5055.67
505647,5056.47
505729,5057.29
505810,5058.1
505892,5058.92
505973,5059.73
506055,5060.55
506139,5061.39
506221,5062.21
506302,5063.02
506382,5063.82
506465,5064.65
506548,5065.48
506631,5066.31
506710,5067.1
506789,5067.89
506870,5068.7
506952,5069.52
507033,5070.33
507115,5071.15
507196,5071.96
507275,5072.75
507355,5073.55
507437,5074.37
507517,5075.17
507598,5075.98
507675,5076.75
507752,5077.52
507831,5078.31
507912,5079.12
507993,5079.93
508074,5080.74
508153,5081.53
508235,5082.35
508318,5083.18
508401,5084.01
508481,5084.81
508561,5085.61
508642,5086.42
508724,5087.24
508806,5088.06
508887,5088.87
508966,5089.66
509047,5090.47
509129,5091.29
509212,5092.12
509293,5092.93
509374,5093.74
509457,5094.57
509541,5095.41
509624,5096.24
509705,5097.05
509784,5097.84
509865,5098.65
509945,5099.45
510026,5100.26
510105,5101.05
510184,5101.84
510260,5102.6
510337,5103.37
510417,5104.17
510496,5104.96
510577,5105.77
510659,5106.59
510738,5107.38
510818,5108.18
510900,5109.0
510982,5109.82
511063,5110.63
511142,5111.42
511221,5112.21
511302,5113.02
511384,5113.84
511465,5114.65
511544,5115.44
511623,5116.23
511705,5117.05
511785,5117.85
511867,5118.67
511949,5119.49
512029,5120.29
512112,5121.12
512196,5121.96
512279,5122.79
512361,5123.61
512441,5124.41
512524,5125.24
512607,5126.07
512690,5126.9
512769,5127.69
512848,5128.48
512928,5129.28
513011,5130.11
513094,5130.94
513176,5131.76
513258,5132.58
513340,5133.4
513424,5134.24
513508,5135.08
513593,5135.93
513674,5136.74
513754,5137.54
513836,5138.36
513918,5139.18
514000,5140.0
514080,5140.8
514160,5141.6
514243,5142.43
514327,5143.27
514411,5144.11
514492,5144.92
514572,5145.72
514655,5146.55
514740,5147.4
514824,5148.24
514907,5149.07
514989,5149.89
515072,5150.72
515156,5151.56
515240,5152.4
515319,5153.19
515398,5153.98
515480,5154.8
515561,5155.61
515644,5156.44
515724,5157.24
515803,5158.03
515884,5158.84
515963,5159.63
516043,5160.43
516121,5161.21
516199,5161.99
516279,5162.79
516359,5163.59
516441,5164.41
516520,5165.2
516599,5165.99
516680,5166.8
516761,5167.61
516842,5168.42
516921,5169.21
516999,5169.99
517078,5170.78
517159,5171.59
517242,5172.42
517324,5173.24
517406,5174.06
517486,5174.86
517570,5175.7
517654,5176.54
517736,5177.36
517817,5178.17
517898,5178.98
517978,5179.78
518060,5180.6
518141,5181.41
518220,5182.2
518301,5183.01
518383,5183.83
518464,5184.64
518546,5185.46
518626,5186.26
518707,5187.07
518789,5187.89
518871,5188.71
518951,5189.51
519030,5190.3
519108,5191.08
519187,5191.87
519267,5192.67
519347,5193.47
519425,5194.25
519505,5195.05
519586,5195.86
519668,5196.68
519748,5197.48
519828,5198.28
519909,5199.09
519990,5199.9
520072,5200.72
520151,5201.51
520231,5202.31
520311,5203.11
520391,5203.91
520470,5204.7
520549,5205.49
520627,5206.27
520708,5207.08
520791,5207.91
520874,5208.74
520959,5209.59
521041,5210.41
521121,5211.21
521203,5212.03
521285,5212.85
521368,5213.68
521450,5214.5
521530,5215.3
521612,5216.12
521695,5216.95
521779,5217.79
521864,5218.64
521947,5219.47
522028,5220.28
522111,5221.11
522195,5221.95
522279,5222.79
522360,5223.6
522439,5224.39
522519,5225.19
522600,5226.0
522682,5226.82
522762,5227.62
522842,5228.42
522926,5229.26
523011,5230.11
523098,5230.98
523183,5231.83
523267,5232.67
523350,5233.5
523433,5234.33
523516,5235.16
523599,5235.99
523679,5236.79
523759,5237.59
523841,5238.41
523923,5239.23
524005,5240.05
524086,5240.86
524166,5241.66
524249,5242.49
524333,5243.33
524416,5244.16
524497,5244.97
524577,5245.77
524658,5246.58
524741,5247.41
524825,5248.25
524910,5249.1
524991,5249.91
525073,5250.73
525157,5251.57
525242,5252.42
525326,5253.26
525407,5254.07
525488,5254.88
525571,5255.71
525654,5256.54
525737,5257.37
525817,5258.17
525899,5258.99
525981,5259.81
526065,5260.65
526149,5261.49
526231,5262.31
526313,5263.13
526397,5263.97
526482,5264.82
526568,5265.68
526648,5266.48
526730,5267.3
526810,5268.1
526892,5268.92
526974,5269.74
527054,5270.54
527135,5271.35
527216,5272.16
527298,5272.98
527381,5273.81
527462,5274.62
527541,5275.41
527624,5276.24
527707,5277.07
527790,5277.9
527871,5278.71
527951,5279.51
528031,5280.31
528111,5281.11
528193,5281.93
528273,5282.73
528353,5283.53
528431,5284.31
528511,5285.11
528594,5285.94
528676,5286.76
528757,5287.57
528835,5288.35
528917,5289.17
528996,5289.96
529077,5290.77
529157,5291.57
529234,5292.34
529311,5293.11
529389,5293.89
529468,5294.68
529550,5295.5
529631,5296.31
529711,5297.11
529795,5297.95
529882,5298.82
529971,5299.71
530060,5300.6
530144,5301.44
530231,5302.31
530320,5303.2
530408,5304.08
530493,5304.93
530575,5305.75
530659,5306.59
530743,5307.43
530827,5308.27
530911,5309.11
530992,5309.92
531074,5310.74
531159,5311.59
531244,5312.44
531328,5313.28
531408,5314.08
531490,5314.9
531573,5315.73
531657,5316.57
531741,5317.41
531823,5318.23
531906,5319.06
531992,5319.92
532079,5320.79
532163,5321.63
532246,5322.46
532331,5323.31
532416,5324.16
532501,5325.01
532583,5325.83
532664,5326.64
532747,5327.47
532829,5328.29
532913,5329.13
532994,5329.94
533073,5330.73
533154,5331.54
533236,5332.36
533317,5333.17
533397,5333.97
533476,5334.76
533554,5335.54
533635,5336.35
533716,5337.16
533799,5337.99
533881,5338.81
533960,5339.6
534040,5340.4
534122,5341.22
534204,5342.04
534287,5342.87
534369,5343.69
534449,5344.49
534530,5345.3
534612,5346.12
534695,5346.95
534778,5347.78
534857,5348.57
534936,5349.36
535016,5350.16
535097,5350.97
535177,5351.77
535256,5352.56
535335,5353.35
535417,5354.17
535500,5355.0
535582,5355.82
535664,5356.64
535744,5357.44
535828,5358.28
535912,5359.12
535997,5359.97
536078,5360.78
536159,5361.59
536242,5362.42
536325,5363.25
536410,5364.1
536491,5364.91
536572,5365.72
536655,5366.55
536738,5367.38
536820,5368.2
536900,5369.0
536979,5369.79
537057,5370.57
537137,5371.37
537216,5372.16
537297,5372.97
537375,5373.75
537452,5374.52
537531,5375.31
537610,5376.1
537690,5376.9
537770,5377.7
537849,5378.49
537926,5379.26
538005,5380.05
538085,5380.85
538164,5381.64
538242,5382.42
538319,5383.19
538395,5383.95
538472,5384.72
538552,5385.52
538630,5386.3
538710,5387.1
538788,5387.88
538867,5388.67
538948,5389.48
539029,5390.29
539111,5391.11
539192,5391.92
539270,5392.7
539348,5393.48
539430,5394.3
539512,5395.12
539595,5395.95
539674,5396.74
539754,5397.54
539836,5398.36
539919,5399.19
540001,5400.01
540081,5400.81
540161,5401.61
540242,5402.42
540324,5403.24
540406,5404.06
540488,5404.88
540568,5405.68
540646,5406.46
540727,5407.27
540810,5408.1
540891,5408.91
540970,5409.7
541049,5410.49
541131,5411.31
541211,5412.11
541291,5412.91
541370,5413.7
541448,5414.48
541526,5415.26
541607,5416.07
541690,5416.9
541771,5417.71
541851,5418.51
541930,5419.3
542011,5420.11
542092,5420.92
542173,5421.73
542253,5422.53
542331,5423.31
542412,5424.12
542493,5424.93
542576,5425.76
542658,5426.58
542738,5427.38
542818,5428.18
542900,5429.0
542982,5429.82
543063,5430.63
543143,5431.43
543221,5432.21
543301,5433.01
543380,5433.8
543459,5434.59
543538,5435.38
543616,5436.16
543694,5436.94
543777,5437.77
543859,5438.59
543942,5439.42
544023,5440.23
544104,5441.04
544188,5441.88
544274,5442.74
544355,5443.55
544437,5444.37
544520,5445.2
544604,5446.04
544686,5446.86
544767,5447.67
544846,5448.46
544929,5449.29
545012,5450.12
545094,5450.94
545174,5451.74
545256,5452.56
545340,5453.4
545423,5454.23
545505,5455.05
545584,5455.84
545665,5456.65
545747,5457.47
545829,5458.29
545911,5459.11
545990,5459.9
546069,5460.69
546151,5461.51
546233,5462.33
546315,5463.15
546395,5463.95
546473,5464.73
546554,5465.54
546635,5466.35
546717,5467.17
546794,5467.94
546872,5468.72
546952,5469.52
547032,5470.32
547113,5471.13
547192,5471.92
547270,5472.7
547350,5473.5
547430,5474.3
547509,5475.09
547588,5475.88
547665,5476.65
547746,5477.46
547827,5478.27
547909,5479.09
547989,5479.89
548067,5480.67
548146,5481.46
548226,5482.26
548306,5483.06
548385,5483.85
548464,5484.64
548544,5485.44
548626,5486.26
548707,5487.07
548787,5487.87
548867,5488.67
548946,5489.46
549027,5490.27
549110,5491.1
549191,5491.91
549270,5492.7
549349,5493.49
549429,5494.29
549510,5495.1
549592,5495.92
549672,5496.72
549749,5497.49
549827,5498.27
549907,5499.07
549987,5499.87
550069,5500.69
550149,5501.49
550229,5502.29
550310,5503.1
550393,5503.93
550478,5504.78
550561,5505.61
550641,5506.41
550721,5507.21
550801,5508.01
550881,5508.81
550963,5509.63
551042,5510.42
551120,5511.2
551199,5511.99
551280,5512.8
551361,5513.61
551441,5514.41
551519,5515.19
551597,5515.97
551677,5516.77
551759,5517.59
551841,5518.41
551921,5519.21
551999,5519.99
552079,5520.79
552162,5521.62
552246,5522.46
552326,5523.26
552406,5524.06
552488,5524.88
552570,5525.7
552650,5526.5
552732,5527.32
552809,5528.09
552887,5528.87
552968,5529.68
553051,5530.51
553133,5531.33
553212,5532.12
553292,5532.92
553374,5533.74
553454,5534.54
553535,5535.35
553617,5536.17
553697,5536.97
553779,5537.79
553863,5538.63
553946,5539.46
554027,5540.27
554107,5541.07
554189,5541.89
554270,5542.7
554353,5543.53
554435,5544.35
554514,5545.14
554595,5545.95
554677,5546.77
554760,5547.6
554843,5548.43
554925,5549.25
555004,5550.04
555085,5550.85
555166,5551.66
555248,5552.48
555327,5553.27
555406,5554.06
555485,5554.85
555567,5555.67
555652,5556.52
555736,5557.36
555819,5558.19
555901,5559.01
555985,5559.85
556069,5560.69
556154,5561.54
556238,5562.38
556318,5563.18
556398,5563.98
556479,5564.79
556561,5565.61
556642,5566.42
556722,5567.22
556800,5568.0
556880,5568.8
556960,5569.6
557042,5570.42
557123,5571.23
557203,5572.03
557281,5572.81
557361,5573.61
557440,5574.4
557521,5575.21
557600,5576.0
557677,5576.77
557755,5577.55
557835,5578.35
557915,5579.15
557995,5579.95
558073,5580.73
558152,5581.52
558230,5582.3
558309,5583.09
558390,5583.9
558471,5584.71
558550,5585.5
558630,5586.3
558709,5587.09
558789,5587.89
558870,5588.7
558949,5589.49
559025,5590.25
559103,5591.03
559183,5591.83
559263,5592.63
559345,5593.45
559424,5594.24
559504,5595.04
559586,5595.86
559668,5596.68
559751,5597.51
559829,5598.29
559905,5599.05
559982,5599.82
560060,5600.6
560140,5601.4
560220,5602.2
560299,5602.99
560377,5603.77
560455,5604.55
560535,5605.35
560614,5606.14
560691,5606.91
560769,5607.69
560848,5608.48
560929,5609.29
561011,5610.11
561095,5610.95
561174,5611.74
561254,5612.54
561336,5613.36
561419,5614.19
561500,5615.0
561581,5615.81
561659,5616.59
561739,5617.39
561819,5618.19
561900,5619.0
561979,5619.79
562056,5620.56
562136,5621.36
562217,5622.17
562299,5622.99
562380,5623.8
562460,5624.6
562539,5625.39
562620,5626.2
562702,5627.02
562784,5627.84
562864,5628.64
562945,5629.45
563027,5630.27
563110,5631.1
563192,5631.92
563272,5632.72
563352,5633.52
563435,5634.35
563516,5635.16
563599,5635.99
563678,5636.78
563756,5637.56
563836,5638.36
563915,5639.15
563995,5639.95
564074,5640.74
564152,5641.52
564232,5642.32
564312,5643.12
564391,5643.91
564470,5644.7
564548,5645.48
564626,5646.26
564706,5647.06
564786,5647.86
564867,5648.67
564946,5649.46
565025,5650.25
565106,5651.06
565189,5651.89
565271,5652.71
565351,5653.51
565433,5654.33
565515,5655.15
565597,5655.97
565679,5656.79
565760,5657.6
565840,5658.4
565922,5659.22
566005,5660.05
566088,5660.88
566169,5661.69
566251,5662.51
566334,5663.34
566416,5664.16
566497,5664.97
566576,5665.76
566655,5666.55
566735,5667.35
566814,5668.14
566893,5668.93
566970,5669.7
567047,5670.47
567126,5671.26
567206,5672.06
567286,5672.86
567364,5673.64
567442,5674.42
567521,5675.21
567603,5676.03
567683,5676.83
567761,5677.61
567837,5678.37
567915,5679.15
567992,5679.92
568073,5680.73
568155,5681.55
568233,5682.33
568312,5683.12
568392,5683.92
568473,5684.73
568555,5685.55
568636,5686.36
568715,5687.15
568796,5687.96
568879,5688.79
568962,5689.62
569045,5690.45
569126,5691.26
569206,5692.06
569286,5692.86
569366,5693.66
569447,5694.47
569529,5695.29
569609,5696.09
569686,5696.86
569765,5697.65
569843,5698.43
569922,5699.22
570001,5700.01
570077,5700.77
570157,5701.57
570238,5702.38
570321,5703.21
570400,5704.0
570479,5704.79
570559,5705.59
570639,5706.39
570718,5707.18
570797,5707.97
570874,5708.74
570954,5709.54
571034,5710.34
571115,5711.15
571194,5711.94
571272,5712.72
571353,5713.53
571436,5714.36
571518,5715.18
571601,5716.01
571680,5716.8
571759,5717.59
571840,5718.4
571921,5719.21
572003,5720.03
572084,5720.84
572163,5721.63
572240,5722.4
572318,5723.18
572396,5723.96
572475,5724.75
572554,5725.54
572631,5726.31
572710,5727.1
572790,5727.9
572871,5728.71
572953,5729.53
573033,5730.33
573113,5731.13
573195,5731.95
573275,5732.75
573354,5733.54
573433,5734.33
573512,5735.12
573593,5735.93
573674,5736.74
573753,5737.53
573831,5738.31
573910,5739.1
573991,5739.91
574072,5740.72
574152,5741.52
574230,5742.3
574311,5743.11
574392,5743.92
574472,5744.72
574552,5745.52
574631,5746.31
574709,5747.09
574789,5747.89
574867,5748.67
574947,5749.47
575023,5750.23
575100,5751.0
575177,5751.77
575257,5752.57
575338,5753.38
575420,5754.2
575504,5755.04
575584,5755.84
575665,5756.65
575747,5757.47
575830,5758.3
575913,5759.13
575993,5759.93
576074,5760.74
576155,5761.55
576236,5762.36
576316,5763.16
576395,5763.95
576473,5764.73
576553,5765.53
576633,5766.33
576715,5767.15
576794,5767.94
576871,5768.71
576951,5769.51
577031,5770.31
577111,5771.11
577189,5771.89
577267,5772.67
577347,5773.47
577428,5774.28
577509,5775.09
577588,5775.88
577666,5776.66
577747,5777.47
577829,5778.29
577911,5779.11
577990,5779.9
578068,5780.68
578146,5781.46
578225,5782.25
578305,5783.05
578385,5783.85
578463,5784.63
578541,5785.41
578620,5786.2
578701,5787.01
578782,5787.82
578862,5788.62
578940,5789.4
579020,5790.2
579100,5791.0
579182,5791.82
579262,5792.62
579342,5793.42
579421,5794.21
579503,5795.03
579586,5795.86
579670,5796.7
579751,5797.51
579831,5798.31
579912,5799.12
579993,5799.93
580074,5800.74
580153,5801.53
580231,5802.31
580311,5803.11
580389,5803.89
580468,5804.68
580546,5805.46
580622,5806.22
580700,5807.0
580780,5807.8
580861,5808.61
580946,5809.46
581029,5810.29
581109,5811.09
581193,5811.93
581277,5812.77
581361,5813.61
581442,5814.42
581522,5815.22
581602,5816.02
581684,5816.84
581766,5817.66
581845,5818.45
581923,5819.23
582003,5820.03
582082,5820.82
582163,5821.63
582241,5822.41
582318,5823.18
582396,5823.96
582474,5824.74
582552,5825.52
582630,5826.3
582706,5827.06
582783,5827.83
582862,5828.62
582941,5829.41
583019,5830.19
583096,5830.96
583173,5831.73
583253,5832.53
583332,5833.32
583411,5834.11
583489,5834.89
583566,5835.66
583645,5836.45
583724,5837.24
583805,5838.05
583885,5838.85
583963,5839.63
584040,5840.4
584119,5841.19
584195,5841.95
584271,5842.71
584347,5843.47
584426,5844.26
584507,5845.07
584589,5845.89
584670,5846.7
584750,5847.5
584832,5848.32
584915,5849.15
584999,5849.99
585081,5850.81
585161,5851.61
585244,5852.44
585328,5853.28
585412,5854.12
585492,5854.92
585571,5855.71
585652,5856.52
585732,5857.32
585813,5858.13
585892,5858.92
585970,5859.7
586048,5860.48
586128,5861.28
586209,5862.09
586288,5862.88
586365,5863.65
586442,5864.42
586520,5865.2
586598,5865.98
586678,5866.78
586758,5867.58
586835,5868.35
586911,5869.11
586987,5869.87
587063,5870.63
587140,5871.4
587218,5872.18
587295,5872.95
587372,5873.72
587449,5874.49
587528,5875.28
587608,5876.08
587687,5876.87
587765,5877.65
587842,5878.42
587922,5879.22
588003,5880.03
588085,5880.85
588166,5881.66
588244,5882.44
588323,5883.23
588404,5884.04
588485,5884.85
588566,5885.66
588646,5886.46
588725,5887.25
588805,5888.05
588887,5888.87
588966,5889.66
589044,5890.44
589121,5891.21
589199,5891.99
589279,5892.79
589358,5893.58
589435,5894.35
589512,5895.12
589590,5895.9
589669,5896.69
589749,5897.49
589826,5898.26
589901,5899.01
589978,5899.78
590055,5900.55
590133,5901.33
590209,5902.09
590286,5902.86
590365,5903.65
590445,5904.45
590526,5905.26
590607,5906.07
590685,5906.85
590762,5907.62
590838,5908.38
590917,5909.17
590997,5909.97
591075,5910.75
591152,5911.52
591232,5912.32
591314,5913.14
591394,5913.94
591472,5914.72
591549,5915.49
591629,5916.29
591711,5917.11
591792,5917.92
591871,5918.71
591948,5919.48
592026,5920.26
592105,5921.05
592185,5921.85
592258,5922.58
592327,5923.27
592390,5923.9
592451,5924.51
592512,5925.12
592570,5925.7
592627,5926.27
592683,5926.83
592739,5927.39
592796,5927.96
592851,5928.51
592908,5929.08
592964,5929.64
593021,5930.21
593078,5930.78
593134,5931.34
593191,5931.91
593248,5932.48
593305,5933.05
593363,5933.63
593419,5934.19
593476,5934.76
593532,5935.32
593587,5935.87
593643,5936.43
593698,5936.98
593753,5937.53
593809,5938.09
593865,5938.65
593920,5939.2
593977,5939.77
594033,5940.33
594089,5940.89
594146,5941.46
594203,5942.03
594262,5942.62
594322,5943.22
594384,5943.84
594452,5944.52
594521,5945.21
594591,5945.91
594664,5946.64
594746,5947.46
594837,5948.37
594933,5949.33
595034,5950.34
595132,5951.32
595231,5952.31
595314,5953.14
595391,5953.91
595469,5954.69
595547,5955.47
595626,5956.26
595715,5957.15
595805,5958.05
595895,5958.95
595987,5959.87
596076,5960.76
596166,5961.66
596257,5962.57
596344,5963.44
596430,5964.3
596517,5965.17
596606,5966.06
596693,5966.93
596781,5967.81
596867,5968.67
596952,5969.52
597039,5970.39
597125,5971.25
597210,5972.1
597292,5972.92
597370,5973.7
597448,5974.48
597526,5975.26
597605,5976.05
597677,5976.77
597749,5977.49
597821,5978.21
597890,5978.9
597957,5979.57
598019,5980.19
598081,5980.81
598144,5981.44
598207,5982.07
598271,5982.71
598337,5983.37
598401,5984.01
598466,5984.66
598531,5985.31
598594,5985.94
598658,5986.58
598721,5987.21
598785,5987.85
598847,5988.47
598908,5989.08
598970,5989.7
599032,5990.32
599095,5990.95
599159,5991.59
599224,5992.24
599288,5992.88
599352,5993.52
599416,5994.16
599481,5994.81
599546,5995.46
599610,5996.1
599674,5996.74
599737,5997.37
599801,5998.01
599866,5998.66
599933,5999.33
599999,5999.99
600063,6000.63
600126,6001.26
600191,6001.91
600255,6002.55
600318,6003.18
600381,6003.81
600442,6004.42
600503,6005.03
600567,6005.67
600636,6006.36
600709,6007.09
600781,6007.81
600851,6008.51
600922,6009.22
600990,6009.9
601057,6010.57
601123,6011.23
601193,6011.93
601266,6012.66
601346,6013.46
601422,6014.22
601497,6014.97
601570,6015.7
601643,6016.43
601717,6017.17
601796,6017.96
601892,6018.92
601991,6019.91
602085,6020.85
602166,6021.66
602248,6022.48
602338,6023.38
602436,6024.36
602535,6025.35
602632,6026.32
602718,6027.18
602804,6028.04
602891,6028.91
602977,6029.77
603059,6030.59
603138,6031.38
603216,6032.16
603300,6033.0
603387,6033.87
603469,6034.69
603551,6035.51
603636,6036.36
603720,6037.2
603802,6038.02
603882,6038.82
603959,6039.59
604032,6040.32
604104,6041.04
604174,6041.74
604240,6042.4
604305,6043.05
604368,6043.68
604432,6044.32
604501,6045.01
604571,6045.71
604645,6046.45
604731,6047.31
604818,6048.18
604908,6049.08
604999,6049.99
605094,6050.94
605194,6051.94
605293,6052.93
605387,6053.87
605478,6054.78
605570,6055.7
605658,6056.58
605744,6057.44
605827,6058.27
605907,6059.07
605985,6059.85
606062,6060.62
606139,6061.39
606220,6062.2
606304,6063.04
606391,6063.91
606477,6064.77
606566,6065.66
606657,6066.57
606750,6067.5
606839,6068.39
606922,6069.22
607002,6070.02
607084,6070.84
607165,6071.65
607248,6072.48
607329,6073.29
607407,6074.07
607486,6074.86
607569,6075.69
607656,6076.56
607742,6077.42
607827,6078.27
607913,6079.13
607996,6079.96
608076,6080.76
608154,6081.54
608232,6082.32
608311,6083.11
608393,6083.93
608473,6084.73
608553,6085.53
608635,6086.35
608722,6087.22
608810,6088.1
608896,6088.96
608981,6089.81
609069,6090.69
609161,6091.61
609245,6092.45
609326,6093.26
609403,6094.03
609477,6094.77
609548,6095.48
609616,6096.16
609683,6096.83
609747,6097.47
609812,6098.12
609878,6098.78
609948,6099.48
610025,6100.25
610130,6101.3
610239,6102.39
610344,6103.44
610444,6104.44
610548,6105.48
610652,6106.52
610749,6107.49
610837,6108.37
610921,6109.21
611005,6110.05
611092,6110.92
611190,6111.9
611287,6112.87
611380,6113.8
611473,6114.73
611561,6115.61
611644,6116.44
611722,6117.22
611805,6118.05
611887,6118.87
611966,6119.66
612044,6120.44
612119,6121.19
612195,6121.95
612275,6122.75
612365,6123.65
612460,6124.6
612549,6125.49
612634,6126.34
612722,6127.22
612815,6128.15
612899,6128.99
612978,6129.78
613054,6130.54
613136,6131.36
613223,6132.23
613318,6133.18
613410,6134.1
613500,6135.0
613588,6135.88
613671,6136.71
613750,6137.5
613828,6138.28
613913,6139.13
614010,6140.1
614111,6141.11
614202,6142.02
614293,6142.93
614382,6143.82
614470,6144.7
614551,6145.51
614627,6146.27
614698,6146.98
614768,6147.68
614837,6148.37
614905,6149.05
614972,6149.72
615038,6150.38
615103,6151.03
615165,6151.65
615229,6152.29
615295,6152.95
615363,6153.63
615432,6154.32
615502,6155.02
615573,6155.73
615653,6156.53
615749,6157.49
615851,6158.51
615954,6159.54
616055,6160.55
616156,6161.56
616251,6162.51
616341,6163.41
616430,6164.3
616518,6165.18
616604,6166.04
616691,6166.91
616775,6167.75
616859,6168.59
616941,6169.41
617019,6170.19
617097,6170.97
617171,6171.71
617243,6172.43
617313,6173.13
617381,6173.81
617451,6174.51
617521,6175.21
617592,6175.92
617671,6176.71
617764,6177.64
617860,6178.6
617952,6179.52
618043,6180.43
618136,6181.36
618230,6182.3
618328,6183.28
618422,6184.22
618510,6185.1
618595,6185.95
618679,6186.79
618760,6187.6
618841,6188.41
618924,6189.24
619006,6190.06
619087,6190.87
619167,6191.67
619246,6192.46
619321,6193.21
619395,6193.95
619467,6194.67
619538,6195.38
619615,6196.15
619694,6196.94
619779,6197.79
619862,6198.62
619953,6199.53
620049,6200.49
620146,6201.46
620241,6202.41
620332,6203.32
620425,6204.25
620515,6205.15
620605,6206.05
620693,6206.93
620781,6207.81
620865,6208.65
620944,6209.44
621025,6210.25
621103,6211.03
621184,6211.84
621267,6212.67
621353,6213.53
621438,6214.38
621524,6215.24
621617,6216.17
621713,6217.13
621805,6218.05
621896,6218.96
621981,6219.81
622062,6220.62
622146,6221.46
622230,6222.3
622315,6223.15
622398,6223.98
622480,6224.8
622565,6225.65
622650,6226.5
622737,6227.37
622821,6228.21
622901,6229.01
622980,6229.8
623061,6230.61
623141,6231.41
623223,6232.23
623304,6233.04
623388,6233.88
623476,6234.76
623565,6235.65
623651,6236.51
623734,6237.34
623818,6238.18
623903,6239.03
623987,6239.87
624070,6240.7
624150,6241.5
624237,6242.37
624323,6243.23
624408,6244.08
624491,6244.91
624573,6245.73
624655,6246.55
624733,6247.33
624809,6248.09
624885,6248.85
624962,6249.62
625044,6250.44
625129,6251.29
625217,6252.17
625302,6253.02
625386,6253.86
625470,6254.7
625556,6255.56
625642,6256.42
625726,6257.26
625810,6258.1
625896,6258.96
625985,6259.85
626073,6260.73
626157,6261.57
626241,6262.41
626328,6263.28
626415,6264.15
626497,6264.97
626578,6265.78
626659,6266.59
626737,6267.37
626814,6268.14
626892,6268.92
626971,6269.71
627052,6270.52
627135,6271.35
627216,6272.16
627302,6273.02
627392,6273.92
627480,6274.8
627573,6275.73
627658,6276.58
627739,6277.39
627819,6278.19
627901,6279.01
627987,6279.87
628075,6280.75
628159,6281.59
628246,6282.46
628336,6283.36
628427,6284.27
628516,6285.16
628603,6286.03
628692,6286.92
628777,6287.77
628862,6288.62
628945,6289.45
629028,6290.28
629112,6291.12
629199,6291.99
629284,6292.84
629367,6293.67
629446,6294.46
629525,6295.25
629607,6296.07
629692,6296.92
629778,6297.78
629863,6298.63
629947,6299.47
630032,6300.32
630123,6301.23
630208,6302.08
630293,6302.93
630375,6303.75
630460,6304.6
630549,6305.49
630638,6306.38
630728,6307.28
630814,6308.14
630897,6308.97
630981,6309.81
631067,6310.67
631154,6311.54
631242,6312.42
631328,6313.28
631412,6314.12
631499,6314.99
631585,6315.85
631672,6316.72
631755,6317.55
631837,6318.37
631923,6319.23
632004,6320.04
632084,6320.84
632161,6321.61
632236,6322.36
632310,6323.1
632388,6323.88
632469,6324.69
632555,6325.55
632642,6326.42
632729,6327.29
632820,6328.2
632917,6329.17
633011,6330.11
633102,6331.02
633189,6331.89
633275,6332.75
633361,6333.61
633447,6334.47
633530,6335.3
633610,6336.1
633690,6336.9
633773,6337.73
633860,6338.6
633945,6339.45
634029,6340.29
634112,6341.12
634198,6341.98
634285,6342.85
634371,6343.71
634457,6344.57
634539,6345.39
634623,6346.23
634705,6347.05
634785,6347.85
634865,6348.65
634947,6349.47
635027,6350.27
635107,6351.07
635185,6351.85
635265,6352.65
635348,6353.48
635433,6354.33
635518,6355.18
635600,6356.0
635681,6356.81
635763,6357.63
635846,6358.46
635928,6359.28
636008,6360.08
636086,6360.86
636170,6361.7
636255,6362.55
636337,6363.37
636418,6364.18
636498,6364.98
636582,6365.82
636667,6366.67
636752,6367.52
636835,6368.35
636915,6369.15
637000,6370.0
637084,6370.84
637165,6371.65
637244,6372.44
637324,6373.24
637405,6374.05
637485,6374.85
637565,6375.65
637644,6376.44
637726,6377.26
637813,6378.13
637897,6378.97
637979,6379.79
638060,6380.6
638141,6381.41
638222,6382.22
638305,6383.05
638386,6383.86
638465,6384.65
638543,6385.43
638623,6386.23
638706,6387.06
638790,6387.9
638871,6388.71
638951,6389.51
639033,6390.33
639116,6391.16
639199,6391.99
639280,6392.8
639360,6393.6
639444,6394.44
639526,6395.26
639609,6396.09
639691,6396.91
639769,6397.69
639850,6398.5
639935,6399.35
640018,6400.18
640100,6401.0
640181,6401.81
640263,6402.63
640347,6403.47
640428,6404.28
640507,6405.07
640585,6405.85
640665,6406.65
640749,6407.49
640837,6408.37
640919,6409.19
640997,6409.97
641074,6410.74
641148,6411.48
641224,6412.24
641301,6413.01
641381,6413.81
641461,6414.61
641544,6415.44
641632,6416.32
641722,6417.22
641808,6418.08
641897,6418.97
641988,6419.88
642080,6420.8
642168,6421.68
642252,6422.52
642335,6423.35
642419,6424.19
642506,6425.06
642592,6425.92
642676,6426.76
642758,6427.58
642844,6428.44
642930,6429.3
643014,6430.14
643096,6430.96
643178,6431.78
643264,6432.64
643346,6433.46
643426,6434.26
643502,6435.02
643577,6435.77
643654,6436.54
643736,6437.36
643821,6438.21
643905,6439.05
643988,6439.88
644075,6440.75
644162,6441.62
644249,6442.49
644333,6443.33
644415,6444.15
644499,6444.99
644585,6445.85
644668,6446.68
644751,6447.51
644834,6448.34
644916,6449.16
644998,6449.98
645077,6450.77
645155,6451.55
645234,6452.34
645317,6453.17
645400,6454.0
645479,6454.79
645554,6455.54
645627,6456.27
645700,6457.0
645775,6457.75
645856,6458.56
645939,6459.39
646021,6460.21
646107,6461.07
646196,6461.96
646287,6462.87
646375,6463.75
646462,6464.62
646552,6465.52
646640,6466.4
646725,6467.25
646805,6468.05
646882,6468.82
646961,6469.61
647044,6470.44
647129,6471.29
647216,6472.16
647301,6473.01
647389,6473.89
647476,6474.76
647559,6475.59
647641,6476.41
647724,6477.24
647808,6478.08
647894,6478.94
647977,6479.77
648063,6480.63
648151,6481.51
648238,6482.38
648324,6483.24
648409,6484.09
648496,6484.96
648587,6485.87
648675,6486.75
648759,6487.59
648840,6488.4
648922,6489.22
649006,6490.06
649091,6490.91
649177,6491.77
649257,6492.57
649335,6493.35
649411,6494.11
649488,6494.88
649568,6495.68
649653,6496.53
649735,6497.35
649817,6498.17
649905,6499.05
649993,6499.93
650081,6500.81
650167,6501.67
650251,6502.51
650336,6503.36
650423,6504.23
650509,6505.09
650593,6505.93
650676,6506.76
650761,6507.61
650846,6508.46
650931,6509.31
651017,6510.17
651100,6511.0
651180,6511.8
651257,6512.57
651336,6513.36
651416,6514.16
651498,6514.98
651580,6515.8
651661,6516.61
651741,6517.41
651825,6518.25
651911,6519.11
651995,6519.95
652078,6520.78
652158,6521.58
652241,6522.41
652324,6523.24
652407,6524.07
652487,6524.87
652566,6525.66
652646,6526.46
652725,6527.25
652804,6528.04
652884,6528.84
652962,6529.62
653041,6530.41
653124,6531.24
653208,6532.08
653285,6532.85
653359,6533.59
653433,6534.33
653511,6535.11
653591,6535.91
653671,6536.71
653751,6537.51
653836,6538.36
653921,6539.21
654002,6540.02
654077,6540.77
654150,6541.5
654221,6542.21
654287,6542.87
654350,6543.5
654413,6544.13
654482,6544.82
654549,6545.49
654616,6546.16
654684,6546.84
654754,6547.54
654821,6548.21
654886,6548.86
654952,6549.52
655017,6550.17
655081,6550.81
655145,6551.45
655209,6552.09
655272,6552.72
655334,6553.34
655397,6553.97
655458,6554.58
655518,6555.18
655578,6555.78
655636,6556.36
655695,6556.95
655754,6557.54
655812,6558.12
655871,6558.71
655929,6559.29
655988,6559.88
656046,6560.46
656104,6561.04
656161,6561.61
656219,6562.19
656277,6562.77
656335,6563.35
656393,6563.93
656452,6564.52
656511,6565.11
656569,6565.69
656629,6566.29
656689,6566.89
656750,6567.5
656812,6568.12
656874,6568.74
656937,6569.37
657000,6570.0
657062,6570.62
657124,6571.24
657187,6571.87
657251,6572.51
657317,6573.17
657383,6573.83
657450,6574.5
657517,6575.17
657583,6575.83
657648,6576.48
657711,6577.11
657775,6577.75
657839,6578.39
657902,6579.02
657964,6579.64
658027,6580.27
658090,6580.9
658154,6581.54
658222,6582.22
658293,6582.93
658369,6583.69
658458,6584.58
658554,6585.54
658654,6586.54
658753,6587.53
658853,6588.53
658952,6589.52
659052,6590.52
659135,6591.35
659220,6592.2
659302,6593.02
659385,6593.85
659469,6594.69
659551,6595.51
659636,6596.36
659722,6597.22
659805,6598.05
659888,6598.88
659969,6599.69
660051,6600.51
660131,6601.31
660212,6602.12
660292,6602.92
660369,6603.69
660445,6604.45
660523,6605.23
660605,6606.05
660687,6606.87
660768,6607.68
660849,6608.49
660933,6609.33
661024,6610.24
661118,6611.18
661208,6612.08
661297,6612.97
661388,6613.88
661480,6614.8
661570,6615.7
661658,6616.58
661750,6617.5
661840,6618.4
661931,6619.31
662017,6620.17
662102,6621.02
662190,6621.9
662279,6622.79
662368,6623.68
662452,6624.52
662534,6625.34
662617,6626.17
662702,6627.02
662791,6627.91
662879,6628.79
662968,6629.68
663062,6630.62
663156,6631.56
663250,6632.5
663341,6633.41
663429,6634.29
663516,6635.16
663600,6636.0
663684,6636.84
663768,6637.68
663853,6638.53
663945,6639.45
664038,6640.38
664134,6641.34
664226,6642.26
664317,6643.17
664405,6644.05
664491,6644.91
664576,6645.76
664665,6646.65
664753,6647.53
664840,6648.4
664925,6649.25
665011,6650.11
665100,6651.0
665186,6651.86
665271,6652.71
665352,6653.52
665432,6654.32
665516,6655.16
665601,6656.01
665684,6656.84
665767,6657.67
665852,6658.52
665938,6659.38
666025,6660.25
666115,6661.15
666203,6662.03
666290,6662.9
666379,6663.79
666471,6664.71
666557,6665.57
666644,6666.44
666733,6667.33
666818,6668.18
666902,6669.02
666985,6669.85
667071,6670.71
667159,6671.59
667247,6672.47
667339,6673.39
667428,6674.28
667518,6675.18
667614,6676.14
667709,6677.09
667802,6678.02
667889,6678.89
667973,6679.73
668059,6680.59
668142,6681.42
668224,6682.24
668304,6683.04
668388,6683.88
668473,6684.73
668559,6685.59
668642,6686.42
668724,6687.24
668807,6688.07
668890,6688.9
668973,6689.73
669056,6690.56
669137,6691.37
669217,6692.17
669299,6692.99
669383,6693.83
669465,6694.65
669548,6695.48
669632,6696.32
669719,6697.19
669804,6698.04
669886,6698.86
669968,6699.68
670049,6700.49
670132,6701.32
670216,6702.16
670299,6702.99
670381,6703.81
670466,6704.66
670553,6705.53
670641,6706.41
670727,6707.27
670814,6708.14
670898,6708.98
670982,6709.82
671066,6710.66
671150,6711.5
671237,6712.37
671328,6713.28
671416,6714.16
671504,6715.04
671592,6715.92
671679,6716.79
671768,6717.68
671856,6718.56
671937,6719.37
672013,6720.13
672087,6720.87
672158,6721.58
672229,6722.29
672299,6722.99
672368,6723.68
672436,6724.36
672503,6725.03
672573,6725.73
672647,6726.47
672726,6727.26
672807,6728.07
672892,6728.92
672990,6729.9
673085,6730.85
673177,6731.77
673267,6732.67
673358,6733.58
673452,6734.52
673542,6735.42
673630,6736.3
673714,6737.14
673795,6737.95
673874,6738.74
673953,6739.53
674047,6740.47
674151,6741.51
674250,6742.5
674344,6743.44
674436,6744.36
674531,6745.31
674624,6746.24
674712,6747.12
674793,6747.93
674875,6748.75
674963,6749.63
675047,6750.47
675132,6751.32
675212,6752.12
675292,6752.92
675379,6753.79
675468,6754.68
675553,6755.53
675636,6756.36
675718,6757.18
675803,6758.03
675889,6758.89
675976,6759.76
676059,6760.59
676141,6761.41
676224,6762.24
676310,6763.1
676401,6764.01
676492,6764.92
676573,6765.73
676654,6766.54
676739,6767.39
676824,6768.24
676905,6769.05
676985,6769.85
677068,6770.68
677160,6771.6
677247,6772.47
677326,6773.26
677402,6774.02
677476,6774.76
677557,6775.57
677644,6776.44
677728,6777.28
677811,6778.11
677904,6779.04
678012,6780.12
678120,6781.2
678223,6782.23
678316,6783.16
678407,6784.07
678496,6784.96
678585,6785.85
678669,6786.69
678756,6787.56
678845,6788.45
678932,6789.32
679017,6790.17
679100,6791.0
679184,6791.84
679270,6792.7
679356,6793.56
679439,6794.39
679524,6795.24
679610,6796.1
679695,6796.95
679778,6797.78
679861,6798.61
679948,6799.48
680030,6800.3
680111,6801.11
680191,6801.91
680273,6802.73
680359,6803.59
680449,6804.49
680542,6805.42
680635,6806.35
680726,6807.26
680818,6808.18
680913,6809.13
680998,6809.98
681079,6810.79
681161,6811.61
681247,6812.47
681333,6813.33
681423,6814.23
681511,6815.11
681599,6815.99
681692,6816.92
681780,6817.8
681868,6818.68
681958,6819.58
682049,6820.49
682140,6821.4
682229,6822.29
682314,6823.14
682401,6824.01
682487,6824.87
682571,6825.71
682655,6826.55
682740,6827.4
682826,6828.26
682910,6829.1
682993,6829.93
683074,6830.74
683157,6831.57
683238,6832.38
683322,6833.22
683407,6834.07
683493,6834.93
683575,6835.75
683658,6836.58
683743,6837.43
683829,6838.29
683914,6839.14
683996,6839.96
684078,6840.78
684163,6841.63
684249,6842.49
684334,6843.34
684419,6844.19
684505,6845.05
684590,6845.9
684673,6846.73
684757,6847.57
684843,6848.43
684930,6849.3
685016,6850.16
685101,6851.01
685186,6851.86
685275,6852.75
685364,6853.64
685450,6854.5
685538,6855.38
685624,6856.24
685706,6857.06
685788,6857.88
685870,6858.7
685954,6859.54
686039,6860.39
686126,6861.26
686212,6862.12
686300,6863.0
686386,6863.86
686472,6864.72
686560,6865.6
686646,6866.46
686730,6867.3
686816,6868.16
686903,6869.03
686987,6869.87
687069,6870.69
687152,6871.52
687232,6872.32
687311,6873.11
687390,6873.9
687470,6874.7
687550,6875.5
687633,6876.33
687714,6877.14
687796,6877.96
687876,6878.76
687956,6879.56
688038,6880.38
688120,6881.2
688202,6882.02
688283,6882.83
688363,6883.63
688445,6884.45
688528,6885.28
688609,6886.09
688690,6886.9
688772,6887.72
688855,6888.55
688935,6889.35
689016,6890.16
689095,6890.95
689174,6891.74
689254,6892.54
689335,6893.35
689417,6894.17
689497,6894.97
689576,6895.76
689657,6896.57
689738,6897.38
689821,6898.21
689903,6899.03
689983,6899.83
690062,6900.62
690143,6901.43
690222,6902.22
690301,6903.01
690379,6903.79
690456,6904.56
690532,6905.32
690608,6906.08
690685,6906.85
690765,6907.65
690847,6908.47
690930,6909.3
691017,6910.17
691104,6911.04
691191,6911.91
691274,6912.74
691357,6913.57
691441,6914.41
691526,6915.26
691611,6916.11
691691,6916.91
691769,6917.69
691848,6918.48
691930,6919.3
692013,6920.13
692095,6920.95
692181,6921.81
692268,6922.68
692355,6923.55
692443,6924.43
692527,6925.27
692611,6926.11
692696,6926.96
692781,6927.81
692862,6928.62
692944,6929.44
693027,6930.27
693113,6931.13
693197,6931.97
693283,6932.83
693368,6933.68
693455,6934.55
693541,6935.41
693626,6936.26
693710,6937.1
693794,6937.94
693878,6938.78
693962,6939.62
694046,6940.46
694130,6941.3
694211,6942.11
694292,6942.92
694373,6943.73
694452,6944.52
694532,6945.32
694612,6946.12
694690,6946.9
694766,6947.66
694845,6948.45
694922,6949.22
695001,6950.01
695079,6950.79
695161,6951.61
695252,6952.52
695346,6953.46
695440,6954.4
695532,6955.32
695621,6956.21
695711,6957.11
695800,6958.0
695888,6958.88
695971,6959.71
696051,6960.51
696130,6961.3
696210,6962.1
696291,6962.91
696371,6963.71
696450,6964.5
696534,6965.34
696619,6966.19
696705,6967.05
696789,6967.89
696870,6968.7
696952,6969.52
697035,6970.35
697121,6971.21
697206,6972.06
697288,6972.88
697369,6973.69
697449,6974.49
697528,6975.28
697612,6976.12
697700,6977.0
697787,6977.87
697869,6978.69
697949,6979.49
698035,6980.35
698121,6981.21
698208,6982.08
698290,6982.9
698370,6983.7
698449,6984.49
698532,6985.32
698611,6986.11
698690,6986.9
698767,6987.67
698845,6988.45
698926,6989.26
699013,6990.13
699102,6991.02
699186,6991.86
699267,6992.67
699348,6993.48
699428,6994.28
699506,6995.06
699582,6995.82
699660,6996.6
699744,6997.44
699830,6998.3
699916,6999.16
700000,7000.0
700080,7000.8
700163,7001.63
700244,7002.44
700323,7003.23
700403,7004.03
700482,7004.82
700563,7005.63
700646,7006.46
700730,7007.3
700810,7008.1
700889,7008.89
700969,7009.69
701048,7010.48
701128,7011.28
701211,7012.11
701293,7012.93
701372,7013.72
701454,7014.54
701538,7015.38
701620,7016.2
701702,7017.02
701786,7017.86
701866,7018.66
701947,7019.47
702028,7020.28
702107,7021.07
702191,7021.91
702275,7022.75
702358,7023.58
702436,7024.36
702513,7025.13
702589,7025.89
702667,7026.67
702746,7027.46
702824,7028.24
702905,7029.05
702986,7029.86
703067,7030.67
703153,7031.53
703234,7032.34
703317,7033.17
703395,7033.95
703474,7034.74
703553,7035.53
703631,7036.31
703713,7037.13
703796,7037.96
703879,7038.79
703961,7039.61
704040,7040.4
704123,7041.23
704202,7042.02
704281,7042.81
704360,7043.6
704440,7044.4
704518,7045.18
704598,7045.98
704677,7046.77
704760,7047.6
704841,7048.41
704918,7049.18
704997,7049.97
705077,7050.77
705159,7051.59
705239,7052.39
705317,7053.17
705395,7053.95
705472,7054.72
705551,7055.51
705630,7056.3
705708,7057.08
705785,7057.85
705862,7058.62
705939,7059.39
706021,7060.21
706102,7061.02
706180,7061.8
706253,7062.53
706327,7063.27
706401,7064.01
706475,7064.75
706550,7065.5
706624,7066.24
706702,7067.02
706779,7067.79
706857,7068.57
706937,7069.37
707017,7070.17
707099,7070.99
707183,7071.83
707268,7072.68
707349,7073.49
707429,7074.29
707509,7075.09
707581,7075.81
707654,7076.54
707741,7077.41
707828,7078.28
707904,7079.04
707977,7079.77
708050,7080.5
708124,7081.24
708200,7082.0
708282,7082.82
708365,7083.65
708447,7084.47
708529,7085.29
