sample,time_sec
37,0.37
126,1.26
212,2.12
299,2.99
387,3.87
475,4.75
559,5.59
641,6.41
720,7.2
800,8.0
880,8.8
962,9.62
1045,10.45
1128,11.28
1212,12.12
1295,12.95
1377,13.77
1462,14.62
1549,15.49
1639,16.39
1729,17.29
1820,18.2
1909,19.09
1995,19.95
2079,20.79
2161,21.61
2245,22.45
2330,23.3
2420,24.2
2511,25.11
2603,26.03
2693,26.93
2782,27.82
2873,28.73
2965,29.65
3059,30.59
3153,31.53
3246,32.46
3337,33.37
3429,34.29
3523,35.23
3615,36.15
3706,37.06
3799,37.99
3894,38.94
3988,39.88
4078,40.78
4170,41.7
4262,42.62
4351,43.51
4439,44.39
4524,45.24
4607,46.07
4688,46.88
4770,47.7
4856,48.56
4945,49.45
5037,50.37
5131,51.31
5225,52.25
5316,53.16
5406,54.06
5498,54.98
5591,55.91
5684,56.84
5777,57.77
5870,58.7
5961,59.61
6051,60.51
6143,61.43
6236,62.36
6327,63.27
6418,64.18
6510,65.1
6602,66.02
6691,66.91
6778,67.78
6862,68.62
6948,69.48
7036,70.36
7128,71.28
7221,72.21
7314,73.14
7408,74.08
7502,75.02
7594,75.94
7688,76.88
7786,77.86
7882,78.82
7979,79.79
8078,80.78
8174,81.74
8270,82.7
8369,83.69
8466,84.66
8560,85.6
8656,86.56
8751,87.51
8845,88.45
8935,89.35
9028,90.28
9119,91.19
9207,92.07
9295,92.95
9386,93.86
9477,94.77
9567,95.67
9660,96.6
9756,97.56
9852,98.52
9946,99.46
10040,100.4
10134,101.34
10227,102.27
10320,103.2
10412,104.12
10503,105.03
10595,105.95
10689,106.89
10781,107.81
10870,108.7
10957,109.57
11040,110.4
11123,111.23
11204,112.04
11288,112.88
11374,113.74
11462,114.62
11551,115.51
11639,116.39
11729,117.29
11818,118.18
11910,119.1
12002,120.02
12092,120.92
12185,121.85
12277,122.77
12372,123.72
12466,124.66
12558,125.58
12652,126.52
12748,127.48
12844,128.44
12937,129.37
13029,130.29
13120,131.2
13210,132.1
13297,132.97
13382,133.82
13464,134.64
13545,135.45
13625,136.25
13704,137.04
13781,137.81
13858,138.58
13933,139.33
14008,140.08
14085,140.85
14162,141.62
14242,142.42
14327,143.27
14416,144.16
14508,145.08
14597,145.97
14683,146.83
14771,147.71
14861,148.61
14951,149.51
15037,150.37
15122,151.22
15211,152.11
15298,152.98
15385,153.85
15470,154.7
15553,155.53
15635,156.35
15719,157.19
15808,158.08
15899,158.99
15991,159.91
16080,160.8
16170,161.7
16264,162.64
16361,163.61
16453,164.53
16543,165.43
16637,166.37
16731,167.31
16826,168.26
16916,169.16
17008,170.08
17100,171.0
17193,171.93
17287,172.87
17379,173.79
17473,174.73
17567,175.67
17660,176.6
17750,177.5
17836,178.36
17920,179.2
18003,180.03
18085,180.85
18166,181.66
18246,182.46
18324,183.24
18401,184.01
18476,184.76
18552,185.52
18630,186.3
18709,187.09
18787,187.87
18864,188.64
18943,189.43
19026,190.26
19111,191.11
19200,192.0
19291,192.91
19385,193.85
19479,194.79
19574,195.74
19668,196.68
19757,197.57
19844,198.44
19935,199.35
20025,200.25
20120,201.2
20220,202.2
20323,203.23
20424,204.24
20526,205.26
20628,206.28
20727,207.27
20826,208.26
20925,209.25
21017,210.17
21109,211.09
21202,212.02
21295,212.95
21389,213.89
21485,214.85
21576,215.76
21666,216.66
21755,217.55
21846,218.46
21938,219.38
22031,220.31
22125,221.25
22218,222.18
22313,223.13
22405,224.05
22496,224.96
22583,225.83
22667,226.67
22748,227.48
22828,228.28
22909,229.09
22994,229.94
23082,230.82
23174,231.74
23266,232.66
23358,233.58
23451,234.51
23541,235.41
23630,236.3
23715,237.15
23798,237.98
23880,238.8
23962,239.62
24047,240.47
24129,241.29
24210,242.1
24290,242.9
24370,243.7
24452,244.52
24535,245.35
24620,246.2
24709,247.09
24799,247.99
24886,248.86
24975,249.75
25068,250.68
25164,251.64
25261,252.61
25356,253.56
25450,254.5
25542,255.42
25631,256.31
25717,257.17
25802,258.02
25889,258.89
25977,259.77
26068,260.68
26162,261.62
26258,262.58
26353,263.53
26445,264.45
26533,265.33
26622,266.22
26710,267.1
26798,267.98
26884,268.84
26968,269.68
27053,270.53
27139,271.39
27225,272.25
27309,273.09
27392,273.92
27473,274.73
27553,275.53
27635,276.35
27720,277.2
27808,278.08
27895,278.95
27981,279.81
28069,280.69
28158,281.58
28246,282.46
28333,283.33
28419,284.19
28505,285.05
28593,285.93
28680,286.8
28769,287.69
28856,288.56
28942,289.42
29029,290.29
29115,291.15
29200,292.0
29286,292.86
29370,293.7
29452,294.52
29532,295.32
29613,296.13
29694,296.94
29780,297.8
29868,298.68
29957,299.57
30045,300.45
30130,301.3
30216,302.16
30304,303.04
30391,303.91
30477,304.77
30561,305.61
30644,306.44
30729,307.29
30815,308.15
30903,309.03
30989,309.89
31076,310.76
31164,311.64
31251,312.51
31337,313.37
31421,314.21
31504,315.04
31586,315.86
31670,316.7
31755,317.55
31842,318.42
31927,319.27
32014,320.14
32102,321.02
32187,321.87
32271,322.71
32355,323.55
32441,324.41
32527,325.27
32611,326.11
32695,326.95
32780,327.8
32865,328.65
32952,329.52
33038,330.38
33124,331.24
33209,332.09
33297,332.97
33385,333.85
33472,334.72
33557,335.57
33643,336.43
33729,337.29
33815,338.15
33901,339.01
33987,339.87
34071,340.71
34157,341.57
34242,342.42
34324,343.24
34405,344.05
34485,344.85
34564,345.64
34643,346.43
34724,347.24
34807,348.07
34893,348.93
34978,349.78
35062,350.62
35148,351.48
35235,352.35
35322,353.22
35406,354.06
35491,354.91
35579,355.79
35669,356.69
35759,357.59
35846,358.46
35933,359.33
36023,360.23
36115,361.15
36206,362.06
36295,362.95
36384,363.84
36475,364.75
36567,365.67
36658,366.58
36748,367.48
36837,368.37
36929,369.29
37021,370.21
37110,371.1
37201,372.01
37293,372.93
37382,373.82
37470,374.7
37555,375.55
37637,376.37
37717,377.17
37796,377.96
37877,378.77
37957,379.57
38040,380.4
38128,381.28
38217,382.17
38303,383.03
38390,383.9
38480,384.8
38570,385.7
38658,386.58
38741,387.41
38827,388.27
38915,389.15
39004,390.04
39099,390.99
39194,391.94
39292,392.92
39388,393.88
39483,394.83
39577,395.77
39670,396.7
39763,397.63
39854,398.54
39943,399.43
40031,400.31
40115,401.15
40198,401.98
40281,402.81
40363,403.63
40445,404.45
40524,405.24
40603,406.03
40681,406.81
40757,407.57
40834,408.34
40912,409.12
40990,409.9
41065,410.65
41141,411.41
41214,412.14
41287,412.87
41357,413.57
41426,414.26
41494,414.94
41561,415.61
41628,416.28
41694,416.94
41759,417.59
41825,418.25
41892,418.92
41961,419.61
42031,420.31
42101,421.01
42172,421.72
42245,422.45
42320,423.2
42397,423.97
42473,424.73
42548,425.48
42626,426.26
42704,427.04
42782,427.82
42864,428.64
42947,429.47
43031,430.31
43115,431.15
43198,431.98
43281,432.81
43365,433.65
43447,434.47
43526,435.26
43605,436.05
43681,436.81
43755,437.55
43831,438.31
43907,439.07
43986,439.86
44068,440.68
44152,441.52
44237,442.37
44323,443.23
44411,444.11
44500,445.0
44590,445.9
44677,446.77
44763,447.63
44851,448.51
44939,449.39
45027,450.27
45113,451.13
45199,451.99
45286,452.86
45377,453.77
45467,454.67
45555,455.55
45643,456.43
45732,457.32
45818,458.18
45903,459.03
45986,459.86
46066,460.66
46147,461.47
46228,462.28
46309,463.09
46393,463.93
46478,464.78
46563,465.63
46646,466.46
46729,467.29
46813,468.13
46899,468.99
46984,469.84
47067,470.67
47154,471.54
47243,472.43
47334,473.34
47424,474.24
47511,475.11
47599,475.99
47689,476.89
47778,477.78
47868,478.68
47956,479.56
48044,480.44
48130,481.3
48213,482.13
48295,482.95
48377,483.77
48459,484.59
48543,485.43
48627,486.27
48714,487.14
48803,488.03
48895,488.95
48986,489.86
49078,490.78
49172,491.72
49267,492.67
49357,493.57
49445,494.45
49535,495.35
49624,496.24
49714,497.14
49802,498.02
49889,498.89
49974,499.74
50059,500.59
50141,501.41
50221,502.21
50303,503.03
50387,503.87
50473,504.73
50566,505.66
50659,506.59
50749,507.49
50840,508.4
50934,509.34
51028,510.28
51123,511.23
51214,512.14
51305,513.05
51397,513.97
51489,514.89
51577,515.77
51666,516.66
51759,517.59
51852,518.52
51943,519.43
52033,520.33
52120,521.2
52204,522.04
52286,522.86
52367,523.67
52448,524.48
52530,525.3
52616,526.16
52701,527.01
52785,527.85
52871,528.71
52957,529.57
53045,530.45
53133,531.33
53220,532.2
53306,533.06
53394,533.94
53483,534.83
53570,535.7
53656,536.56
53740,537.4
53822,538.22
53903,539.03
53986,539.86
54071,540.71
54163,541.63
54257,542.57
54351,543.51
54439,544.39
54526,545.26
54613,546.13
54702,547.02
54792,547.92
54883,548.83
54972,549.72
55063,550.63
55156,551.56
55250,552.5
55339,553.39
55429,554.29
55520,555.2
55612,556.12
55701,557.01
55790,557.9
55881,558.81
55970,559.7
56058,560.58
56144,561.44
56228,562.28
56313,563.13
56400,564.0
56488,564.88
56575,565.75
56664,566.64
56753,567.53
56843,568.43
56930,569.3
57016,570.16
57103,571.03
57190,571.9
57277,572.77
57362,573.62
57447,574.47
57534,575.34
57620,576.2
57707,577.07
57792,577.92
57877,578.77
57963,579.63
58051,580.51
58138,581.38
58225,582.25
58311,583.11
58399,583.99
58487,584.87
58577,585.77
58664,586.64
58752,587.52
58841,588.41
58929,589.29
59018,590.18
59104,591.04
59186,591.86
59269,592.69
59352,593.52
59435,594.35
59518,595.18
59600,596.0
59681,596.81
59761,597.61
59843,598.43
59927,599.27
60010,600.1
60093,600.93
60177,601.77
60261,602.61
60347,603.47
60429,604.29
60510,605.1
60592,605.92
60677,606.77
60763,607.63
60846,608.46
60930,609.3
61016,610.16
61105,611.05
61193,611.93
61278,612.78
61363,613.63
61448,614.48
61534,615.34
61620,616.2
61705,617.05
61792,617.92
61881,618.81
61972,619.72
62059,620.59
62144,621.44
62227,622.27
62307,623.07
62387,623.87
62467,624.67
62546,625.46
62625,626.25
62704,627.04
62784,627.84
62865,628.65
62946,629.46
63031,630.31
63120,631.2
63211,632.11
63303,633.03
63393,633.93
63483,634.83
63573,635.73
63665,636.65
63754,637.54
63844,638.44
63932,639.32
64017,640.17
64099,640.99
64180,641.8
64261,642.61
64344,643.44
64431,644.31
64519,645.19
64605,646.05
64690,646.9
64777,647.77
64864,648.64
64952,649.52
65042,650.42
65129,651.29
65216,652.16
65304,653.04
65392,653.92
65480,654.8
65565,655.65
65651,656.51
65736,657.36
65817,658.17
65899,658.99
65981,659.81
66063,660.63
66144,661.44
66224,662.24
66302,663.02
66380,663.8
66458,664.58
66535,665.35
66613,666.13
66699,666.99
66789,667.89
66877,668.77
66967,669.67
67056,670.56
67143,671.43
67229,672.29
67314,673.14
67402,674.02
67493,674.93
67586,675.86
67689,676.89
67792,677.92
67893,678.93
67991,679.91
68084,680.84
68175,681.75
68268,682.68
68366,683.66
68464,684.64
68563,685.63
68659,686.59
68753,687.53
68845,688.45
68937,689.37
69031,690.31
69126,691.26
69222,692.22
69318,693.18
69412,694.12
69505,695.05
69599,695.99
69693,696.93
69787,697.87
69882,698.82
69973,699.73
70063,700.63
70151,701.51
70237,702.37
70320,703.2
70403,704.03
70487,704.87
70572,705.72
70659,706.59
70748,707.48
70835,708.35
70924,709.24
71012,710.12
71100,711.0
71188,711.88
71278,712.78
71367,713.67
71456,714.56
71543,715.43
71633,716.33
71723,717.23
71813,718.13
71903,719.03
71993,719.93
72082,720.82
72169,721.69
72256,722.56
72345,723.45
72434,724.34
72523,725.23
72611,726.11
72696,726.96
72781,727.81
72865,728.65
72949,729.49
73031,730.31
73111,731.11
73190,731.9
73270,732.7
73351,733.51
73434,734.34
73520,735.2
73607,736.07
73694,736.94
73779,737.79
73863,738.63
73948,739.48
74034,740.34
74121,741.21
74207,742.07
74292,742.92
74377,743.77
74465,744.65
74554,745.54
74643,746.43
74731,747.31
74818,748.18
74907,749.07
74996,749.96
75087,750.87
75177,751.77
75265,752.65
75352,753.52
75437,754.37
75523,755.23
75607,756.07
75690,756.9
75771,757.71
75849,758.49
75927,759.27
76006,760.06
76084,760.84
76165,761.65
76246,762.46
76326,763.26
76405,764.05
76482,764.82
76561,765.61
76641,766.41
76724,767.24
76809,768.09
76896,768.96
76982,769.82
77068,770.68
77155,771.55
77242,772.42
77329,773.29
77417,774.17
77502,775.02
77587,775.87
77673,776.73
77759,777.59
77847,778.47
77935,779.35
78024,780.24
78118,781.18
78212,782.12
78305,783.05
78397,783.97
78487,784.87
78578,785.78
78670,786.7
78759,787.59
78846,788.46
78935,789.35
79024,790.24
79111,791.11
79194,791.94
79275,792.75
79356,793.56
79438,794.38
79522,795.22
79608,796.08
79695,796.95
79778,797.78
79860,798.6
79942,799.42
80026,800.26
80111,801.11
80196,801.96
80283,802.83
80371,803.71
80456,804.56
80542,805.42
80628,806.28
80716,807.16
80804,808.04
80892,808.92
80978,809.78
81061,810.61
81144,811.44
81226,812.26
81311,813.11
81400,814.0
81490,814.9
81583,815.83
81676,816.76
81768,817.68
81862,818.62
81953,819.53
82037,820.37
82122,821.22
82208,822.08
82292,822.92
82376,823.76
82457,824.57
82538,825.38
82621,826.21
82709,827.09
82804,828.04
82902,829.02
83002,830.02
83100,831.0
83200,832.0
83301,833.01
83402,834.02
83500,835.0
83596,835.96
83690,836.9
83783,837.83
83873,838.73
83960,839.6
84045,840.45
84127,841.27
84211,842.11
84296,842.96
84384,843.84
84472,844.72
84559,845.59
84649,846.49
84740,847.4
84830,848.3
84922,849.22
85013,850.13
85105,851.05
85195,851.95
85285,852.85
85375,853.75
85467,854.67
85559,855.59
85652,856.52
85744,857.44
85835,858.35
85923,859.23
86012,860.12
86102,861.02
86193,861.93
86284,862.84
86374,863.74
86461,864.61
86546,865.46
86632,866.32
86719,867.19
86807,868.07
86894,868.94
86981,869.81
87064,870.64
87148,871.48
87232,872.32
87316,873.16
87400,874.0
87484,874.84
87567,875.67
87649,876.49
87732,877.32
87815,878.15
87898,878.98
87979,879.79
88062,880.62
88145,881.45
88228,882.28
88311,883.11
88391,883.91
88471,884.71
88549,885.49
88628,886.28
88708,887.08
88789,887.89
88871,888.71
88954,889.54
89036,890.36
89117,891.17
89200,892.0
89282,892.82
89364,893.64
89444,894.44
89526,895.26
89608,896.08
89690,896.9
89773,897.73
89857,898.57
89940,899.4
90024,900.24
90110,901.1
90196,901.96
90281,902.81
90365,903.65
90450,904.5
90540,905.4
90628,906.28
90714,907.14
90800,908.0
90887,908.87
90973,909.73
91059,910.59
91143,911.43
91226,912.26
91306,913.06
91387,913.87
91466,914.66
91545,915.45
91623,916.23
91699,916.99
91774,917.74
91849,918.49
91924,919.24
92000,920.0
92079,920.79
92159,921.59
92241,922.41
92321,923.21
92404,924.04
92487,924.87
92571,925.71
92655,926.55
92738,927.38
92820,928.2
92904,929.04
92988,929.88
93073,930.73
93158,931.58
93242,932.42
93328,933.28
93415,934.15
93501,935.01
93586,935.86
93671,936.71
93755,937.55
93836,938.36
93917,939.17
93995,939.95
94073,940.73
94152,941.52
94232,942.32
94316,943.16
94399,943.99
94482,944.82
94567,945.67
94655,946.55
94744,947.44
94833,948.33
94922,949.22
95012,950.12
95102,951.02
95189,951.89
95276,952.76
95365,953.65
95454,954.54
95540,955.4
95627,956.27
95715,957.15
95805,958.05
95896,958.96
95985,959.85
96075,960.75
96163,961.63
96252,962.52
96339,963.39
96423,964.23
96509,965.09
96595,965.95
96682,966.82
96769,967.69
96853,968.53
96935,969.35
97014,970.14
97092,970.92
97168,971.68
97244,972.44
97322,973.22
97402,974.02
97486,974.86
97572,975.72
97657,976.57
97742,977.42
97829,978.29
97917,979.17
98006,980.06
98097,980.97
98185,981.85
98273,982.73
98361,983.61
98452,984.52
98544,985.44
98635,986.35
98729,987.29
98824,988.24
98918,989.18
99009,990.09
99098,990.98
99189,991.89
99280,992.8
99372,993.72
99462,994.62
99549,995.49
99637,996.37
99726,997.26
99817,998.17
99908,999.08
99997,999.97
100085,1000.85
100176,1001.76
100267,1002.67
100359,1003.59
100448,1004.48
100534,1005.34
100622,1006.22
100710,1007.1
100801,1008.01
100892,1008.92
100981,1009.81
101069,1010.69
101159,1011.59
101251,1012.51
101343,1013.43
101430,1014.3
101515,1015.15
101598,1015.98
101677,1016.77
101755,1017.55
101834,1018.34
101913,1019.13
101992,1019.92
102073,1020.73
102152,1021.52
102231,1022.31
102310,1023.1
102393,1023.93
102478,1024.78
102565,1025.65
102656,1026.56
102748,1027.48
102842,1028.42
102935,1029.35
103023,1030.23
103113,1031.13
103203,1032.03
103293,1032.93
103382,1033.82
103470,1034.7
103557,1035.57
103645,1036.45
103734,1037.34
103822,1038.22
103910,1039.1
103997,1039.97
104083,1040.83
104170,1041.7
104257,1042.57
104346,1043.46
104434,1044.34
104520,1045.2
104607,1046.07
104696,1046.96
104785,1047.85
104875,1048.75
104962,1049.62
105050,1050.5
105138,1051.38
105225,1052.25
105310,1053.1
105395,1053.95
105478,1054.78
105560,1055.6
105640,1056.4
105721,1057.21
105802,1058.02
105885,1058.85
105971,1059.71
106057,1060.57
106142,1061.42
106226,1062.26
106310,1063.1
106396,1063.96
106481,1064.81
106567,1065.67
106651,1066.51
106737,1067.37
106823,1068.23
106912,1069.12
107000,1070.0
107087,1070.87
107176,1071.76
107266,1072.66
107357,1073.57
107445,1074.45
107534,1075.34
107622,1076.22
107708,1077.08
107789,1077.89
107872,1078.72
107953,1079.53
108034,1080.34
108114,1081.14
108196,1081.96
108276,1082.76
108354,1083.54
108432,1084.32
108510,1085.1
108587,1085.87
108666,1086.66
108745,1087.45
108823,1088.23
108901,1089.01
108978,1089.78
109052,1090.52
109126,1091.26
109199,1091.99
109272,1092.72
109347,1093.47
109422,1094.22
109496,1094.96
109572,1095.72
109650,1096.5
109728,1097.28
109808,1098.08
109889,1098.89
109970,1099.7
110055,1100.55
110140,1101.4
110224,1102.24
110313,1103.13
110402,1104.02
110491,1104.91
110578,1105.78
110665,1106.65
110750,1107.5
110835,1108.35
110919,1109.19
111001,1110.01
111081,1110.81
111161,1111.61
111241,1112.41
111323,1113.23
111409,1114.09
111497,1114.97
111585,1115.85
111670,1116.7
111756,1117.56
111846,1118.46
111936,1119.36
112023,1120.23
112106,1121.06
112186,1121.86
112264,1122.64
112341,1123.41
112421,1124.21
112504,1125.04
112593,1125.93
112680,1126.8
112766,1127.66
112854,1128.54
112944,1129.44
113038,1130.38
113132,1131.32
113224,1132.24
113317,1133.17
113413,1134.13
113508,1135.08
113603,1136.03
113696,1136.96
113790,1137.9
113887,1138.87
113983,1139.83
114076,1140.76
114167,1141.67
114258,1142.58
114351,1143.51
114445,1144.45
114536,1145.36
114628,1146.28
114722,1147.22
114818,1148.18
114914,1149.14
115007,1150.07
115096,1150.96
115186,1151.86
115275,1152.75
115359,1153.59
115441,1154.41
115522,1155.22
115602,1156.02
115685,1156.85
115771,1157.71
115858,1158.58
115947,1159.47
116035,1160.35
116124,1161.24
116214,1162.14
116305,1163.05
116393,1163.93
116479,1164.79
116567,1165.67
116655,1166.55
116745,1167.45
116834,1168.34
116924,1169.24
117016,1170.16
117108,1171.08
117200,1172.0
117290,1172.9
117381,1173.81
117472,1174.72
117559,1175.59
117644,1176.44
117727,1177.27
117810,1178.1
117895,1178.95
117982,1179.82
118070,1180.7
118157,1181.57
118245,1182.45
118332,1183.32
118420,1184.2
118506,1185.06
118593,1185.93
118681,1186.81
118770,1187.7
118857,1188.57
118944,1189.44
119032,1190.32
119121,1191.21
119210,1192.1
119297,1192.97
119385,1193.85
119476,1194.76
119568,1195.68
119659,1196.59
119749,1197.49
119839,1198.39
119932,1199.32
120023,1200.23
120117,1201.17
120211,1202.11
120303,1203.03
120396,1203.96
120486,1204.86
120575,1205.75
120665,1206.65
120752,1207.52
120837,1208.37
120919,1209.19
120999,1209.99
121079,1210.79
121159,1211.59
121241,1212.41
121324,1213.24
121409,1214.09
121492,1214.92
121575,1215.75
121659,1216.59
121745,1217.45
121832,1218.32
121919,1219.19
122004,1220.04
122090,1220.9
122178,1221.78
122267,1222.67
122355,1223.55
122442,1224.42
122532,1225.32
122623,1226.23
122716,1227.16
122807,1228.07
122898,1228.98
122993,1229.93
123087,1230.87
123181,1231.81
123271,1232.71
123360,1233.6
123447,1234.47
123532,1235.32
123615,1236.15
123697,1236.97
123777,1237.77
123858,1238.58
123942,1239.42
124028,1240.28
124114,1241.14
124201,1242.01
124290,1242.9
124380,1243.8
124470,1244.7
124558,1245.58
124647,1246.47
124737,1247.37
124826,1248.26
124913,1249.13
124999,1249.99
125084,1250.84
125170,1251.7
125255,1252.55
125341,1253.41
125425,1254.25
125510,1255.1
125597,1255.97
125685,1256.85
125773,1257.73
125861,1258.61
125948,1259.48
126036,1260.36
126122,1261.22
126208,1262.08
126293,1262.93
126378,1263.78
126465,1264.65
126553,1265.53
126642,1266.42
126730,1267.3
126818,1268.18
126905,1269.05
126994,1269.94
127084,1270.84
127173,1271.73
127262,1272.62
127349,1273.49
127435,1274.35
127523,1275.23
127610,1276.1
127697,1276.97
127783,1277.83
127868,1278.68
127955,1279.55
128042,1280.42
128130,1281.3
128217,1282.17
128302,1283.02
128387,1283.87
128472,1284.72
128557,1285.57
128642,1286.42
128724,1287.24
128804,1288.04
128882,1288.82
128962,1289.62
129043,1290.43
129127,1291.27
129211,1292.11
129298,1292.98
129384,1293.84
129469,1294.69
129553,1295.53
129637,1296.37
129718,1297.18
129796,1297.96
129872,1298.72
129948,1299.48
130024,1300.24
130100,1301.0
130180,1301.8
130262,1302.62
130347,1303.47
130433,1304.33
130520,1305.2
130608,1306.08
130699,1306.99
130788,1307.88
130876,1308.76
130967,1309.67
131059,1310.59
131151,1311.51
131243,1312.43
131330,1313.3
131415,1314.15
131499,1314.99
131582,1315.82
131662,1316.62
131741,1317.41
131822,1318.22
131904,1319.04
131987,1319.87
132072,1320.72
132159,1321.59
132246,1322.46
132331,1323.31
132416,1324.16
132503,1325.03
132590,1325.9
132677,1326.77
132761,1327.61
132844,1328.44
132927,1329.27
133008,1330.08
133090,1330.9
133171,1331.71
133249,1332.49
133326,1333.26
133403,1334.03
133479,1334.79
133557,1335.57
133637,1336.37
133719,1337.19
133801,1338.01
133882,1338.82
133964,1339.64
134046,1340.46
134128,1341.28
134208,1342.08
134286,1342.86
134363,1343.63
134438,1344.38
134512,1345.12
134587,1345.87
134665,1346.65
134747,1347.47
134829,1348.29
134914,1349.14
135003,1350.03
135092,1350.92
135178,1351.78
135265,1352.65
135354,1353.54
135441,1354.41
135527,1355.27
135613,1356.13
135701,1357.01
135788,1357.88
135874,1358.74
135958,1359.58
136038,1360.38
136118,1361.18
136199,1361.99
136282,1362.82
136367,1363.67
136453,1364.53
136540,1365.4
136626,1366.26
136712,1367.12
136799,1367.99
136885,1368.85
136972,1369.72
137058,1370.58
137142,1371.42
137225,1372.25
137310,1373.1
137395,1373.95
137480,1374.8
137564,1375.64
137645,1376.45
137725,1377.25
137803,1378.03
137882,1378.82
137962,1379.62
138044,1380.44
138129,1381.29
138213,1382.13
138297,1382.97
138383,1383.83
138469,1384.69
138557,1385.57
138643,1386.43
138726,1387.26
138812,1388.12
138898,1388.98
138983,1389.83
139067,1390.67
139153,1391.53
139239,1392.39
139327,1393.27
139418,1394.18
139507,1395.07
139596,1395.96
139687,1396.87
139777,1397.77
139865,1398.65
139951,1399.51
140033,1400.33
140115,1401.15
140196,1401.96
140279,1402.79
140363,1403.63
140446,1404.46
140531,1405.31
140618,1406.18
140705,1407.05
140793,1407.93
140879,1408.79
140966,1409.66
141053,1410.53
141140,1411.4
141228,1412.28
141316,1413.16
141402,1414.02
141488,1414.88
141574,1415.74
141662,1416.62
141750,1417.5
141836,1418.36
141922,1419.22
142008,1420.08
142097,1420.97
142185,1421.85
142272,1422.72
142358,1423.58
142444,1424.44
142530,1425.3
142614,1426.14
142696,1426.96
142776,1427.76
142854,1428.54
142933,1429.33
143012,1430.12
143093,1430.93
143177,1431.77
143259,1432.59
143341,1433.41
143424,1434.24
143511,1435.11
143596,1435.96
143681,1436.81
143767,1437.67
143855,1438.55
143943,1439.43
144029,1440.29
144116,1441.16
144205,1442.05
144295,1442.95
144384,1443.84
144472,1444.72
144560,1445.6
144646,1446.46
144732,1447.32
144815,1448.15
144896,1448.96
144978,1449.78
145061,1450.61
145145,1451.45
145231,1452.31
145317,1453.17
145403,1454.03
145490,1454.9
145578,1455.78
145667,1456.67
145754,1457.54
145839,1458.39
145923,1459.23
146008,1460.08
146095,1460.95
146182,1461.82
146271,1462.71
146359,1463.59
146449,1464.49
146537,1465.37
146628,1466.28
146720,1467.2
146812,1468.12
146901,1469.01
146990,1469.9
147081,1470.81
147172,1471.72
147262,1472.62
147348,1473.48
147435,1474.35
147520,1475.2
147604,1476.04
147688,1476.88
147770,1477.7
147851,1478.51
147931,1479.31
148013,1480.13
148098,1480.98
148184,1481.84
148271,1482.71
148358,1483.58
148443,1484.43
148530,1485.3
148618,1486.18
148707,1487.07
148796,1487.96
148884,1488.84
148972,1489.72
149062,1490.62
149151,1491.51
149239,1492.39
149326,1493.26
149411,1494.11
149498,1494.98
149587,1495.87
149676,1496.76
149766,1497.66
149855,1498.55
149943,1499.43
150031,1500.31
150118,1501.18
150208,1502.08
150295,1502.95
150383,1503.83
150470,1504.7
150555,1505.55
150640,1506.4
150724,1507.24
150809,1508.09
150892,1508.92
150974,1509.74
151054,1510.54
151134,1511.34
151214,1512.14
151295,1512.95
151379,1513.79
151465,1514.65
151551,1515.51
151637,1516.37
151722,1517.22
151808,1518.08
151895,1518.95
151982,1519.82
152068,1520.68
152151,1521.51
152235,1522.35
152321,1523.21
152409,1524.09
152498,1524.98
152587,1525.87
152675,1526.75
152766,1527.66
152858,1528.58
152949,1529.49
153041,1530.41
153131,1531.31
153221,1532.21
153309,1533.09
153397,1533.97
153484,1534.84
153571,1535.71
153657,1536.57
153741,1537.41
153826,1538.26
153911,1539.11
153997,1539.97
154084,1540.84
154170,1541.7
154255,1542.55
154341,1543.41
154427,1544.27
154513,1545.13
154598,1545.98
154682,1546.82
154765,1547.65
154849,1548.49
154935,1549.35
155022,1550.22
155107,1551.07
155190,1551.9
155271,1552.71
155348,1553.48
155426,1554.26
155504,1555.04
155584,1555.84
155666,1556.66
155750,1557.5
155840,1558.4
155930,1559.3
156019,1560.19
156106,1561.06
156195,1561.95
156285,1562.85
156374,1563.74
156462,1564.62
156545,1565.45
156630,1566.3
156716,1567.16
156806,1568.06
156898,1568.98
156993,1569.93
157089,1570.89
157184,1571.84
157280,1572.8
157373,1573.73
157463,1574.63
157548,1575.48
157631,1576.31
157712,1577.12
157793,1577.93
157872,1578.72
157949,1579.49
158027,1580.27
158105,1581.05
158182,1581.82
158260,1582.6
158337,1583.37
158415,1584.15
158493,1584.93
158568,1585.68
158643,1586.43
158717,1587.17
158791,1587.91
158865,1588.65
158939,1589.39
159013,1590.13
159089,1590.89
159168,1591.68
159249,1592.49
159332,1593.32
159416,1594.16
159503,1595.03
159591,1595.91
159680,1596.8
159770,1597.7
159859,1598.59
159948,1599.48
160035,1600.35
160119,1601.19
160202,1602.02
160286,1602.86
160369,1603.69
160452,1604.52
160533,1605.33
160614,1606.14
160696,1606.96
160778,1607.78
160858,1608.58
160938,1609.38
161016,1610.16
161092,1610.92
161166,1611.66
161242,1612.42
161321,1613.21
161404,1614.04
161489,1614.89
161573,1615.73
161661,1616.61
161752,1617.52
161841,1618.41
161929,1619.29
162015,1620.15
162098,1620.98
162182,1621.82
162268,1622.68
162354,1623.54
162439,1624.39
162525,1625.25
162610,1626.1
162697,1626.97
162784,1627.84
162871,1628.71
162958,1629.58
163044,1630.44
163130,1631.3
163218,1632.18
163304,1633.04
163388,1633.88
163472,1634.72
163556,1635.56
163637,1636.37
163720,1637.2
163803,1638.03
163886,1638.86
163970,1639.7
164054,1640.54
164138,1641.38
164226,1642.26
164314,1643.14
164401,1644.01
164486,1644.86
164569,1645.69
164653,1646.53
164735,1647.35
164816,1648.16
164895,1648.95
164972,1649.72
165049,1650.49
165126,1651.26
165206,1652.06
165286,1652.86
165370,1653.7
165454,1654.54
165538,1655.38
165621,1656.21
165706,1657.06
165792,1657.92
165879,1658.79
165967,1659.67
166056,1660.56
166147,1661.47
166239,1662.39
166331,1663.31
166421,1664.21
166511,1665.11
166602,1666.02
166694,1666.94
166785,1667.85
166872,1668.72
166958,1669.58
167044,1670.44
167129,1671.29
167215,1672.15
167300,1673.0
167385,1673.85
167470,1674.7
167555,1675.55
167642,1676.42
167729,1677.29
167815,1678.15
167900,1679.0
167986,1679.86
168071,1680.71
168158,1681.58
168242,1682.42
168325,1683.25
168408,1684.08
168491,1684.91
168574,1685.74
168656,1686.56
168736,1687.36
168815,1688.15
168893,1688.93
168972,1689.72
169053,1690.53
169137,1691.37
169222,1692.22
169310,1693.1
169397,1693.97
169483,1694.83
169570,1695.7
169660,1696.6
169751,1697.51
169842,1698.42
169932,1699.32
170020,1700.2
170109,1701.09
170202,1702.02
170295,1702.95
170389,1703.89
170479,1704.79
170566,1705.66
170651,1706.51
170736,1707.36
170820,1708.2
170903,1709.03
170984,1709.84
171065,1710.65
171145,1711.45
171229,1712.29
171319,1713.19
171410,1714.1
171501,1715.01
171590,1715.9
171677,1716.77
171763,1717.63
171849,1718.49
171935,1719.35
172020,1720.2
172105,1721.05
172187,1721.87
172269,1722.69
172353,1723.53
172437,1724.37
172524,1725.24
172610,1726.1
172695,1726.95
172781,1727.81
172868,1728.68
172955,1729.55
173041,1730.41
173124,1731.24
173207,1732.07
173286,1732.86
173365,1733.65
173442,1734.42
173522,1735.22
173603,1736.03
173687,1736.87
173770,1737.7
173853,1738.53
173938,1739.38
174024,1740.24
174111,1741.11
174197,1741.97
174281,1742.81
174365,1743.65
174449,1744.49
174534,1745.34
174620,1746.2
174704,1747.04
174785,1747.85
174864,1748.64
174942,1749.42
175019,1750.19
175095,1750.95
175171,1751.71
175250,1752.5
175333,1753.33
175420,1754.2
175506,1755.06
175593,1755.93
175680,1756.8
175770,1757.7
175858,1758.58
175944,1759.44
176030,1760.3
176117,1761.17
176205,1762.05
176292,1762.92
176378,1763.78
176465,1764.65
176552,1765.52
176638,1766.38
176721,1767.21
176804,1768.04
176882,1768.82
176960,1769.6
177039,1770.39
177117,1771.17
177198,1771.98
177282,1772.82
177367,1773.67
177453,1774.53
177537,1775.37
177622,1776.22
177708,1777.08
177795,1777.95
177882,1778.82
177969,1779.69
178056,1780.56
178143,1781.43
178230,1782.3
178317,1783.17
178404,1784.04
178490,1784.9
178574,1785.74
178658,1786.58
178742,1787.42
178827,1788.27
178915,1789.15
179001,1790.01
179086,1790.86
179169,1791.69
179253,1792.53
179337,1793.37
179420,1794.2
179504,1795.04
179587,1795.87
179670,1796.7
179755,1797.55
179842,1798.42
179928,1799.28
180015,1800.15
180102,1801.02
180190,1801.9
180280,1802.8
180370,1803.7
180460,1804.6
180548,1805.48
180635,1806.35
180721,1807.21
180808,1808.08
180895,1808.95
180982,1809.82
181068,1810.68
181154,1811.54
181241,1812.41
181328,1813.28
181415,1814.15
181503,1815.03
181589,1815.89
181676,1816.76
181764,1817.64
181854,1818.54
181943,1819.43
182033,1820.33
182121,1821.21
182209,1822.09
182296,1822.96
182382,1823.82
182469,1824.69
182555,1825.55
182639,1826.39
182726,1827.26
182813,1828.13
182902,1829.02
182990,1829.9
183077,1830.77
183162,1831.62
183247,1832.47
183333,1833.33
183419,1834.19
183506,1835.06
183592,1835.92
183679,1836.79
183767,1837.67
183853,1838.53
183938,1839.38
184021,1840.21
184103,1841.03
184186,1841.86
184269,1842.69
184353,1843.53
184438,1844.38
184523,1845.23
184607,1846.07
184693,1846.93
184778,1847.78
184864,1848.64
184950,1849.5
185036,1850.36
185121,1851.21
185205,1852.05
185288,1852.88
185369,1853.69
185447,1854.47
185525,1855.25
185602,1856.02
185679,1856.79
185758,1857.58
185841,1858.41
185925,1859.25
186009,1860.09
186093,1860.93
186179,1861.79
186266,1862.66
186353,1863.53
186439,1864.39
186525,1865.25
186611,1866.11
186700,1867.0
186789,1867.89
186879,1868.79
186968,1869.68
187057,1870.57
187146,1871.46
187234,1872.34
187323,1873.23
187409,1874.09
187494,1874.94
187580,1875.8
187668,1876.68
187753,1877.53
187837,1878.37
187921,1879.21
188006,1880.06
188092,1880.92
188176,1881.76
188260,1882.6
188344,1883.44
188429,1884.29
188515,1885.15
188600,1886.0
188684,1886.84
188770,1887.7
188857,1888.57
188945,1889.45
189034,1890.34
189120,1891.2
189207,1892.07
189295,1892.95
189383,1893.83
189471,1894.71
189558,1895.58
189643,1896.43
189729,1897.29
189815,1898.15
189901,1899.01
189986,1899.86
190071,1900.71
190155,1901.55
190240,1902.4
190324,1903.24
190406,1904.06
190489,1904.89
190572,1905.72
190656,1906.56
190738,1907.38
190818,1908.18
190897,1908.97
190977,1909.77
191055,1910.55
191132,1911.32
191208,1912.08
191282,1912.82
191357,1913.57
191432,1914.32
191508,1915.08
191587,1915.87
191669,1916.69
191753,1917.53
191835,1918.35
191918,1919.18
192003,1920.03
192090,1920.9
192178,1921.78
192266,1922.66
192356,1923.56
192446,1924.46
192536,1925.36
192625,1926.25
192715,1927.15
192804,1928.04
192892,1928.92
192981,1929.81
193068,1930.68
193157,1931.57
193247,1932.47
193335,1933.35
193422,1934.22
193509,1935.09
193596,1935.96
193682,1936.82
193767,1937.67
193849,1938.49
193930,1939.3
194013,1940.13
194098,1940.98
194185,1941.85
194276,1942.76
194366,1943.66
194455,1944.55
194545,1945.45
194636,1946.36
194727,1947.27
194815,1948.15
194901,1949.01
194988,1949.88
195075,1950.75
195162,1951.62
195249,1952.49
195336,1953.36
195425,1954.25
195514,1955.14
195603,1956.03
195692,1956.92
195778,1957.78
195864,1958.64
195949,1959.49
196032,1960.32
196115,1961.15
196199,1961.99
196279,1962.79
196356,1963.56
196431,1964.31
196505,1965.05
196578,1965.78
196654,1966.54
196730,1967.3
196811,1968.11
196896,1968.96
196984,1969.84
197072,1970.72
197161,1971.61
197249,1972.49
197338,1973.38
197425,1974.25
197510,1975.1
197592,1975.92
197672,1976.72
197751,1977.51
197832,1978.32
197915,1979.15
198000,1980.0
198082,1980.82
198163,1981.63
198245,1982.45
198327,1983.27
198408,1984.08
198491,1984.91
198575,1985.75
198662,1986.62
198751,1987.51
198840,1988.4
198928,1989.28
199018,1990.18
199109,1991.09
199194,1991.94
199278,1992.78
199364,1993.64
199450,1994.5
199536,1995.36
199623,1996.23
199708,1997.08
199791,1997.91
199873,1998.73
199953,1999.53
200034,2000.34
200120,2001.2
200209,2002.09
200303,2003.03
200399,2003.99
200494,2004.94
200589,2005.89
200685,2006.85
200780,2007.8
200874,2008.74
200966,2009.66
201057,2010.57
201146,2011.46
201235,2012.35
201323,2013.23
201412,2014.12
201500,2015.0
201587,2015.87
201675,2016.75
201762,2017.62
201848,2018.48
201934,2019.34
202019,2020.19
202103,2021.03
202186,2021.86
202270,2022.7
202355,2023.55
202441,2024.41
202527,2025.27
202613,2026.13
202699,2026.99
202787,2027.87
202877,2028.77
202967,2029.67
203058,2030.58
203147,2031.47
203237,2032.37
203326,2033.26
203415,2034.15
203504,2035.04
203590,2035.9
203675,2036.75
203760,2037.6
203844,2038.44
203927,2039.27
204009,2040.09
204089,2040.89
204167,2041.67
204245,2042.45
204322,2043.22
204399,2043.99
204478,2044.78
204560,2045.6
204649,2046.49
204741,2047.41
204833,2048.33
204921,2049.21
205011,2050.11
205102,2051.02
205194,2051.94
205285,2052.85
205373,2053.73
205461,2054.61
205549,2055.49
205639,2056.39
205727,2057.27
205816,2058.16
205905,2059.05
205996,2059.96
206086,2060.86
206178,2061.78
206269,2062.69
206360,2063.6
206452,2064.52
206543,2065.43
206633,2066.33
206722,2067.22
206811,2068.11
206898,2068.98
206983,2069.83
207069,2070.69
207152,2071.52
207235,2072.35
207317,2073.17
207401,2074.01
207484,2074.84
207566,2075.66
207649,2076.49
207733,2077.33
207818,2078.18
207904,2079.04
207990,2079.9
208075,2080.75
208158,2081.58
208241,2082.41
208325,2083.25
208410,2084.1
208495,2084.95
208580,2085.8
208665,2086.65
208753,2087.53
208841,2088.41
208928,2089.28
209012,2090.12
209094,2090.94
209174,2091.74
209252,2092.52
209330,2093.3
209409,2094.09
209488,2094.88
209570,2095.7
209653,2096.53
209738,2097.38
209821,2098.21
209903,2099.03
209987,2099.87
210073,2100.73
210159,2101.59
210246,2102.46
210333,2103.33
210420,2104.2
210506,2105.06
210594,2105.94
210684,2106.84
210775,2107.75
210866,2108.66
210960,2109.6
211052,2110.52
211144,2111.44
211233,2112.33
211324,2113.24
211413,2114.13
211502,2115.02
211591,2115.91
211679,2116.79
211768,2117.68
211856,2118.56
211944,2119.44
212032,2120.32
212120,2121.2
212208,2122.08
212290,2122.9
212370,2123.7
212450,2124.5
212528,2125.28
212605,2126.05
212682,2126.82
212758,2127.58
212835,2128.35
212913,2129.13
212996,2129.96
213081,2130.81
213168,2131.68
213255,2132.55
213344,2133.44
213435,2134.35
213528,2135.28
213620,2136.2
213714,2137.14
213807,2138.07
213902,2139.02
213995,2139.95
214088,2140.88
214179,2141.79
214268,2142.68
214355,2143.55
214444,2144.44
214532,2145.32
214620,2146.2
214706,2147.06
214795,2147.95
214885,2148.85
214974,2149.74
215063,2150.63
215149,2151.49
215234,2152.34
215319,2153.19
215404,2154.04
215488,2154.88
215572,2155.72
215653,2156.53
215735,2157.35
215816,2158.16
215896,2158.96
215974,2159.74
216051,2160.51
216128,2161.28
216206,2162.06
216285,2162.85
216369,2163.69
216456,2164.56
216546,2165.46
216634,2166.34
216722,2167.22
216813,2168.13
216906,2169.06
217000,2170.0
217093,2170.93
217187,2171.87
217280,2172.8
217373,2173.73
217467,2174.67
217560,2175.6
217654,2176.54
217747,2177.47
217838,2178.38
217930,2179.3
218019,2180.19
218104,2181.04
218187,2181.87
218272,2182.72
218358,2183.58
218443,2184.43
218527,2185.27
218610,2186.1
218693,2186.93
218777,2187.77
218862,2188.62
218944,2189.44
219025,2190.25
219104,2191.04
219181,2191.81
219255,2192.55
219329,2193.29
219402,2194.02
219476,2194.76
219551,2195.51
219628,2196.28
219704,2197.04
219781,2197.81
219858,2198.58
219935,2199.35
220009,2200.09
220083,2200.83
220156,2201.56
220228,2202.28
220301,2203.01
220365,2203.65
220433,2204.33
220501,2205.01
220569,2205.69
220636,2206.36
220704,2207.04
220772,2207.72
220842,2208.42
220912,2209.12
220982,2209.82
221052,2210.52
221121,2211.21
221190,2211.9
221253,2212.53
221316,2213.16
221390,2213.9
221459,2214.59
221527,2215.27
221597,2215.97
221668,2216.68
221740,2217.4
221812,2218.12
221888,2218.88
221971,2219.71
222063,2220.63
222155,2221.55
222249,2222.49
222345,2223.45
222440,2224.4
222532,2225.32
222618,2226.18
222705,2227.05
222793,2227.93
222885,2228.85
222983,2229.83
223080,2230.8
223177,2231.77
223280,2232.8
223378,2233.78
223469,2234.69
223555,2235.55
223639,2236.39
223723,2237.23
223805,2238.05
223887,2238.87
223974,2239.74
224063,2240.63
224150,2241.5
224232,2242.32
224312,2243.12
224392,2243.92
224473,2244.73
224556,2245.56
224637,2246.37
224719,2247.19
224802,2248.02
224885,2248.85
224969,2249.69
225054,2250.54
225140,2251.4
225225,2252.25
225310,2253.1
225396,2253.96
225484,2254.84
225573,2255.73
225665,2256.65
225758,2257.58
225848,2258.48
225936,2259.36
226023,2260.23
226110,2261.1
226199,2261.99
226290,2262.9
226384,2263.84
226481,2264.81
226578,2265.78
226674,2266.74
226771,2267.71
226868,2268.68
226962,2269.62
227055,2270.55
227145,2271.45
227236,2272.36
227326,2273.26
227414,2274.14
227502,2275.02
227589,2275.89
227676,2276.76
227763,2277.63
227851,2278.51
227938,2279.38
228023,2280.23
228107,2281.07
228192,2281.92
228275,2282.75
228360,2283.6
228445,2284.45
228532,2285.32
228619,2286.19
228708,2287.08
228797,2287.97
228886,2288.86
228974,2289.74
229060,2290.6
229144,2291.44
229226,2292.26
229306,2293.06
229386,2293.86
229467,2294.67
229552,2295.52
229640,2296.4
229731,2297.31
229820,2298.2
229911,2299.11
230000,2300.0
230088,2300.88
230174,2301.74
230259,2302.59
230342,2303.42
230424,2304.24
230508,2305.08
230595,2305.95
230684,2306.84
230773,2307.73
230861,2308.61
230950,2309.5
231037,2310.37
231122,2311.22
231208,2312.08
231294,2312.94
231382,2313.82
231469,2314.69
231554,2315.54
231638,2316.38
231722,2317.22
231805,2318.05
231887,2318.87
231971,2319.71
232058,2320.58
232146,2321.46
232235,2322.35
232324,2323.24
232414,2324.14
232505,2325.05
232596,2325.96
232684,2326.84
232771,2327.71
232859,2328.59
232949,2329.49
233039,2330.39
233129,2331.29
233219,2332.19
233308,2333.08
233394,2333.94
233479,2334.79
233562,2335.62
233643,2336.43
233727,2337.27
233811,2338.11
233893,2338.93
233976,2339.76
234061,2340.61
234148,2341.48
234235,2342.35
234321,2343.21
234409,2344.09
234496,2344.96
234580,2345.8
234664,2346.64
234747,2347.47
234831,2348.31
234913,2349.13
234995,2349.95
235078,2350.78
235160,2351.6
235246,2352.46
235335,2353.35
235427,2354.27
235523,2355.23
235616,2356.16
235711,2357.11
235801,2358.01
235889,2358.89
235976,2359.76
236063,2360.63
236149,2361.49
236236,2362.36
236323,2363.23
236410,2364.1
236499,2364.99
236592,2365.92
236684,2366.84
236778,2367.78
236873,2368.73
236968,2369.68
237065,2370.65
237163,2371.63
237259,2372.59
237355,2373.55
237453,2374.53
237550,2375.5
237643,2376.43
237736,2377.36
237826,2378.26
237915,2379.15
238004,2380.04
238094,2380.94
238183,2381.83
238275,2382.75
238368,2383.68
238462,2384.62
238551,2385.51
238636,2386.36
238720,2387.2
238804,2388.04
238890,2388.9
238977,2389.77
239067,2390.67
239157,2391.57
239251,2392.51
239342,2393.42
239431,2394.31
239521,2395.21
239611,2396.11
239701,2397.01
239792,2397.92
239883,2398.83
239975,2399.75
240067,2400.67
240163,2401.63
240260,2402.6
240357,2403.57
240455,2404.55
240555,2405.55
240651,2406.51
240746,2407.46
240841,2408.41
240934,2409.34
241027,2410.27
241119,2411.19
241210,2412.1
241298,2412.98
241388,2413.88
241476,2414.76
241565,2415.65
241651,2416.51
241736,2417.36
241821,2418.21
241907,2419.07
241997,2419.97
242085,2420.85
242175,2421.75
242264,2422.64
242353,2423.53
242441,2424.41
242530,2425.3
242622,2426.22
242716,2427.16
242813,2428.13
242910,2429.1
243006,2430.06
243103,2431.03
243197,2431.97
243291,2432.91
243387,2433.87
243482,2434.82
243578,2435.78
243675,2436.75
243772,2437.72
243869,2438.69
243965,2439.65
244057,2440.57
244149,2441.49
244239,2442.39
244328,2443.28
244417,2444.17
244506,2445.06
244595,2445.95
244686,2446.86
244781,2447.81
244877,2448.77
244974,2449.74
245073,2450.73
245173,2451.73
245272,2452.72
245372,2453.72
245473,2454.73
245569,2455.69
245664,2456.64
245756,2457.56
245846,2458.46
245934,2459.34
246020,2460.2
246105,2461.05
246190,2461.9
246276,2462.76
246361,2463.61
246445,2464.45
246531,2465.31
246619,2466.19
246713,2467.13
246808,2468.08
246904,2469.04
247001,2470.01
247093,2470.93
247183,2471.83
247273,2472.73
247361,2473.61
247448,2474.48
247533,2475.33
247617,2476.17
247699,2476.99
247782,2477.82
247865,2478.65
247948,2479.48
248029,2480.29
248110,2481.1
248192,2481.92
248274,2482.74
248354,2483.54
248434,2484.34
248514,2485.14
248594,2485.94
248674,2486.74
248752,2487.52
248831,2488.31
248911,2489.11
248993,2489.93
249076,2490.76
249160,2491.6
249243,2492.43
249328,2493.28
249414,2494.14
249501,2495.01
249589,2495.89
249677,2496.77
249764,2497.64
249849,2498.49
249933,2499.33
250016,2500.16
250101,2501.01
250188,2501.88
250276,2502.76
250363,2503.63
250451,2504.51
250539,2505.39
250626,2506.26
250718,2507.18
250812,2508.12
250906,2509.06
251001,2510.01
251097,2510.97
251192,2511.92
251287,2512.87
251382,2513.82
251479,2514.79
251577,2515.77
251675,2516.75
251770,2517.7
251864,2518.64
251959,2519.59
252051,2520.51
252140,2521.4
252229,2522.29
252315,2523.15
252401,2524.01
252488,2524.88
252582,2525.82
252675,2526.75
252770,2527.7
252862,2528.62
252955,2529.55
253047,2530.47
253139,2531.39
253230,2532.3
253321,2533.21
253412,2534.12
253502,2535.02
253590,2535.9
253675,2536.75
253762,2537.62
253850,2538.5
253938,2539.38
254027,2540.27
254116,2541.16
254203,2542.03
254293,2542.93
254391,2543.91
254496,2544.96
254604,2546.04
254712,2547.12
254820,2548.2
254927,2549.27
255033,2550.33
255136,2551.36
255240,2552.4
255343,2553.43
255445,2554.45
255542,2555.42
255638,2556.38
255734,2557.34
255831,2558.31
255929,2559.29
256029,2560.29
256130,2561.3
256229,2562.29
256327,2563.27
256427,2564.27
256526,2565.26
256627,2566.27
256726,2567.26
256824,2568.24
256919,2569.19
257015,2570.15
257108,2571.08
257200,2572.0
257291,2572.91
257378,2573.78
257465,2574.65
257553,2575.53
257643,2576.43
257735,2577.35
257828,2578.28
257924,2579.24
258019,2580.19
258112,2581.12
258208,2582.08
258304,2583.04
258399,2583.99
258496,2584.96
258592,2585.92
258689,2586.89
258788,2587.88
258887,2588.87
258987,2589.87
259085,2590.85
259181,2591.81
259278,2592.78
259378,2593.78
259478,2594.78
259571,2595.71
259661,2596.61
259748,2597.48
259832,2598.32
259915,2599.15
259998,2599.98
260084,2600.84
260173,2601.73
260264,2602.64
260356,2603.56
260450,2604.5
260545,2605.45
260638,2606.38
260730,2607.3
260823,2608.23
260912,2609.12
260999,2609.99
261087,2610.87
261179,2611.79
261273,2612.73
261369,2613.69
261464,2614.64
261558,2615.58
261650,2616.5
261742,2617.42
261834,2618.34
261926,2619.26
262017,2620.17
262108,2621.08
262199,2621.99
262291,2622.91
262384,2623.84
262478,2624.78
262571,2625.71
262664,2626.64
262756,2627.56
262843,2628.43
262931,2629.31
263021,2630.21
263114,2631.14
263208,2632.08
263301,2633.01
263396,2633.96
263491,2634.91
263585,2635.85
263679,2636.79
263772,2637.72
263867,2638.67
263961,2639.61
264057,2640.57
264151,2641.51
264246,2642.46
264344,2643.44
264440,2644.4
264535,2645.35
264632,2646.32
264729,2647.29
264827,2648.27
264925,2649.25
265023,2650.23
265120,2651.2
265215,2652.15
265310,2653.1
265402,2654.02
265491,2654.91
265581,2655.81
265674,2656.74
265768,2657.68
265864,2658.64
265958,2659.58
266052,2660.52
266148,2661.48
266240,2662.4
266332,2663.32
266425,2664.25
266520,2665.2
266615,2666.15
266709,2667.09
266803,2668.03
266900,2669.0
266997,2669.97
267094,2670.94
267188,2671.88
267282,2672.82
267378,2673.78
267473,2674.73
267567,2675.67
267660,2676.6
267754,2677.54
267849,2678.49
267943,2679.43
268036,2680.36
268132,2681.32
268227,2682.27
268322,2683.22
268417,2684.17
268509,2685.09
268601,2686.01
268692,2686.92
268782,2687.82
268870,2688.7
268956,2689.56
269042,2690.42
269128,2691.28
269216,2692.16
269306,2693.06
269399,2693.99
269493,2694.93
269584,2695.84
269673,2696.73
269765,2697.65
269855,2698.55
269943,2699.43
270031,2700.31
270119,2701.19
270209,2702.09
270298,2702.98
270390,2703.9
270485,2704.85
270581,2705.81
270677,2706.77
270775,2707.75
270874,2708.74
270973,2709.73
271075,2710.75
271175,2711.75
271275,2712.75
271373,2713.73
271468,2714.68
271565,2715.65
271662,2716.62
271760,2717.6
271857,2718.57
271954,2719.54
272052,2720.52
272151,2721.51
272248,2722.48
272344,2723.44
272442,2724.42
272537,2725.37
272632,2726.32
272727,2727.27
272826,2728.26
272923,2729.23
273019,2730.19
273115,2731.15
273212,2732.12
273309,2733.09
273402,2734.02
273494,2734.94
273583,2735.83
273671,2736.71
273762,2737.62
273857,2738.57
273954,2739.54
274051,2740.51
274147,2741.47
274243,2742.43
274337,2743.37
274432,2744.32
274527,2745.27
274621,2746.21
274714,2747.14
274806,2748.06
274899,2748.99
274991,2749.91
275083,2750.83
275174,2751.74
275266,2752.66
275358,2753.58
275450,2754.5
275543,2755.43
275636,2756.36
275730,2757.3
275824,2758.24
275918,2759.18
276011,2760.11
276105,2761.05
276199,2761.99
276293,2762.93
276386,2763.86
276480,2764.8
276575,2765.75
276670,2766.7
276766,2767.66
276861,2768.61
276958,2769.58
277056,2770.56
277153,2771.53
277248,2772.48
277343,2773.43
277439,2774.39
277533,2775.33
277606,2776.06
277693,2776.93
277780,2777.8
277875,2778.75
277971,2779.71
278066,2780.66
278161,2781.61
278258,2782.58
278355,2783.55
278454,2784.54
278553,2785.53
278651,2786.51
278751,2787.51
278850,2788.5
278946,2789.46
279043,2790.43
279140,2791.4
279234,2792.34
279325,2793.25
279414,2794.14
279501,2795.01
279587,2795.87
279675,2796.75
279764,2797.64
279856,2798.56
279952,2799.52
280047,2800.47
280144,2801.44
280242,2802.42
280342,2803.42
280440,2804.4
280536,2805.36
280632,2806.32
280728,2807.28
280824,2808.24
280918,2809.18
281014,2810.14
281110,2811.1
281207,2812.07
281304,2813.04
281399,2813.99
281495,2814.95
281592,2815.92
281688,2816.88
281784,2817.84
281879,2818.79
281975,2819.75
282072,2820.72
282169,2821.69
282265,2822.65
282361,2823.61
282458,2824.58
282556,2825.56
282653,2826.53
282751,2827.51
282847,2828.47
282943,2829.43
283040,2830.4
283138,2831.38
283234,2832.34
283330,2833.3
283426,2834.26
283523,2835.23
283617,2836.17
283710,2837.1
283799,2837.99
283887,2838.87
283973,2839.73
284060,2840.6
284151,2841.51
284245,2842.45
284339,2843.39
284433,2844.33
284525,2845.25
284616,2846.16
284709,2847.09
284800,2848.0
284891,2848.91
284981,2849.81
285073,2850.73
285166,2851.66
285258,2852.58
285350,2853.5
285442,2854.42
285535,2855.35
285630,2856.3
285724,2857.24
285818,2858.18
285911,2859.11
286005,2860.05
286099,2860.99
286195,2861.95
286292,2862.92
286386,2863.86
286482,2864.82
286577,2865.77
286672,2866.72
286767,2867.67
286861,2868.61
286953,2869.53
287048,2870.48
287142,2871.42
287236,2872.36
287331,2873.31
287424,2874.24
287519,2875.19
287613,2876.13
287707,2877.07
287800,2878.0
287890,2878.9
287981,2879.81
288072,2880.72
288163,2881.63
288252,2882.52
288342,2883.42
288433,2884.33
288524,2885.24
288615,2886.15
288706,2887.06
288794,2887.94
288880,2888.8
288967,2889.67
289057,2890.57
289152,2891.52
289248,2892.48
289344,2893.44
289438,2894.38
289533,2895.33
289627,2896.27
289722,2897.22
289815,2898.15
289908,2899.08
290002,2900.02
290097,2900.97
290192,2901.92
290287,2902.87
290384,2903.84
290482,2904.82
290582,2905.82
290682,2906.82
290779,2907.79
290878,2908.78
290978,2909.78
291077,2910.77
291175,2911.75
291272,2912.72
291371,2913.71
291472,2914.72
291571,2915.71
291668,2916.68
291766,2917.66
291864,2918.64
291965,2919.65
292062,2920.62
292160,2921.6
292254,2922.54
292351,2923.51
292446,2924.46
292539,2925.39
292631,2926.31
292722,2927.22
292813,2928.13
292906,2929.06
292998,2929.98
293095,2930.95
293192,2931.92
293289,2932.89
293386,2933.86
293483,2934.83
293580,2935.8
293677,2936.77
293774,2937.74
293869,2938.69
293962,2939.62
294055,2940.55
294147,2941.47
294237,2942.37
294326,2943.26
294415,2944.15
294508,2945.08
294603,2946.03
294699,2946.99
294799,2947.99
294902,2949.02
295003,2950.03
295104,2951.04
295206,2952.06
295308,2953.08
295409,2954.09
295510,2955.1
295611,2956.11
295708,2957.08
295805,2958.05
295903,2959.03
296001,2960.01
296100,2961.0
296198,2961.98
296294,2962.94
296393,2963.93
296492,2964.92
296590,2965.9
296687,2966.87
296785,2967.85
296881,2968.81
296978,2969.78
297076,2970.76
297173,2971.73
297271,2972.71
297368,2973.68
297465,2974.65
297563,2975.63
297660,2976.6
297755,2977.55
297850,2978.5
297944,2979.44
298038,2980.38
298132,2981.32
298223,2982.23
298310,2983.1
298398,2983.98
298487,2984.87
298579,2985.79
298675,2986.75
298773,2987.73
298869,2988.69
298964,2989.64
299060,2990.6
299156,2991.56
299250,2992.5
299344,2993.44
299436,2994.36
299529,2995.29
299624,2996.24
299721,2997.21
299816,2998.16
299910,2999.1
300005,3000.05
300101,3001.01
300196,3001.96
300290,3002.9
300384,3003.84
300481,3004.81
300576,3005.76
300673,3006.73
300770,3007.7
300865,3008.65
300964,3009.64
301063,3010.63
301163,3011.63
301262,3012.62
301361,3013.61
301464,3014.64
301565,3015.65
301666,3016.66
301766,3017.66
301867,3018.67
301969,3019.69
302072,3020.72
302174,3021.74
302274,3022.74
302374,3023.74
302475,3024.75
302576,3025.76
302675,3026.75
302774,3027.74
302872,3028.72
302970,3029.7
303067,3030.67
303164,3031.64
303260,3032.6
303352,3033.52
303444,3034.44
303535,3035.35
303624,3036.24
303711,3037.11
303796,3037.96
303879,3038.79
303963,3039.63
304049,3040.49
304138,3041.38
304229,3042.29
304320,3043.2
304411,3044.11
304506,3045.06
304601,3046.01
304702,3047.02
304801,3048.01
304897,3048.97
304995,3049.95
305093,3050.93
305190,3051.9
305287,3052.87
305378,3053.78
305468,3054.68
305556,3055.56
305642,3056.42
305726,3057.26
305809,3058.09
305892,3058.92
305977,3059.77
306066,3060.66
306160,3061.6
306256,3062.56
306355,3063.55
306452,3064.52
306550,3065.5
306648,3066.48
306746,3067.46
306842,3068.42
306937,3069.37
307034,3070.34
307131,3071.31
307228,3072.28
307323,3073.23
307420,3074.2
307518,3075.18
307617,3076.17
307713,3077.13
307809,3078.09
307905,3079.05
308002,3080.02
308099,3080.99
308195,3081.95
308291,3082.91
308389,3083.89
308486,3084.86
308582,3085.82
308677,3086.77
308771,3087.71
308866,3088.66
308961,3089.61
309056,3090.56
309149,3091.49
309243,3092.43
309338,3093.38
309432,3094.32
309525,3095.25
309619,3096.19
309710,3097.1
309800,3098.0
309891,3098.91
309982,3099.82
310074,3100.74
310165,3101.65
310255,3102.55
310347,3103.47
310440,3104.4
310532,3105.32
310624,3106.24
310714,3107.14
310802,3108.02
310892,3108.92
310982,3109.82
311070,3110.7
311155,3111.55
311238,3112.38
311321,3113.21
311405,3114.05
311493,3114.93
311586,3115.86
311679,3116.79
311774,3117.74
311871,3118.71
311971,3119.71
312071,3120.71
312170,3121.7
312270,3122.7
312370,3123.7
312468,3124.68
312567,3125.67
312667,3126.67
312767,3127.67
312867,3128.67
312963,3129.63
313054,3130.54
313142,3131.42
313228,3132.28
313311,3133.11
313394,3133.94
313477,3134.77
313560,3135.6
313646,3136.46
313733,3137.33
313820,3138.2
313908,3139.08
313995,3139.95
314084,3140.84
314172,3141.72
314261,3142.61
314352,3143.52
314442,3144.42
314531,3145.31
314620,3146.2
314707,3147.07
314792,3147.92
314877,3148.77
314966,3149.66
315058,3150.58
315150,3151.5
315240,3152.4
315330,3153.3
315418,3154.18
315505,3155.05
315594,3155.94
315684,3156.84
315773,3157.73
315863,3158.63
315951,3159.51
316037,3160.37
316125,3161.25
316214,3162.14
316311,3163.11
316408,3164.08
316505,3165.05
316599,3165.99
316693,3166.93
316786,3167.86
316877,3168.77
316967,3169.67
317057,3170.57
317146,3171.46
317235,3172.35
317325,3173.25
317413,3174.13
317500,3175.0
317585,3175.85
317669,3176.69
317751,3177.51
317833,3178.33
317914,3179.14
317996,3179.96
318079,3180.79
318163,3181.63
318249,3182.49
318334,3183.34
318421,3184.21
318511,3185.11
318607,3186.07
318707,3187.07
318808,3188.08
318905,3189.05
319002,3190.02
319099,3190.99
319197,3191.97
319289,3192.89
319380,3193.8
319472,3194.72
319563,3195.63
319656,3196.56
319748,3197.48
319838,3198.38
319927,3199.27
320019,3200.19
320116,3201.16
320215,3202.15
320317,3203.17
320419,3204.19
320518,3205.18
320619,3206.19
320718,3207.18
320815,3208.15
320912,3209.12
321007,3210.07
321100,3211.0
321193,3211.93
321287,3212.87
321381,3213.81
321475,3214.75
321569,3215.69
321662,3216.62
321753,3217.53
321842,3218.42
321929,3219.29
322016,3220.16
322100,3221.0
322183,3221.83
322267,3222.67
322354,3223.54
322445,3224.45
322538,3225.38
322633,3226.33
322725,3227.25
322817,3228.17
322912,3229.12
323006,3230.06
323099,3230.99
323193,3231.93
323285,3232.85
323379,3233.79
323475,3234.75
323571,3235.71
323668,3236.68
323764,3237.64
323862,3238.62
323965,3239.65
324067,3240.67
324168,3241.68
324266,3242.66
324365,3243.65
324464,3244.64
324565,3245.65
324661,3246.61
324758,3247.58
324854,3248.54
324949,3249.49
325042,3250.42
325132,3251.32
325220,3252.2
325306,3253.06
325392,3253.92
325480,3254.8
325571,3255.71
325665,3256.65
325759,3257.59
325853,3258.53
325946,3259.46
326039,3260.39
326134,3261.34
326228,3262.28
326322,3263.22
326415,3264.15
326510,3265.1
326606,3266.06
326703,3267.03
326801,3268.01
326897,3268.97
326994,3269.94
327093,3270.93
327191,3271.91
327287,3272.87
327384,3273.84
327480,3274.8
327577,3275.77
327673,3276.73
327769,3277.69
327864,3278.64
327958,3279.58
328053,3280.53
328149,3281.49
328245,3282.45
328341,3283.41
328435,3284.35
328531,3285.31
328626,3286.26
328722,3287.22
328816,3288.16
328910,3289.1
329005,3290.05
329100,3291.0
329196,3291.96
329291,3292.91
329387,3293.87
329481,3294.81
329574,3295.74
329664,3296.64
329750,3297.5
329837,3298.37
329926,3299.26
330014,3300.14
330107,3301.07
330204,3302.04
330300,3303.0
330395,3303.95
330487,3304.87
330580,3305.8
330673,3306.73
330766,3307.66
330858,3308.58
330949,3309.49
331042,3310.42
331136,3311.36
331231,3312.31
331326,3313.26
331421,3314.21
331516,3315.16
331613,3316.13
331710,3317.1
331808,3318.08
331908,3319.08
332007,3320.07
332104,3321.04
332201,3322.01
332297,3322.97
332393,3323.93
332485,3324.85
332575,3325.75
332663,3326.63
332750,3327.5
332836,3328.36
332921,3329.21
333009,3330.09
333099,3330.99
333197,3331.97
333294,3332.94
333392,3333.92
333488,3334.88
333584,3335.84
333680,3336.8
333776,3337.76
333871,3338.71
333965,3339.65
334060,3340.6
334157,3341.57
334256,3342.56
334354,3343.54
334452,3344.52
334552,3345.52
334653,3346.53
334753,3347.53
334854,3348.54
334956,3349.56
335058,3350.58
335160,3351.6
335261,3352.61
335364,3353.64
335464,3354.64
335561,3355.61
335657,3356.57
335751,3357.51
335843,3358.43
335932,3359.32
336019,3360.19
336107,3361.07
336197,3361.97
336291,3362.91
336387,3363.87
336483,3364.83
336577,3365.77
336672,3366.72
336769,3367.69
336867,3368.67
336963,3369.63
337059,3370.59
337156,3371.56
337252,3372.52
337347,3373.47
337443,3374.43
337539,3375.39
337635,3376.35
337732,3377.32
337831,3378.31
337930,3379.3
338030,3380.3
338131,3381.31
338232,3382.32
338334,3383.34
338431,3384.31
338528,3385.28
338621,3386.21
338713,3387.13
338805,3388.05
338894,3388.94
338983,3389.83
339070,3390.7
339155,3391.55
339244,3392.44
339336,3393.36
339433,3394.33
339532,3395.32
339632,3396.32
339731,3397.31
339832,3398.32
339933,3399.33
340032,3400.32
340129,3401.29
340226,3402.26
340326,3403.26
340424,3404.24
340520,3405.2
340616,3406.16
340711,3407.11
340806,3408.06
340905,3409.05
341002,3410.02
341099,3410.99
341193,3411.93
341289,3412.89
341386,3413.86
341483,3414.83
341577,3415.77
341670,3416.7
341760,3417.6
341846,3418.46
341934,3419.34
342022,3420.22
342114,3421.14
342209,3422.09
342304,3423.04
342398,3423.98
342491,3424.91
342586,3425.86
342680,3426.8
342775,3427.75
342869,3428.69
342961,3429.61
343056,3430.56
343151,3431.51
343248,3432.48
343345,3433.45
343442,3434.42
343542,3435.42
343642,3436.42
343741,3437.41
343838,3438.38
343936,3439.36
344034,3440.34
344132,3441.32
344229,3442.29
344322,3443.22
344415,3444.15
344509,3445.09
344602,3446.02
344694,3446.94
344787,3447.87
344880,3448.8
344968,3449.68
345055,3450.55
345140,3451.4
345224,3452.24
345306,3453.06
345388,3453.88
345473,3454.73
345562,3455.62
345656,3456.56
345752,3457.52
345849,3458.49
345944,3459.44
346044,3460.44
346144,3461.44
346242,3462.42
346338,3463.38
346435,3464.35
346530,3465.3
346626,3466.26
346720,3467.2
346815,3468.15
346912,3469.12
347009,3470.09
347107,3471.07
347205,3472.05
347302,3473.02
347401,3474.01
347502,3475.02
347602,3476.02
347702,3477.02
347800,3478.0
347897,3478.97
347994,3479.94
348091,3480.91
348187,3481.87
348282,3482.82
348376,3483.76
348472,3484.72
348568,3485.68
348663,3486.63
348757,3487.57
348852,3488.52
348946,3489.46
349038,3490.38
349130,3491.3
349221,3492.21
349313,3493.13
349403,3494.03
349493,3494.93
349583,3495.83
349673,3496.73
349763,3497.63
349852,3498.52
349941,3499.41
350029,3500.29
350118,3501.18
350206,3502.06
350294,3502.94
350383,3503.83
350474,3504.74
350565,3505.65
350658,3506.58
350751,3507.51
350845,3508.45
350936,3509.36
351027,3510.27
351116,3511.16
351203,3512.03
351289,3512.89
351377,3513.77
351468,3514.68
351563,3515.63
351660,3516.6
351757,3517.57
351852,3518.52
351949,3519.49
352047,3520.47
352145,3521.45
352240,3522.4
352338,3523.38
352436,3524.36
352533,3525.33
352632,3526.32
352729,3527.29
352827,3528.27
352922,3529.22
353015,3530.15
353106,3531.06
353199,3531.99
353292,3532.92
353385,3533.85
353479,3534.79
353576,3535.76
353675,3536.75
353775,3537.75
353872,3538.72
353969,3539.69
354063,3540.63
354159,3541.59
354255,3542.55
354349,3543.49
354441,3544.41
354533,3545.33
354625,3546.25
354718,3547.18
354810,3548.1
354901,3549.01
354992,3549.92
355084,3550.84
355177,3551.77
355270,3552.7
355362,3553.62
355455,3554.55
355547,3555.47
355640,3556.4
355731,3557.31
355822,3558.22
355913,3559.13
356007,3560.07
356101,3561.01
356196,3561.96
356289,3562.89
356383,3563.83
356478,3564.78
356572,3565.72
356667,3566.67
356760,3567.6
356854,3568.54
356947,3569.47
357039,3570.39
357128,3571.28
357219,3572.19
357310,3573.1
357401,3574.01
357492,3574.92
357583,3575.83
357673,3576.73
357764,3577.64
357853,3578.53
357943,3579.43
358032,3580.32
358123,3581.23
358214,3582.14
358307,3583.07
358399,3583.99
358492,3584.92
358585,3585.85
358677,3586.77
358769,3587.69
358861,3588.61
358954,3589.54
359048,3590.48
359143,3591.43
359237,3592.37
359331,3593.31
359426,3594.26
359519,3595.19
359613,3596.13
359708,3597.08
359805,3598.05
359901,3599.01
359997,3599.97
360090,3600.9
360184,3601.84
360277,3602.77
360370,3603.7
360461,3604.61
360551,3605.51
360640,3606.4
360730,3607.3
360820,3608.2
360911,3609.11
361000,3610.0
361092,3610.92
361184,3611.84
361277,3612.77
361369,3613.69
361462,3614.62
361557,3615.57
361655,3616.55
361753,3617.53
361850,3618.5
361946,3619.46
362042,3620.42
362139,3621.39
362237,3622.37
362335,3623.35
362431,3624.31
362526,3625.26
362621,3626.21
362717,3627.17
362809,3628.09
362902,3629.02
362996,3629.96
363088,3630.88
363179,3631.79
363271,3632.71
363362,3633.62
363455,3634.55
363547,3635.47
363641,3636.41
363733,3637.33
363824,3638.24
363918,3639.18
364012,3640.12
364105,3641.05
364194,3641.94
364284,3642.84
364374,3643.74
364465,3644.65
364556,3645.56
364644,3646.44
364731,3647.31
364820,3648.2
364909,3649.09
364999,3649.99
365090,3650.9
365183,3651.83
365278,3652.78
365371,3653.71
365464,3654.64
365560,3655.6
365654,3656.54
365748,3657.48
365841,3658.41
365936,3659.36
366034,3660.34
366130,3661.3
366225,3662.25
366322,3663.22
366417,3664.17
366509,3665.09
366600,3666.0
366691,3666.91
366780,3667.8
366869,3668.69
366957,3669.57
367044,3670.44
367131,3671.31
367218,3672.18
367307,3673.07
367397,3673.97
367486,3674.86
367577,3675.77
367666,3676.66
367755,3677.55
367845,3678.45
367932,3679.32
368019,3680.19
368104,3681.04
368191,3681.91
368279,3682.79
368367,3683.67
368457,3684.57
368550,3685.5
368644,3686.44
368740,3687.4
368834,3688.34
368929,3689.29
369027,3690.27
369124,3691.24
369221,3692.21
369316,3693.16
369413,3694.13
369511,3695.11
369605,3696.05
369700,3697.0
369797,3697.97
369895,3698.95
369993,3699.93
370094,3700.94
370197,3701.97
370298,3702.98
370399,3703.99
370500,3705.0
370598,3705.98
370697,3706.97
370796,3707.96
370893,3708.93
370988,3709.88
371083,3710.83
371178,3711.78
371271,3712.71
371366,3713.66
371458,3714.58
371548,3715.48
371640,3716.4
371730,3717.3
371817,3718.17
371903,3719.03
371989,3719.89
372076,3720.76
372164,3721.64
372253,3722.53
372341,3723.41
372430,3724.3
372521,3725.21
372612,3726.12
372705,3727.05
372797,3727.97
372889,3728.89
372983,3729.83
373079,3730.79
373175,3731.75
373270,3732.7
373364,3733.64
373461,3734.61
373558,3735.58
373654,3736.54
373746,3737.46
373838,3738.38
373929,3739.29
374021,3740.21
374111,3741.11
374202,3742.02
374295,3742.95
374390,3743.9
374485,3744.85
374580,3745.8
374674,3746.74
374769,3747.69
374869,3748.69
374967,3749.67
375065,3750.65
375162,3751.62
375257,3752.57
375353,3753.53
375448,3754.48
375542,3755.42
375635,3756.35
375730,3757.3
375825,3758.25
375920,3759.2
376014,3760.14
376106,3761.06
376199,3761.99
376293,3762.93
376387,3763.87
376479,3764.79
376571,3765.71
376662,3766.62
376753,3767.53
376844,3768.44
376933,3769.33
377020,3770.2
377109,3771.09
377199,3771.99
377288,3772.88
377377,3773.77
377468,3774.68
377557,3775.57
377648,3776.48
377739,3777.39
377830,3778.3
377919,3779.19
378008,3780.08
378099,3780.99
378191,3781.91
378283,3782.83
378375,3783.75
378469,3784.69
378565,3785.65
378660,3786.6
378755,3787.55
378850,3788.5
378946,3789.46
379042,3790.42
379138,3791.38
379232,3792.32
379329,3793.29
379426,3794.26
379523,3795.23
379617,3796.17
379710,3797.1
379804,3798.04
379898,3798.98
379993,3799.93
380086,3800.86
380180,3801.8
380275,3802.75
380370,3803.7
380464,3804.64
380557,3805.57
380650,3806.5
380746,3807.46
380841,3808.41
380935,3809.35
381029,3810.29
381124,3811.24
381219,3812.19
381316,3813.16
381412,3814.12
381509,3815.09
381603,3816.03
381696,3816.96
381791,3817.91
381886,3818.86
381981,3819.81
382074,3820.74
382166,3821.66
382262,3822.62
382356,3823.56
382451,3824.51
382544,3825.44
382636,3826.36
382727,3827.27
382820,3828.2
382915,3829.15
383008,3830.08
383101,3831.01
383195,3831.95
383290,3832.9
383385,3833.85
383478,3834.78
383571,3835.71
383667,3836.67
383764,3837.64
383859,3838.59
383954,3839.54
384049,3840.49
384143,3841.43
384236,3842.36
384328,3843.28
384419,3844.19
384511,3845.11
384603,3846.03
384696,3846.96
384787,3847.87
384878,3848.78
384971,3849.71
385066,3850.66
385160,3851.6
385255,3852.55
385353,3853.53
385453,3854.53
385552,3855.52
385649,3856.49
385745,3857.45
385842,3858.42
385939,3859.39
386037,3860.37
386133,3861.33
386230,3862.3
386325,3863.25
386421,3864.21
386516,3865.16
386609,3866.09
386701,3867.01
386793,3867.93
386884,3868.84
386975,3869.75
387064,3870.64
387156,3871.56
387248,3872.48
387340,3873.4
387432,3874.32
387524,3875.24
387617,3876.17
387711,3877.11
387803,3878.03
387896,3878.96
387988,3879.88
388079,3880.79
388172,3881.72
388266,3882.66
388358,3883.58
388452,3884.52
388547,3885.47
388641,3886.41
388735,3887.35
388830,3888.3
388926,3889.26
389023,3890.23
389116,3891.16
389207,3892.07
389299,3892.99
389390,3893.9
389482,3894.82
389576,3895.76
389670,3896.7
389764,3897.64
389863,3898.63
389964,3899.64
390065,3900.65
390164,3901.64
390266,3902.66
390367,3903.67
390466,3904.66
390563,3905.63
390660,3906.6
390756,3907.56
390852,3908.52
390948,3909.48
391042,3910.42
391136,3911.36
391231,3912.31
391326,3913.26
391419,3914.19
391513,3915.13
391608,3916.08
391703,3917.03
391799,3917.99
391894,3918.94
391988,3919.88
392084,3920.84
392180,3921.8
392278,3922.78
392374,3923.74
392470,3924.7
392566,3925.66
392661,3926.61
392757,3927.57
392854,3928.54
392951,3929.51
393050,3930.5
393151,3931.51
393249,3932.49
393346,3933.46
393441,3934.41
393535,3935.35
393626,3936.26
393715,3937.15
393804,3938.04
393893,3938.93
393984,3939.84
394074,3940.74
394164,3941.64
394255,3942.55
394346,3943.46
394436,3944.36
394526,3945.26
394616,3946.16
394705,3947.05
394795,3947.95
394886,3948.86
394975,3949.75
395066,3950.66
395157,3951.57
395247,3952.47
395336,3953.36
395424,3954.24
395513,3955.13
395605,3956.05
395695,3956.95
395785,3957.85
395875,3958.75
395967,3959.67
396060,3960.6
396152,3961.52
396243,3962.43
396334,3963.34
396423,3964.23
396513,3965.13
396606,3966.06
396701,3967.01
396795,3967.95
396889,3968.89
396981,3969.81
397075,3970.75
397170,3971.7
397264,3972.64
397358,3973.58
397450,3974.5
397543,3975.43
397637,3976.37
397731,3977.31
397825,3978.25
397917,3979.17
398012,3980.12
398108,3981.08
398204,3982.04
398299,3982.99
398394,3983.94
398491,3984.91
398585,3985.85
398676,3986.76
398767,3987.67
398859,3988.59
398952,3989.52
399047,3990.47
399143,3991.43
399243,3992.43
399347,3993.47
399451,3994.51
399555,3995.55
399659,3996.59
399762,3997.62
399868,3998.68
399975,3999.75
400079,4000.79
400182,4001.82
400285,4002.85
400387,4003.87
400488,4004.88
400587,4005.87
400685,4006.85
400781,4007.81
400878,4008.78
400975,4009.75
401071,4010.71
401166,4011.66
401259,4012.59
401354,4013.54
401450,4014.5
401548,4015.48
401643,4016.43
401738,4017.38
401835,4018.35
401933,4019.33
402030,4020.3
402127,4021.27
402224,4022.24
402322,4023.22
402418,4024.18
402513,4025.13
402607,4026.07
402702,4027.02
402797,4027.97
402895,4028.95
402991,4029.91
403085,4030.85
403179,4031.79
403274,4032.74
403369,4033.69
403463,4034.63
403558,4035.58
403652,4036.52
403746,4037.46
403841,4038.41
403938,4039.38
404033,4040.33
404129,4041.29
404227,4042.27
404326,4043.26
404424,4044.24
404523,4045.23
404624,4046.24
404726,4047.26
404825,4048.25
404924,4049.24
405019,4050.19
405114,4051.14
405209,4052.09
405304,4053.04
405398,4053.98
405493,4054.93
405586,4055.86
405680,4056.8
405773,4057.73
405866,4058.66
405959,4059.59
406053,4060.53
406146,4061.46
406238,4062.38
406330,4063.3
406421,4064.21
406512,4065.12
406604,4066.04
406694,4066.94
406785,4067.85
406875,4068.75
406967,4069.67
407057,4070.57
407148,4071.48
407242,4072.42
407339,4073.39
407438,4074.38
407536,4075.36
407633,4076.33
407730,4077.3
407828,4078.28
407925,4079.25
408019,4080.19
408112,4081.12
408204,4082.04
408296,4082.96
408389,4083.89
408482,4084.82
408576,4085.76
408670,4086.7
408766,4087.66
408864,4088.64
408960,4089.6
409058,4090.58
409154,4091.54
409254,4092.54
409354,4093.54
409453,4094.53
409551,4095.51
409649,4096.49
409747,4097.47
409844,4098.44
409939,4099.39
410035,4100.35
410131,4101.31
410228,4102.28
410322,4103.22
410417,4104.17
410511,4105.11
410607,4106.07
410701,4107.01
410794,4107.94
410887,4108.87
410981,4109.81
411075,4110.75
411169,4111.69
411262,4112.62
411357,4113.57
411453,4114.53
411548,4115.48
411643,4116.43
411739,4117.39
411834,4118.34
411930,4119.3
412024,4120.24
412119,4121.19
412213,4122.13
412307,4123.07
412403,4124.03
412496,4124.96
412589,4125.89
412682,4126.82
412775,4127.75
412867,4128.67
412960,4129.6
413055,4130.55
413150,4131.5
413246,4132.46
413340,4133.4
413435,4134.35
413531,4135.31
413628,4136.28
413724,4137.24
413819,4138.19
413914,4139.14
414010,4140.1
414106,4141.06
414201,4142.01
414295,4142.95
414388,4143.88
414481,4144.81
414574,4145.74
414666,4146.66
414757,4147.57
414849,4148.49
414943,4149.43
415034,4150.34
415122,4151.22
415210,4152.1
415300,4153.0
415388,4153.88
415473,4154.73
415556,4155.56
415638,4156.38
415720,4157.2
415802,4158.02
415887,4158.87
415974,4159.74
416065,4160.65
416162,4161.62
416260,4162.6
416359,4163.59
416457,4164.57
416556,4165.56
416658,4166.58
416758,4167.58
416858,4168.58
416957,4169.57
417055,4170.55
417152,4171.52
417246,4172.46
417338,4173.38
417429,4174.29
417519,4175.19
417610,4176.1
417700,4177.0
417790,4177.9
417879,4178.79
417970,4179.7
418062,4180.62
418155,4181.55
418246,4182.46
418337,4183.37
418428,4184.28
418520,4185.2
418613,4186.13
418707,4187.07
418801,4188.01
418894,4188.94
418986,4189.86
419080,4190.8
419173,4191.73
419266,4192.66
419359,4193.59
419453,4194.53
419546,4195.46
419639,4196.39
419733,4197.33
419828,4198.28
419924,4199.24
420017,4200.17
420113,4201.13
420208,4202.08
420307,4203.07
420402,4204.02
420497,4204.97
420591,4205.91
420679,4206.79
420765,4207.65
420849,4208.49
420931,4209.31
421013,4210.13
421099,4210.99
421187,4211.87
421281,4212.81
421378,4213.78
421477,4214.77
421576,4215.76
421675,4216.75
421774,4217.74
421875,4218.75
421978,4219.78
422079,4220.79
422180,4221.8
422280,4222.8
422381,4223.81
422482,4224.82
422582,4225.82
422679,4226.79
422776,4227.76
422873,4228.73
422969,4229.69
423063,4230.63
423158,4231.58
423254,4232.54
423349,4233.49
423443,4234.43
423537,4235.37
423634,4236.34
423730,4237.3
423827,4238.27
423923,4239.23
424018,4240.18
424114,4241.14
424210,4242.1
424306,4243.06
424403,4244.03
424493,4244.93
424581,4245.81
424670,4246.7
424759,4247.59
424850,4248.5
424942,4249.42
425035,4250.35
425130,4251.3
425226,4252.26
425324,4253.24
425422,4254.22
425518,4255.18
425610,4256.1
425703,4257.03
425797,4257.97
425889,4258.89
425979,4259.79
426069,4260.69
426160,4261.6
426252,4262.52
426343,4263.43
426434,4264.34
426524,4265.24
426614,4266.14
426704,4267.04
426794,4267.94
426884,4268.84
426975,4269.75
427070,4270.7
427166,4271.66
427260,4272.6
427354,4273.54
427447,4274.47
427539,4275.39
427629,4276.29
427718,4277.18
427808,4278.08
427898,4278.98
427986,4279.86
428076,4280.76
428164,4281.64
428255,4282.55
428348,4283.48
428442,4284.42
428535,4285.35
428626,4286.26
428718,4287.18
428810,4288.1
428902,4289.02
428993,4289.93
429084,4290.84
429176,4291.76
429269,4292.69
429361,4293.61
429454,4294.54
429547,4295.47
429642,4296.42
429736,4297.36
429831,4298.31
429925,4299.25
430019,4300.19
430115,4301.15
430211,4302.11
430306,4303.06
430400,4304.0
430495,4304.95
430591,4305.91
430686,4306.86
430783,4307.83
430878,4308.78
430973,4309.73
431067,4310.67
431161,4311.61
431255,4312.55
431347,4313.47
431438,4314.38
431531,4315.31
431623,4316.23
431716,4317.16
431807,4318.07
431899,4318.99
431992,4319.92
432087,4320.87
432180,4321.8
432274,4322.74
432369,4323.69
432466,4324.66
432561,4325.61
432654,4326.54
432747,4327.47
432841,4328.41
432933,4329.33
433022,4330.22
433112,4331.12
433201,4332.01
433291,4332.91
433380,4333.8
433470,4334.7
433563,4335.63
433657,4336.57
433749,4337.49
433841,4338.41
433935,4339.35
434028,4340.28
434121,4341.21
434213,4342.13
434304,4343.04
434396,4343.96
434488,4344.88
434581,4345.81
434674,4346.74
434766,4347.66
434856,4348.56
434947,4349.47
435038,4350.38
435129,4351.29
435219,4352.19
435314,4353.14
435408,4354.08
435503,4355.03
435598,4355.98
435691,4356.91
435786,4357.86
435881,4358.81
435975,4359.75
436068,4360.68
436163,4361.63
436257,4362.57
436351,4363.51
436444,4364.44
436535,4365.35
436628,4366.28
436721,4367.21
436814,4368.14
436905,4369.05
436998,4369.98
437091,4370.91
437184,4371.84
437275,4372.75
437365,4373.65
437458,4374.58
437552,4375.52
437644,4376.44
437734,4377.34
437825,4378.25
437915,4379.15
438006,4380.06
438096,4380.96
438186,4381.86
438275,4382.75
438366,4383.66
438457,4384.57
438549,4385.49
438639,4386.39
438731,4387.31
438824,4388.24
438917,4389.17
439010,4390.1
439101,4391.01
439195,4391.95
439288,4392.88
439382,4393.82
439475,4394.75
439569,4395.69
439663,4396.63
439757,4397.57
439850,4398.5
439942,4399.42
440035,4400.35
440127,4401.27
440221,4402.21
440314,4403.14
440406,4404.06
440500,4405.0
440592,4405.92
440683,4406.83
440773,4407.73
440864,4408.64
440955,4409.55
441045,4410.45
441135,4411.35
441225,4412.25
441315,4413.15
441405,4414.05
441497,4414.97
441588,4415.88
441678,4416.78
441771,4417.71
441863,4418.63
441954,4419.54
442045,4420.45
442136,4421.36
442229,4422.29
442322,4423.22
442415,4424.15
442506,4425.06
442599,4425.99
442693,4426.93
442785,4427.85
442876,4428.76
442967,4429.67
443059,4430.59
443153,4431.53
443246,4432.46
443338,4433.38
443431,4434.31
443526,4435.26
443619,4436.19
443712,4437.12
443805,4438.05
443899,4438.99
443993,4439.93
444086,4440.86
444178,4441.78
444272,4442.72
444366,4443.66
444459,4444.59
444553,4445.53
444648,4446.48
444744,4447.44
444842,4448.42
444939,4449.39
445039,4450.39
445139,4451.39
445238,4452.38
445335,4453.35
445430,4454.3
445527,4455.27
445624,4456.24
445720,4457.2
445816,4458.16
445912,4459.12
446007,4460.07
446102,4461.02
446195,4461.95
446289,4462.89
446381,4463.81
446473,4464.73
446564,4465.64
446655,4466.55
446747,4467.47
446839,4468.39
446931,4469.31
447024,4470.24
447115,4471.15
447207,4472.07
447300,4473.0
447391,4473.91
447483,4474.83
447574,4475.74
447666,4476.66
447758,4477.58
447848,4478.48
447939,4479.39
448030,4480.3
448121,4481.21
448213,4482.13
448304,4483.04
448396,4483.96
448487,4484.87
448578,4485.78
448670,4486.7
448761,4487.61
448853,4488.53
448944,4489.44
449035,4490.35
449127,4491.27
449219,4492.19
449312,4493.12
449405,4494.05
449498,4494.98
449590,4495.9
449683,4496.83
449776,4497.76
449869,4498.69
449963,4499.63
450056,4500.56
450149,4501.49
450243,4502.43
450338,4503.38
450432,4504.32
450526,4505.26
450622,4506.22
450717,4507.17
450810,4508.1
450904,4509.04
451002,4510.02
451094,4510.94
451186,4511.86
451279,4512.79
451370,4513.7
451464,4514.64
451557,4515.57
451652,4516.52
451747,4517.47
451842,4518.42
451939,4519.39
452035,4520.35
452132,4521.32
452226,4522.26
452321,4523.21
452416,4524.16
452512,4525.12
452608,4526.08
452702,4527.02
452796,4527.96
452889,4528.89
452982,4529.82
453075,4530.75
453168,4531.68
453260,4532.6
453353,4533.53
453445,4534.45
453536,4535.36
453627,4536.27
453720,4537.2
453811,4538.11
453904,4539.04
453998,4539.98
454091,4540.91
454183,4541.83
454279,4542.79
454376,4543.76
454471,4544.71
454567,4545.67
454663,4546.63
454761,4547.61
454860,4548.6
454957,4549.57
455053,4550.53
455149,4551.49
455246,4552.46
455340,4553.4
455434,4554.34
455529,4555.29
455623,4556.23
455716,4557.16
455809,4558.09
455900,4559.0
455992,4559.92
456083,4560.83
456173,4561.73
456265,4562.65
456357,4563.57
456451,4564.51
456542,4565.42
456633,4566.33
456726,4567.26
456819,4568.19
456911,4569.11
457001,4570.01
457092,4570.92
457185,4571.85
457279,4572.79
457374,4573.74
457468,4574.68
457563,4575.63
457658,4576.58
457755,4577.55
457851,4578.51
457948,4579.48
458046,4580.46
458144,4581.44
458240,4582.4
458337,4583.37
458435,4584.35
458533,4585.33
458628,4586.28
458724,4587.24
458819,4588.19
458914,4589.14
459009,4590.09
459101,4591.01
459194,4591.94
459288,4592.88
459380,4593.8
459472,4594.72
459562,4595.62
459654,4596.54
459746,4597.46
459839,4598.39
459932,4599.32
460026,4600.26
460121,4601.21
460215,4602.15
460310,4603.1
460406,4604.06
460501,4605.01
460596,4605.96
460689,4606.89
460785,4607.85
460879,4608.79
460975,4609.75
461070,4610.7
461164,4611.64
461258,4612.58
461351,4613.51
461443,4614.43
461535,4615.35
461627,4616.27
461721,4617.21
461817,4618.17
461914,4619.14
462009,4620.09
462109,4621.09
462207,4622.07
462302,4623.02
462393,4623.93
462484,4624.84
462575,4625.75
462666,4626.66
462753,4627.53
462841,4628.41
462926,4629.26
463011,4630.11
463094,4630.94
463177,4631.77
463257,4632.57
463337,4633.37
463417,4634.17
463496,4634.96
463574,4635.74
463650,4636.5
463726,4637.26
463802,4638.02
463877,4638.77
463952,4639.52
464028,4640.28
464105,4641.05
464185,4641.85
464266,4642.66
464349,4643.49
464431,4644.31
464513,4645.13
464594,4645.94
464675,4646.75
464754,4647.54
464832,4648.32
464910,4649.1
464988,4649.88
465066,4650.66
465146,4651.46
465230,4652.3
465316,4653.16
465403,4654.03
465492,4654.92
465580,4655.8
465664,4656.64
465749,4657.49
465834,4658.34
465919,4659.19
466004,4660.04
466091,4660.91
466182,4661.82
466268,4662.68
466355,4663.55
466444,4664.44
466534,4665.34
466626,4666.26
466715,4667.15
466804,4668.04
466896,4668.96
466988,4669.88
467081,4670.81
467173,4671.73
467265,4672.65
467355,4673.55
467439,4674.39
467521,4675.21
467602,4676.02
467684,4676.84
467765,4677.65
467848,4678.48
467932,4679.32
468016,4680.16
468099,4680.99
468184,4681.84
468271,4682.71
468360,4683.6
468449,4684.49
468541,4685.41
468636,4686.36
468730,4687.3
468823,4688.23
468917,4689.17
469012,4690.12
469106,4691.06
469199,4691.99
469289,4692.89
469379,4693.79
469467,4694.67
469550,4695.5
469631,4696.31
469709,4697.09
469784,4697.84
469859,4698.59
469932,4699.32
470005,4700.05
470079,4700.79
470156,4701.56
470237,4702.37
470320,4703.2
470406,4704.06
470493,4704.93
470584,4705.84
470677,4706.77
470770,4707.7
470863,4708.63
470955,4709.55
471049,4710.49
471144,4711.44
471241,4712.41
471339,4713.39
471438,4714.38
471536,4715.36
471632,4716.32
471721,4717.21
471809,4718.09
471898,4718.98
471988,4719.88
472079,4720.79
472168,4721.68
472261,4722.61
472359,4723.59
472457,4724.57
472553,4725.53
472645,4726.45
472739,4727.39
472831,4728.31
472922,4729.22
473011,4730.11
473099,4730.99
473185,4731.85
473273,4732.73
473358,4733.58
473442,4734.42
473522,4735.22
473601,4736.01
473678,4736.78
473754,4737.54
473829,4738.29
473902,4739.02
473974,4739.74
474047,4740.47
474122,4741.22
474199,4741.99
474279,4742.79
474364,4743.64
474452,4744.52
474541,4745.41
474635,4746.35
474727,4747.27
474821,4748.21
474916,4749.16
475012,4750.12
475109,4751.09
475204,4752.04
475301,4753.01
475398,4753.98
475493,4754.93
475590,4755.9
475684,4756.84
475778,4757.78
475870,4758.7
475960,4759.6
476051,4760.51
476140,4761.4
476230,4762.3
476317,4763.17
476402,4764.02
476487,4764.87
476573,4765.73
476659,4766.59
476744,4767.44
476827,4768.27
476907,4769.07
476985,4769.85
477063,4770.63
477140,4771.4
477216,4772.16
477291,4772.91
477364,4773.64
477438,4774.38
477511,4775.11
477584,4775.84
477659,4776.59
477738,4777.38
477824,4778.24
477916,4779.16
478012,4780.12
478107,4781.07
478207,4782.07
478311,4783.11
478414,4784.14
478516,4785.16
478621,4786.21
478723,4787.23
478819,4788.19
478912,4789.12
479002,4790.02
479089,4790.89
479173,4791.73
479254,4792.54
479334,4793.34
479415,4794.15
479498,4794.98
479584,4795.84
479676,4796.76
479769,4797.69
479865,4798.65
479961,4799.61
480056,4800.56
480152,4801.52
480247,4802.47
480341,4803.41
480435,4804.35
480529,4805.29
480622,4806.22
480714,4807.14
480804,4808.04
480892,4808.92
480978,4809.78
481065,4810.65
481150,4811.5
481234,4812.34
481317,4813.17
481399,4813.99
481478,4814.78
481556,4815.56
481632,4816.32
481706,4817.06
481780,4817.8
481853,4818.53
481926,4819.26
481999,4819.99
482073,4820.73
482149,4821.49
482226,4822.26
482305,4823.05
482390,4823.9
482482,4824.82
482579,4825.79
482674,4826.74
482773,4827.73
482873,4828.73
482973,4829.73
483073,4830.73
483170,4831.7
483266,4832.66
483362,4833.62
483458,4834.58
483551,4835.51
483644,4836.44
483734,4837.34
483822,4838.22
483911,4839.11
483997,4839.97
484082,4840.82
484168,4841.68
484251,4842.51
484334,4843.34
484416,4844.16
484498,4844.98
484578,4845.78
484657,4846.57
484736,4847.36
484813,4848.13
484890,4848.9
484965,4849.65
485041,4850.41
485117,4851.17
485194,4851.94
485278,4852.78
485368,4853.68
485456,4854.56
485544,4855.44
485632,4856.32
485722,4857.22
485814,4858.14
485896,4858.96
485979,4859.79
486073,4860.73
486167,4861.67
486253,4862.53
486341,4863.41
486434,4864.34
486528,4865.28
486620,4866.2
486712,4867.12
486805,4868.05
486896,4868.96
486987,4869.87
487078,4870.78
487169,4871.69
487257,4872.57
487343,4873.43
487429,4874.29
487514,4875.14
487600,4876.0
487685,4876.85
487767,4877.67
487848,4878.48
487929,4879.29
488006,4880.06
488083,4880.83
488159,4881.59
488235,4882.35
488312,4883.12
488388,4883.88
488467,4884.67
488547,4885.47
488630,4886.3
488714,4887.14
488800,4888.0
488888,4888.88
488979,4889.79
489075,4890.75
489170,4891.7
489267,4892.67
489363,4893.63
489454,4894.54
489545,4895.45
489637,4896.37
489730,4897.3
489823,4898.23
489912,4899.12
489999,4899.99
490084,4900.84
490171,4901.71
490255,4902.55
490340,4903.4
490423,4904.23
490505,4905.05
490590,4905.9
490674,4906.74
490753,4907.53
490832,4908.32
490910,4909.1
490986,4909.86
491062,4910.62
491138,4911.38
491212,4912.12
491286,4912.86
491360,4913.6
491435,4914.35
491514,4915.14
491598,4915.98
491687,4916.87
491778,4917.78
491870,4918.7
491962,4919.62
492053,4920.53
492149,4921.49
492249,4922.49
492350,4923.5
492450,4924.5
492550,4925.5
492649,4926.49
492748,4927.48
492847,4928.47
492942,4929.42
493037,4930.37
493130,4931.3
493225,4932.25
493320,4933.2
493413,4934.13
493506,4935.06
493597,4935.97
493686,4936.86
493772,4937.72
493857,4938.57
493940,4939.4
494022,4940.22
494103,4941.03
494185,4941.85
494266,4942.66
494347,4943.47
494428,4944.28
494508,4945.08
494586,4945.86
494665,4946.65
494742,4947.42
494819,4948.19
494895,4948.95
494971,4949.71
495048,4950.48
495128,4951.28
495211,4952.11
495294,4952.94
495375,4953.75
495458,4954.58
495542,4955.42
495628,4956.28
495717,4957.17
495805,4958.05
495894,4958.94
495985,4959.85
496079,4960.79
496174,4961.74
496267,4962.67
496360,4963.6
496455,4964.55
496551,4965.51
496646,4966.46
496738,4967.38
496830,4968.3
496921,4969.21
497011,4970.11
497097,4970.97
497183,4971.83
497268,4972.68
497352,4973.52
497437,4974.37
497521,4975.21
497604,4976.04
497688,4976.88
497773,4977.73
497860,4978.6
497949,4979.49
498035,4980.35
498121,4981.21
498206,4982.06
498287,4982.87
498366,4983.66
498442,4984.42
498516,4985.16
498588,4985.88
498659,4986.59
498730,4987.3
498800,4988.0
498873,4988.73
498948,4989.48
499025,4990.25
499109,4991.09
499209,4992.09
499308,4993.08
499411,4994.11
499510,4995.1
499610,4996.1
499711,4997.11
499810,4998.1
499906,4999.06
500000,5000.0
500093,5000.93
500186,5001.86
500280,5002.8
500373,5003.73
500466,5004.66
500557,5005.57
500646,5006.46
500734,5007.34
500823,5008.23
500911,5009.11
500999,5009.99
501088,5010.88
501176,5011.76
501264,5012.64
501353,5013.53
501444,5014.44
501534,5015.34
501622,5016.22
501709,5017.09
501797,5017.97
501886,5018.86
501970,5019.7
502050,5020.5
502129,5021.29
502207,5022.07
502284,5022.84
502360,5023.6
502437,5024.37
502516,5025.16
502599,5025.99
502688,5026.88
502778,5027.78
502869,5028.69
502957,5029.57
503045,5030.45
503139,5031.39
503237,5032.37
503335,5033.35
503433,5034.33
503533,5035.33
503634,5036.34
503734,5037.34
503834,5038.34
503935,5039.35
504038,5040.38
504140,5041.4
504241,5042.41
504341,5043.41
504439,5044.39
504534,5045.34
504627,5046.27
504716,5047.16
504805,5048.05
504896,5048.96
504986,5049.86
505073,5050.73
505159,5051.59
505245,5052.45
505332,5053.32
505419,5054.19
505507,5055.07
505592,5055.92
505678,5056.78
505762,5057.62
505846,5058.46
505929,5059.29
506013,5060.13
506096,5060.96
506174,5061.74
506252,5062.52
506329,5063.29
506404,5064.04
506479,5064.79
506554,5065.54
506631,5066.31
506709,5067.09
506790,5067.9
506873,5068.73
506955,5069.55
507042,5070.42
507134,5071.34
507230,5072.3
507327,5073.27
507422,5074.22
507519,5075.19
507620,5076.2
507721,5077.21
507824,5078.24
507927,5079.27
508030,5080.3
508128,5081.28
508224,5082.24
508319,5083.19
508415,5084.15
508511,5085.11
508606,5086.06
508698,5086.98
508788,5087.88
508876,5088.76
508962,5089.62
509047,5090.47
509130,5091.3
509214,5092.14
509298,5092.98
509383,5093.83
509468,5094.68
509551,5095.51
509634,5096.34
509717,5097.17
509795,5097.95
509873,5098.73
509948,5099.48
510021,5100.21
510093,5100.93
510165,5101.65
510236,5102.36
510308,5103.08
510381,5103.81
510459,5104.59
510548,5105.48
510642,5106.42
510736,5107.36
510826,5108.26
510917,5109.17
511009,5110.09
511104,5111.04
511202,5112.02
511300,5113.0
511398,5113.98
511496,5114.96
511596,5115.96
511697,5116.97
511797,5117.97
511896,5118.96
511992,5119.92
512087,5120.87
512182,5121.82
512276,5122.76
512369,5123.69
512458,5124.58
512544,5125.44
512631,5126.31
512717,5127.17
512802,5128.02
512887,5128.87
512972,5129.72
513057,5130.57
513146,5131.46
513236,5132.36
513319,5133.19
513400,5134.0
513480,5134.8
513559,5135.59
513636,5136.36
513712,5137.12
513790,5137.9
513870,5138.7
513952,5139.52
514035,5140.35
514121,5141.21
514206,5142.06
514296,5142.96
514385,5143.85
514473,5144.73
514561,5145.61
514651,5146.51
514742,5147.42
514836,5148.36
514932,5149.32
515029,5150.29
515126,5151.26
515224,5152.24
515319,5153.19
515413,5154.13
515507,5155.07
515599,5155.99
515690,5156.9
515780,5157.8
515868,5158.68
515954,5159.54
516041,5160.41
516128,5161.28
516213,5162.13
516296,5162.96
516379,5163.79
516461,5164.61
516544,5165.44
516628,5166.28
516712,5167.12
516795,5167.95
516878,5168.78
516962,5169.62
517045,5170.45
517129,5171.29
517210,5172.1
517291,5172.91
517369,5173.69
517446,5174.46
517522,5175.22
517596,5175.96
517669,5176.69
517743,5177.43
517818,5178.18
517895,5178.95
517975,5179.75
518057,5180.57
518139,5181.39
518227,5182.27
518320,5183.2
518412,5184.12
518504,5185.04
518596,5185.96
518692,5186.92
518793,5187.93
518894,5188.94
518995,5189.95
519094,5190.94
519189,5191.89
519284,5192.84
519379,5193.79
519473,5194.73
519566,5195.66
519658,5196.58
519750,5197.5
519842,5198.42
519933,5199.33
520022,5200.22
520111,5201.11
520200,5202.0
520289,5202.89
520376,5203.76
520463,5204.63
520551,5205.51
520640,5206.4
520730,5207.3
520821,5208.21
520909,5209.09
520998,5209.98
521087,5210.87
521173,5211.73
521259,5212.59
521343,5213.43
521426,5214.26
521509,5215.09
521594,5215.94
521677,5216.77
521757,5217.57
521836,5218.36
521913,5219.13
521989,5219.89
522062,5220.62
522135,5221.35
522207,5222.07
522279,5222.79
522354,5223.54
522434,5224.34
522521,5225.21
522613,5226.13
522706,5227.06
522797,5227.97
522890,5228.9
522988,5229.88
523083,5230.83
523179,5231.79
523276,5232.76
523373,5233.73
523474,5234.74
523576,5235.76
523676,5236.76
523775,5237.75
523874,5238.74
523972,5239.72
524068,5240.68
524162,5241.62
524254,5242.54
524342,5243.42
524428,5244.28
524513,5245.13
524598,5245.98
524683,5246.83
524768,5247.68
524852,5248.52
524936,5249.36
525022,5250.22
525110,5251.1
525196,5251.96
525281,5252.81
525365,5253.65
525446,5254.46
525528,5255.28
525608,5256.08
525686,5256.86
525765,5257.65
525842,5258.42
525919,5259.19
525996,5259.96
526075,5260.75
526159,5261.59
526253,5262.53
526350,5263.5
526446,5264.46
526542,5265.42
526641,5266.41
526743,5267.43
526848,5268.48
526950,5269.5
527048,5270.48
527146,5271.46
527245,5272.45
527346,5273.46
527447,5274.47
527545,5275.45
527641,5276.41
527738,5277.38
527832,5278.32
527924,5279.24
528018,5280.18
528111,5281.11
528202,5282.02
528291,5282.91
528378,5283.78
528462,5284.62
528547,5285.47
528631,5286.31
528715,5287.15
528798,5287.98
528881,5288.81
528964,5289.64
529048,5290.48
529131,5291.31
529213,5292.13
529294,5292.94
529372,5293.72
529448,5294.48
529523,5295.23
529596,5295.96
529667,5296.67
529739,5297.39
529809,5298.09
529880,5298.8
529954,5299.54
530030,5300.3
530111,5301.11
530197,5301.97
530287,5302.87
530381,5303.81
530475,5304.75
530574,5305.74
530680,5306.8
530790,5307.9
530900,5309.0
531007,5310.07
531115,5311.15
531224,5312.24
531332,5313.32
531440,5314.4
531548,5315.48
531656,5316.56
531762,5317.62
531865,5318.65
531968,5319.68
532069,5320.69
532169,5321.69
532269,5322.69
532366,5323.66
532463,5324.63
532559,5325.59
532653,5326.53
532746,5327.46
532836,5328.36
532925,5329.25
533015,5330.15
533107,5331.07
533194,5331.94
533277,5332.77
533359,5333.59
533440,5334.4
533521,5335.21
533601,5336.01
533680,5336.8
533758,5337.58
533836,5338.36
533914,5339.14
533995,5339.95
534080,5340.8
534171,5341.71
534267,5342.67
534367,5343.67
534471,5344.71
534576,5345.76
534681,5346.81
534784,5347.84
534887,5348.87
534988,5349.88
535088,5350.88
535187,5351.87
535286,5352.86
535383,5353.83
535480,5354.8
535578,5355.78
535671,5356.71
535764,5357.64
535858,5358.58
535952,5359.52
536045,5360.45
536136,5361.36
536224,5362.24
536313,5363.13
536405,5364.05
536493,5364.93
536580,5365.8
536662,5366.62
536742,5367.42
536824,5368.24
536904,5369.04
536983,5369.83
537063,5370.63
537147,5371.47
537233,5372.33
537323,5373.23
537412,5374.12
537501,5375.01
537593,5375.93
537687,5376.87
537783,5377.83
537881,5378.81
537977,5379.77
538073,5380.73
538170,5381.7
538268,5382.68
538370,5383.7
538468,5384.68
538566,5385.66
538664,5386.64
538759,5387.59
538854,5388.54
538947,5389.47
539037,5390.37
539129,5391.29
539222,5392.22
539313,5393.13
539402,5394.02
539490,5394.9
539580,5395.8
539671,5396.71
539761,5397.61
539850,5398.5
539939,5399.39
540028,5400.28
540117,5401.17
540206,5402.06
540291,5402.91
540374,5403.74
540454,5404.54
540533,5405.33
540610,5406.1
540687,5406.87
540764,5407.64
540845,5408.45
540929,5409.29
541021,5410.21
541115,5411.15
541209,5412.09
541302,5413.02
541400,5414.0
541504,5415.04
541608,5416.08
541708,5417.08
541810,5418.1
541913,5419.13
542014,5420.14
542115,5421.15
542214,5422.14
542314,5423.14
542412,5424.12
542509,5425.09
542605,5426.05
542697,5426.97
542786,5427.86
542876,5428.76
542967,5429.67
543058,5430.58
543146,5431.46
543234,5432.34
543322,5433.22
543408,5434.08
543495,5434.95
543580,5435.8
543665,5436.65
543751,5437.51
543833,5438.33
543914,5439.14
543994,5439.94
544072,5440.72
544149,5441.49
544228,5442.28
544308,5443.08
544390,5443.9
544473,5444.73
544556,5445.56
544642,5446.42
544734,5447.34
544831,5448.31
544928,5449.28
545024,5450.24
545122,5451.22
545223,5452.23
545325,5453.25
545426,5454.26
545528,5455.28
545630,5456.3
545730,5457.3
545828,5458.28
545924,5459.24
546019,5460.19
546112,5461.12
546208,5462.08
546304,5463.04
546400,5464.0
546494,5464.94
546588,5465.88
546683,5466.83
546778,5467.78
546870,5468.7
546959,5469.59
547045,5470.45
547131,5471.31
547216,5472.16
547299,5472.99
547382,5473.82
547465,5474.65
547548,5475.48
547630,5476.3
547716,5477.16
547803,5478.03
547892,5478.92
547979,5479.79
548061,5480.61
548142,5481.42
548222,5482.22
548300,5483.0
548377,5483.77
548454,5484.54
548533,5485.33
548614,5486.14
548698,5486.98
548781,5487.81
548868,5488.68
548961,5489.61
549059,5490.59
549158,5491.58
549257,5492.57
549356,5493.56
549458,5494.58
549561,5495.61
549665,5496.65
549771,5497.71
549874,5498.74
549975,5499.75
550074,5500.74
550173,5501.73
550271,5502.71
550367,5503.67
550465,5504.65
550561,5505.61
550655,5506.55
550748,5507.48
550840,5508.4
550929,5509.29
551016,5510.16
551101,5511.01
551188,5511.88
551276,5512.76
551365,5513.65
551454,5514.54
551542,5515.42
551632,5516.32
551722,5517.22
551810,5518.1
551897,5518.97
551982,5519.82
552067,5520.67
552149,5521.49
552229,5522.29
552307,5523.07
552384,5523.84
552460,5524.6
552536,5525.36
552613,5526.13
552689,5526.89
552764,5527.64
552840,5528.4
552919,5529.19
553000,5530.0
553087,5530.87
553183,5531.83
553283,5532.83
553382,5533.82
553482,5534.82
553581,5535.81
553680,5536.8
553779,5537.79
553879,5538.79
553978,5539.78
554075,5540.75
554172,5541.72
554267,5542.67
554364,5543.64
554460,5544.6
554555,5545.55
554648,5546.48
554743,5547.43
554838,5548.38
554932,5549.32
555027,5550.27
555118,5551.18
555209,5552.09
555302,5553.02
555394,5553.94
555484,5554.84
555571,5555.71
555657,5556.57
555742,5557.42
555828,5558.28
555913,5559.13
555999,5559.99
556084,5560.84
556171,5561.71
556254,5562.54
556335,5563.35
556416,5564.16
556495,5564.95
556572,5565.72
556651,5566.51
556731,5567.31
556814,5568.14
556898,5568.98
556984,5569.84
557073,5570.73
557167,5571.67
557265,5572.65
557364,5573.64
557459,5574.59
557554,5575.54
557653,5576.53
557754,5577.54
557854,5578.54
557953,5579.53
558053,5580.53
558154,5581.54
558255,5582.55
558355,5583.55
558452,5584.52
558548,5585.48
558644,5586.44
558738,5587.38
558831,5588.31
558924,5589.24
559018,5590.18
559111,5591.11
559200,5592.0
559288,5592.88
559376,5593.76
559463,5594.63
559551,5595.51
559637,5596.37
559722,5597.22
559810,5598.1
559898,5598.98
559985,5599.85
560072,5600.72
560158,5601.58
560243,5602.43
560331,5603.31
560416,5604.16
560500,5605.0
560584,5605.84
560662,5606.62
560741,5607.41
560817,5608.17
560893,5608.93
560969,5609.69
561045,5610.45
561123,5611.23
561204,5612.04
561289,5612.89
561378,5613.78
561468,5614.68
561558,5615.58
561653,5616.53
561753,5617.53
561857,5618.57
561961,5619.61
562066,5620.66
562174,5621.74
562285,5622.85
562398,5623.98
562508,5625.08
562616,5626.16
562723,5627.23
562831,5628.31
562937,5629.37
563041,5630.41
563144,5631.44
563245,5632.45
563344,5633.44
563443,5634.43
563541,5635.41
563639,5636.39
563735,5637.35
563833,5638.33
563923,5639.23
564012,5640.12
564098,5640.98
564184,5641.84
564270,5642.7
564357,5643.57
564446,5644.46
564536,5645.36
564624,5646.24
564712,5647.12
564800,5648.0
564882,5648.82
564964,5649.64
565045,5650.45
565125,5651.25
565203,5652.03
565282,5652.82
565363,5653.63
565447,5654.47
565534,5655.34
565623,5656.23
565712,5657.12
565806,5658.06
565904,5659.04
566006,5660.06
566106,5661.06
566205,5662.05
566309,5663.09
566415,5664.15
566521,5665.21
566626,5666.26
566731,5667.31
566835,5668.35
566935,5669.35
567033,5670.33
567127,5671.27
567219,5672.19
567311,5673.11
567403,5674.03
567492,5674.92
567581,5675.81
567670,5676.7
567758,5677.58
567844,5678.44
567928,5679.28
568013,5680.13
568098,5680.98
568185,5681.85
568274,5682.74
568362,5683.62
568448,5684.48
568537,5685.37
568621,5686.21
568703,5687.03
568783,5687.83
568860,5688.6
568936,5689.36
569011,5690.11
569086,5690.86
569162,5691.62
569237,5692.37
569312,5693.12
569387,5693.87
569462,5694.62
569537,5695.37
569612,5696.12
569689,5696.89
569768,5697.68
569851,5698.51
569937,5699.37
570027,5700.27
570115,5701.15
570204,5702.04
570296,5702.96
570390,5703.9
570488,5704.88
570589,5705.89
570691,5706.91
570795,5707.95
570899,5708.99
571003,5710.03
571107,5711.07
571212,5712.12
571318,5713.18
571421,5714.21
571525,5715.25
571627,5716.27
571728,5717.28
571827,5718.27
571925,5719.25
572020,5720.2
572115,5721.15
572210,5722.1
572305,5723.05
572398,5723.98
572489,5724.89
572578,5725.78
572669,5726.69
572760,5727.6
572844,5728.44
572926,5729.26
573009,5730.09
573093,5730.93
573176,5731.76
573259,5732.59
573341,5733.41
573427,5734.27
573517,5735.17
573608,5736.08
573699,5736.99
573791,5737.91
573883,5738.83
573974,5739.74
574065,5740.65
574157,5741.57
574248,5742.48
574342,5743.42
574439,5744.39
574537,5745.37
574633,5746.33
574729,5747.29
574827,5748.27
574924,5749.24
575020,5750.2
575115,5751.15
575207,5752.07
575297,5752.97
575388,5753.88
575478,5754.78
575564,5755.64
575650,5756.5
575735,5757.35
575821,5758.21
575908,5759.08
575994,5759.94
576079,5760.79
576167,5761.67
576255,5762.55
576345,5763.45
576433,5764.33
576519,5765.19
576608,5766.08
576701,5767.01
576787,5767.87
576869,5768.69
576953,5769.53
577035,5770.35
577116,5771.16
577196,5771.96
577275,5772.75
577354,5773.54
577435,5774.35
577523,5775.23
577618,5776.18
577715,5777.15
577813,5778.13
577909,5779.09
578003,5780.03
578103,5781.03
578206,5782.06
578310,5783.1
578414,5784.14
578517,5785.17
578616,5786.16
578718,5787.18
578820,5788.2
578920,5789.2
579019,5790.19
579118,5791.18
579215,5792.15
579309,5793.09
579400,5794.0
579490,5794.9
579577,5795.77
579663,5796.63
579750,5797.5
579840,5798.4
579934,5799.34
580026,5800.26
580117,5801.17
580207,5802.07
580296,5802.96
580384,5803.84
580469,5804.69
580550,5805.5
580632,5806.32
580715,5807.15
580796,5807.96
580876,5808.76
580954,5809.54
581032,5810.32
581110,5811.1
581189,5811.89
581272,5812.72
581360,5813.6
581452,5814.52
581546,5815.46
581640,5816.4
581736,5817.36
581837,5818.37
581941,5819.41
582043,5820.43
582145,5821.45
582247,5822.47
582350,5823.5
582452,5824.52
582553,5825.53
582654,5826.54
582754,5827.54
582852,5828.52
582952,5829.52
583048,5830.48
583141,5831.41
583233,5832.33
583325,5833.25
583411,5834.11
583497,5834.97
583580,5835.8
583664,5836.64
583748,5837.48
583832,5838.32
583916,5839.16
583999,5839.99
584083,5840.83
584164,5841.64
584244,5842.44
584325,5843.25
584405,5844.05
584483,5844.83
584563,5845.63
584645,5846.45
584729,5847.29
584816,5848.16
584901,5849.01
584990,5849.9
585083,5850.83
585177,5851.77
585268,5852.68
585357,5853.57
585446,5854.46
585539,5855.39
585634,5856.34
585728,5857.28
585824,5858.24
585919,5859.19
586013,5860.13
586105,5861.05
586197,5861.97
586291,5862.91
586383,5863.83
586477,5864.77
586571,5865.71
586667,5866.67
586763,5867.63
586862,5868.62
586960,5869.6
587057,5870.57
587153,5871.53
587248,5872.48
587343,5873.43
587434,5874.34
587526,5875.26
587616,5876.16
587706,5877.06
587795,5877.95
587883,5878.83
587970,5879.7
588058,5880.58
588147,5881.47
588232,5882.32
588317,5883.17
588401,5884.01
588487,5884.87
588570,5885.7
588653,5886.53
588734,5887.34
588813,5888.13
588892,5888.92
588970,5889.7
589047,5890.47
589126,5891.26
589212,5892.12
589300,5893.0
589390,5893.9
589480,5894.8
589571,5895.71
589664,5896.64
589761,5897.61
589861,5898.61
589961,5899.61
590061,5900.61
590158,5901.58
590251,5902.51
590345,5903.45
590442,5904.42
590540,5905.4
590638,5906.38
590735,5907.35
590832,5908.32
590931,5909.31
591028,5910.28
591125,5911.25
591220,5912.2
591318,5913.18
591417,5914.17
591516,5915.16
591615,5916.15
591712,5917.12
591810,5918.1
591907,5919.07
592003,5920.03
592096,5920.96
592186,5921.86
592278,5922.78
592370,5923.7
592462,5924.62
592553,5925.53
592641,5926.41
592726,5927.26
592809,5928.09
592893,5928.93
592976,5929.76
593060,5930.6
593143,5931.43
593224,5932.24
593303,5933.03
593382,5933.82
593461,5934.61
593539,5935.39
593616,5936.16
593694,5936.94
593773,5937.73
593854,5938.54
593938,5939.38
594023,5940.23
594111,5941.11
594201,5942.01
594297,5942.97
594394,5943.94
594490,5944.9
594583,5945.83
594674,5946.74
594767,5947.67
594862,5948.62
594957,5949.57
595055,5950.55
595152,5951.52
595251,5952.51
595349,5953.49
595448,5954.48
595546,5955.46
595646,5956.46
595742,5957.42
595837,5958.37
595932,5959.32
596026,5960.26
596120,5961.2
596212,5962.12
596301,5963.01
596391,5963.91
596481,5964.81
596570,5965.7
596659,5966.59
596746,5967.46
596832,5968.32
596918,5969.18
597003,5970.03
597087,5970.87
597169,5971.69
597251,5972.51
597334,5973.34
597417,5974.17
597501,5975.01
597586,5975.86
597669,5976.69
597749,5977.49
597830,5978.3
597911,5979.11
597991,5979.91
598069,5980.69
598149,5981.49
598230,5982.3
598315,5983.15
598401,5984.01
598487,5984.87
598575,5985.75
598668,5986.68
598766,5987.66
598864,5988.64
598960,5989.6
599055,5990.55
599151,5991.51
599251,5992.51
599350,5993.5
599450,5994.5
599548,5995.48
599646,5996.46
599743,5997.43
599838,5998.38
599930,5999.3
600022,6000.22
600113,6001.13
600201,6002.01
600290,6002.9
600379,6003.79
600468,6004.68
600557,6005.57
600646,6006.46
600736,6007.36
600822,6008.22
600906,6009.06
600988,6009.88
601069,6010.69
601151,6011.51
601233,6012.33
601316,6013.16
601397,6013.97
601478,6014.78
601560,6015.6
601641,6016.41
601724,6017.24
601806,6018.06
601884,6018.84
601964,6019.64
602041,6020.41
602117,6021.17
602191,6021.91
602266,6022.66
602340,6023.4
602412,6024.12
602484,6024.84
602556,6025.56
602628,6026.28
602700,6027.0
602775,6027.75
602852,6028.52
602934,6029.34
603016,6030.16
603102,6031.02
603187,6031.87
603283,6032.83
603380,6033.8
603456,6034.56
603533,6035.33
603614,6036.14
603696,6036.96
603780,6037.8
603864,6038.64
603948,6039.48
604032,6040.32
604115,6041.15
604197,6041.97
604278,6042.78
604359,6043.59
604441,6044.41
604526,6045.26
604611,6046.11
604700,6047.0
604788,6047.88
604879,6048.79
604968,6049.68
605059,6050.59
605156,6051.56
605259,6052.59
605367,6053.67
605472,6054.72
605577,6055.77
605682,6056.82
605786,6057.86
605889,6058.89
605985,6059.85
606076,6060.76
606164,6061.64
606251,6062.51
606336,6063.36
606421,6064.21
606513,6065.13
606608,6066.08
606711,6067.11
606820,6068.2
606933,6069.33
607040,6070.4
607148,6071.48
607256,6072.56
607358,6073.58
607456,6074.56
607550,6075.5
607642,6076.42
607736,6077.36
607829,6078.29
607923,6079.23
608018,6080.18
608109,6081.09
608201,6082.01
608295,6082.95
608387,6083.87
608482,6084.82
608577,6085.77
608670,6086.7
608762,6087.62
608854,6088.54
608946,6089.46
609040,6090.4
609131,6091.31
609222,6092.22
609311,6093.11
609399,6093.99
609487,6094.87
609574,6095.74
609660,6096.6
609746,6097.46
609831,6098.31
609916,6099.16
609998,6099.98
610079,6100.79
610158,6101.58
610235,6102.35
610313,6103.13
610392,6103.92
610475,6104.75
610562,6105.62
610653,6106.53
610746,6107.46
610841,6108.41
610940,6109.4
611041,6110.41
611141,6111.41
611242,6112.42
611343,6113.43
611445,6114.45
611548,6115.48
611650,6116.5
611752,6117.52
611852,6118.52
611952,6119.52
612054,6120.54
612157,6121.57
612256,6122.56
612355,6123.55
612451,6124.51
612547,6125.47
612645,6126.45
612742,6127.42
612840,6128.4
612934,6129.34
613029,6130.29
613124,6131.24
613220,6132.2
613315,6133.15
613409,6134.09
613501,6135.01
613593,6135.93
613684,6136.84
613774,6137.74
613861,6138.61
613947,6139.47
614033,6140.33
614119,6141.19
614205,6142.05
614290,6142.9
614375,6143.75
614462,6144.62
614552,6145.52
614643,6146.43
614736,6147.36
614837,6148.37
614940,6149.4
615042,6150.42
615144,6151.44
615243,6152.43
615344,6153.44
615445,6154.45
615544,6155.44
615642,6156.42
615739,6157.39
615837,6158.37
615935,6159.35
616033,6160.33
616130,6161.3
616225,6162.25
616323,6163.23
616424,6164.24
616523,6165.23
616620,6166.2
616716,6167.16
616809,6168.09
616902,6169.02
616995,6169.95
617089,6170.89
617182,6171.82
617276,6172.76
617369,6173.69
617463,6174.63
617556,6175.56
617648,6176.48
617740,6177.4
617831,6178.31
617918,6179.18
618005,6180.05
618092,6180.92
618179,6181.79
618272,6182.72
618365,6183.65
618460,6184.6
618556,6185.56
618651,6186.51
618748,6187.48
618847,6188.47
618946,6189.46
619042,6190.42
619136,6191.36
619229,6192.29
619322,6193.22
619414,6194.14
619507,6195.07
619601,6196.01
619694,6196.94
619786,6197.86
619880,6198.8
619975,6199.75
620070,6200.7
620163,6201.63
620256,6202.56
620349,6203.49
620440,6204.4
620531,6205.31
620621,6206.21
620709,6207.09
620797,6207.97
620886,6208.86
620977,6209.77
621066,6210.66
621156,6211.56
621247,6212.47
621337,6213.37
621426,6214.26
621516,6215.16
621605,6216.05
621697,6216.97
621789,6217.89
621881,6218.81
621973,6219.73
622065,6220.65
622157,6221.57
622249,6222.49
622341,6223.41
622433,6224.33
622523,6225.23
622614,6226.14
622707,6227.07
622799,6227.99
622893,6228.93
622988,6229.88
623083,6230.83
623178,6231.78
623274,6232.74
623370,6233.7
623467,6234.67
623563,6235.63
623658,6236.58
623755,6237.55
623851,6238.51
623949,6239.49
624048,6240.48
624146,6241.46
624244,6242.44
624343,6243.43
624441,6244.41
624540,6245.4
624636,6246.36
624733,6247.33
624831,6248.31
624928,6249.28
625024,6250.24
625121,6251.21
625220,6252.2
625321,6253.21
625421,6254.21
625519,6255.19
625617,6256.17
625719,6257.19
625821,6258.21
625920,6259.2
626019,6260.19
626120,6261.2
626221,6262.21
626322,6263.22
626420,6264.2
626517,6265.17
626615,6266.15
626713,6267.13
626811,6268.11
626910,6269.1
627009,6270.09
627109,6271.09
627212,6272.12
627315,6273.15
627417,6274.17
627519,6275.19
627620,6276.2
627720,6277.2
627818,6278.18
627915,6279.15
628013,6280.13
628109,6281.09
628204,6282.04
628299,6282.99
628394,6283.94
628491,6284.91
628587,6285.87
628682,6286.82
628778,6287.78
628873,6288.73
628968,6289.68
629065,6290.65
629162,6291.62
629258,6292.58
629356,6293.56
629453,6294.53
629553,6295.53
629650,6296.5
629745,6297.45
629841,6298.41
629936,6299.36
630031,6300.31
630125,6301.25
630219,6302.19
630312,6303.12
630405,6304.05
630497,6304.97
630591,6305.91
630685,6306.85
630779,6307.79
630873,6308.73
630967,6309.67
631060,6310.6
631152,6311.52
631243,6312.43
631332,6313.32
631420,6314.2
631507,6315.07
631594,6315.94
631679,6316.79
631764,6317.64
631849,6318.49
631934,6319.34
632020,6320.2
632105,6321.05
632191,6321.91
632277,6322.77
632366,6323.66
632454,6324.54
632542,6325.42
632631,6326.31
632721,6327.21
632811,6328.11
632901,6329.01
632992,6329.92
633083,6330.83
633172,6331.72
633262,6332.62
633351,6333.51
633440,6334.4
633528,6335.28
633616,6336.16
633702,6337.02
633789,6337.89
633875,6338.75
633961,6339.61
634047,6340.47
634133,6341.33
634221,6342.21
634311,6343.11
634401,6344.01
634492,6344.92
634584,6345.84
634677,6346.77
634769,6347.69
634861,6348.61
634952,6349.52
635042,6350.42
635131,6351.31
635218,6352.18
635306,6353.06
635394,6353.94
635481,6354.81
635567,6355.67
635652,6356.52
635737,6357.37
635822,6358.22
635907,6359.07
635991,6359.91
636073,6360.73
636155,6361.55
636237,6362.37
636318,6363.18
636397,6363.97
636477,6364.77
636557,6365.57
636637,6366.37
636717,6367.17
636800,6368.0
636882,6368.82
636965,6369.65
637047,6370.47
637129,6371.29
637212,6372.12
637296,6372.96
637381,6373.81
637466,6374.66
637551,6375.51
637637,6376.37
637723,6377.23
637809,6378.09
637895,6378.95
637980,6379.8
638065,6380.65
638150,6381.5
638236,6382.36
638321,6383.21
638407,6384.07
638494,6384.94
638582,6385.82
638669,6386.69
638757,6387.57
638845,6388.45
638934,6389.34
639022,6390.22
639110,6391.1
639198,6391.98
639286,6392.86
639374,6393.74
639462,6394.62
639549,6395.49
639638,6396.38
639726,6397.26
639814,6398.14
639903,6399.03
639992,6399.92
640080,6400.8
640170,6401.7
640258,6402.58
640347,6403.47
640436,6404.36
640525,6405.25
640614,6406.14
640703,6407.03
640793,6407.93
640883,6408.83
640975,6409.75
641066,6410.66
641158,6411.58
641251,6412.51
641343,6413.43
641436,6414.36
641528,6415.28
641619,6416.19
641710,6417.1
641799,6417.99
641886,6418.86
641974,6419.74
642061,6420.61
642148,6421.48
642235,6422.35
642320,6423.2
642405,6424.05
642491,6424.91
642577,6425.77
642663,6426.63
642749,6427.49
642834,6428.34
642919,6429.19
643005,6430.05
643090,6430.9
643174,6431.74
643258,6432.58
643341,6433.41
643424,6434.24
643507,6435.07
643588,6435.88
643669,6436.69
643750,6437.5
643832,6438.32
643915,6439.15
643998,6439.98
644082,6440.82
644167,6441.67
644252,6442.52
644338,6443.38
644425,6444.25
644510,6445.1
644596,6445.96
644682,6446.82
644767,6447.67
644851,6448.51
644934,6449.34
645018,6450.18
645103,6451.03
645188,6451.88
645272,6452.72
645357,6453.57
645443,6454.43
645530,6455.3
645618,6456.18
645708,6457.08
645798,6457.98
645887,6458.87
645976,6459.76
646066,6460.66
646155,6461.55
646242,6462.42
646330,6463.3
646417,6464.17
646504,6465.04
646590,6465.9
646676,6466.76
646762,6467.62
646848,6468.48
646934,6469.34
647019,6470.19
647103,6471.03
647188,6471.88
647271,6472.71
647354,6473.54
647435,6474.35
647515,6475.15
647597,6475.97
647678,6476.78
647760,6477.6
647842,6478.42
647925,6479.25
648008,6480.08
648093,6480.93
648178,6481.78
648263,6482.63
648348,6483.48
648433,6484.33
648519,6485.19
648604,6486.04
648689,6486.89
648773,6487.73
648857,6488.57
648942,6489.42
649027,6490.27
649111,6491.11
649196,6491.96
649282,6492.82
649367,6493.67
649453,6494.53
649539,6495.39
649625,6496.25
649712,6497.12
649798,6497.98
649884,6498.84
649972,6499.72
650061,6500.61
650149,6501.49
650237,6502.37
650324,6503.24
650410,6504.1
650495,6504.95
650578,6505.78
650660,6506.6
650742,6507.42
650824,6508.24
650906,6509.06
650990,6509.9
651074,6510.74
651159,6511.59
651243,6512.43
651329,6513.29
651415,6514.15
651501,6515.01
651587,6515.87
651673,6516.73
651761,6517.61
651849,6518.49
651937,6519.37
652026,6520.26
652113,6521.13
652201,6522.01
652289,6522.89
652377,6523.77
652465,6524.65
652553,6525.53
652640,6526.4
652727,6527.27
652814,6528.14
652900,6529.0
652985,6529.85
653071,6530.71
653156,6531.56
653240,6532.4
653323,6533.23
653407,6534.07
653492,6534.92
653578,6535.78
653662,6536.62
653746,6537.46
653831,6538.31
653916,6539.16
654003,6540.03
654091,6540.91
654177,6541.77
654264,6542.64
654351,6543.51
654440,6544.4
654529,6545.29
654617,6546.17
654706,6547.06
654795,6547.95
654885,6548.85
654974,6549.74
655062,6550.62
655149,6551.49
655236,6552.36
655322,6553.22
655406,6554.06
655491,6554.91
655576,6555.76
655662,6556.62
655749,6557.49
655835,6558.35
655921,6559.21
656007,6560.07
656094,6560.94
656181,6561.81
656267,6562.67
656353,6563.53
656439,6564.39
656526,6565.26
656613,6566.13
656699,6566.99
656785,6567.85
656871,6568.71
656956,6569.56
657041,6570.41
657127,6571.27
657213,6572.13
657299,6572.99
657386,6573.86
657472,6574.72
657559,6575.59
657648,6576.48
657736,6577.36
657823,6578.23
657910,6579.1
657997,6579.97
658085,6580.85
658172,6581.72
658260,6582.6
658348,6583.48
658438,6584.38
658527,6585.27
658615,6586.15
658703,6587.03
658792,6587.92
658882,6588.82
658971,6589.71
659060,6590.6
659150,6591.5
659242,6592.42
659331,6593.31
659421,6594.21
659511,6595.11
659603,6596.03
659695,6596.95
659785,6597.85
659877,6598.77
659969,6599.69
660059,6600.59
660149,6601.49
660239,6602.39
660329,6603.29
660420,6604.2
660509,6605.09
660597,6605.97
660686,6606.86
660776,6607.76
660866,6608.66
660954,6609.54
661043,6610.43
661131,6611.31
661219,6612.19
661307,6613.07
661395,6613.95
661483,6614.83
661570,6615.7
661658,6616.58
661747,6617.47
661836,6618.36
661924,6619.24
662012,6620.12
662101,6621.01
662190,6621.9
662277,6622.77
662364,6623.64
662451,6624.51
662538,6625.38
662625,6626.25
662712,6627.12
662799,6627.99
662887,6628.87
662975,6629.75
663062,6630.62
663147,6631.47
663234,6632.34
663320,6633.2
663406,6634.06
663492,6634.92
663578,6635.78
663665,6636.65
663751,6637.51
663837,6638.37
663924,6639.24
664012,6640.12
664099,6640.99
664186,6641.86
664272,6642.72
664359,6643.59
664444,6644.44
664526,6645.26
664607,6646.07
664687,6646.87
664767,6647.67
664847,6648.47
664929,6649.29
665010,6650.1
665093,6650.93
665177,6651.77
665262,6652.62
665349,6653.49
665436,6654.36
665524,6655.24
665613,6656.13
665701,6657.01
665787,6657.87
665872,6658.72
665956,6659.56
666040,6660.4
666124,6661.24
666208,6662.08
666293,6662.93
666377,6663.77
666461,6664.61
666546,6665.46
666630,6666.3
666714,6667.14
666799,6667.99
666884,6668.84
666970,6669.7
667056,6670.56
667143,6671.43
667230,6672.3
667319,6673.19
667408,6674.08
667497,6674.97
667587,6675.87
667677,6676.77
667766,6677.66
667855,6678.55
667945,6679.45
668035,6680.35
668125,6681.25
668213,6682.13
668302,6683.02
668392,6683.92
668481,6684.81
668570,6685.7
668658,6686.58
668748,6687.48
668838,6688.38
668929,6689.29
669020,6690.2
669112,6691.12
669204,6692.04
669296,6692.96
669386,6693.86
669476,6694.76
669566,6695.66
669657,6696.57
669747,6697.47
669835,6698.35
669923,6699.23
670012,6700.12
670101,6701.01
670189,6701.89
670277,6702.77
670368,6703.68
670460,6704.6
670550,6705.5
670640,6706.4
670730,6707.3
670820,6708.2
670911,6709.11
671001,6710.01
671090,6710.9
671178,6711.78
671266,6712.66
671355,6713.55
671443,6714.43
671532,6715.32
671621,6716.21
671711,6717.11
671802,6718.02
671893,6718.93
671984,6719.84
672074,6720.74
672164,6721.64
672252,6722.52
672341,6723.41
672430,6724.3
672517,6725.17
672604,6726.04
672690,6726.9
672776,6727.76
672862,6728.62
672948,6729.48
673035,6730.35
673123,6731.23
673210,6732.1
673297,6732.97
673385,6733.85
673473,6734.73
673560,6735.6
673648,6736.48
673738,6737.38
673828,6738.28
673918,6739.18
674006,6740.06
674093,6740.93
674180,6741.8
674267,6742.67
674353,6743.53
674438,6744.38
674522,6745.22
674606,6746.06
674690,6746.9
674771,6747.71
674851,6748.51
674930,6749.3
675007,6750.07
675083,6750.83
675159,6751.59
675235,6752.35
675312,6753.12
675391,6753.91
675472,6754.72
675555,6755.55
675641,6756.41
675729,6757.29
675818,6758.18
675909,6759.09
676001,6760.01
676094,6760.94
676185,6761.85
676274,6762.74
676363,6763.63
676450,6764.5
676535,6765.35
676620,6766.2
676706,6767.06
676793,6767.93
676880,6768.8
676967,6769.67
677055,6770.55
677146,6771.46
677238,6772.38
677333,6773.33
677429,6774.29
677524,6775.24
677621,6776.21
677720,6777.2
677818,6778.18
677914,6779.14
678010,6780.1
678106,6781.06
678202,6782.02
678296,6782.96
678391,6783.91
678487,6784.87
678582,6785.82
678675,6786.75
678769,6787.69
678863,6788.63
678957,6789.57
679051,6790.51
679144,6791.44
679237,6792.37
679332,6793.32
679428,6794.28
679524,6795.24
679620,6796.2
679717,6797.17
679813,6798.13
679908,6799.08
680003,6800.03
680099,6800.99
680194,6801.94
680288,6802.88
680382,6803.82
680476,6804.76
680569,6805.69
680661,6806.61
680753,6807.53
680846,6808.46
680938,6809.38
681030,6810.3
681124,6811.24
681218,6812.18
681311,6813.11
681403,6814.03
681495,6814.95
681583,6815.83
681669,6816.69
681753,6817.53
681837,6818.37
681922,6819.22
682010,6820.1
682103,6821.03
682195,6821.95
682287,6822.87
682382,6823.82
682477,6824.77
682572,6825.72
682667,6826.67
682761,6827.61
682856,6828.56
682950,6829.5
683044,6830.44
683137,6831.37
683232,6832.32
683326,6833.26
683421,6834.21
683514,6835.14
683608,6836.08
683702,6837.02
683794,6837.94
683888,6838.88
683980,6839.8
684072,6840.72
684164,6841.64
684255,6842.55
684348,6843.48
684440,6844.4
684533,6845.33
684626,6846.26
684719,6847.19
684813,6848.13
684907,6849.07
685001,6850.01
685095,6850.95
685188,6851.88
685280,6852.8
685372,6853.72
685464,6854.64
685555,6855.55
685646,6856.46
685737,6857.37
685828,6858.28
685918,6859.18
686006,6860.06
686095,6860.95
686184,6861.84
686272,6862.72
686359,6863.59
686447,6864.47
686536,6865.36
686626,6866.26
686715,6867.15
686804,6868.04
686894,6868.94
686985,6869.85
687074,6870.74
687164,6871.64
687253,6872.53
687342,6873.42
687429,6874.29
687516,6875.16
687604,6876.04
687690,6876.9
687776,6877.76
687860,6878.6
687945,6879.45
688030,6880.3
688113,6881.13
688195,6881.95
688277,6882.77
688359,6883.59
688442,6884.42
688525,6885.25
688608,6886.08
688692,6886.92
688778,6887.78
688863,6888.63
688947,6889.47
689033,6890.33
689120,6891.2
689207,6892.07
689293,6892.93
689379,6893.79
689466,6894.66
689551,6895.51
689635,6896.35
689718,6897.18
689801,6898.01
689884,6898.84
689966,6899.66
690048,6900.48
690129,6901.29
690210,6902.1
690293,6902.93
690375,6903.75
690458,6904.58
690540,6905.4
690625,6906.25
690710,6907.1
690796,6907.96
690881,6908.81
690965,6909.65
691049,6910.49
691133,6911.33
691215,6912.15
691296,6912.96
691376,6913.76
691456,6914.56
691534,6915.34
691610,6916.1
691683,6916.83
691757,6917.57
691832,6918.32
691908,6919.08
691987,6919.87
692067,6920.67
692149,6921.49
692232,6922.32
692318,6923.18
692406,6924.06
692494,6924.94
692583,6925.83
692673,6926.73
692761,6927.61
692848,6928.48
692935,6929.35
693021,6930.21
693105,6931.05
693189,6931.89
693273,6932.73
693358,6933.58
693444,6934.44
693529,6935.29
693615,6936.15
693703,6937.03
693794,6937.94
693885,6938.85
693976,6939.76
694068,6940.68
694159,6941.59
694251,6942.51
694343,6943.43
694436,6944.36
694529,6945.29
694622,6946.22
694716,6947.16
694809,6948.09
694903,6949.03
694996,6949.96
695090,6950.9
695184,6951.84
695278,6952.78
695371,6953.71
695466,6954.66
695561,6955.61
695655,6956.55
695748,6957.48
695843,6958.43
695940,6959.4
696038,6960.38
696134,6961.34
696230,6962.3
696327,6963.27
696423,6964.23
696517,6965.17
696613,6966.13
696708,6967.08
696803,6968.03
696896,6968.96
696988,6969.88
697081,6970.81
697174,6971.74
697267,6972.67
697358,6973.58
697449,6974.49
697542,6975.42
697635,6976.35
697727,6977.27
697818,6978.18
697908,6979.08
697999,6979.99
698091,6980.91
698181,6981.81
698271,6982.71
698361,6983.61
698450,6984.5
698540,6985.4
698628,6986.28
698717,6987.17
698806,6988.06
698895,6988.95
698984,6989.84
699071,6990.71
699158,6991.58
699246,6992.46
699335,6993.35
699424,6994.24
699512,6995.12
699601,6996.01
699691,6996.91
699781,6997.81
699870,6998.7
699959,6999.59
700049,7000.49
700138,7001.38
700227,7002.27
700314,7003.14
700401,7004.01
700488,7004.88
700576,7005.76
700663,7006.63
700751,7007.51
700840,7008.4
700929,7009.29
701018,7010.18
701107,7011.07
701197,7011.97
701289,7012.89
701379,7013.79
701468,7014.68
701558,7015.58
701648,7016.48
701739,7017.39
701829,7018.29
701919,7019.19
702009,7020.09
702099,7020.99
702189,7021.89
702278,7022.78
702367,7023.67
702456,7024.56
702546,7025.46
702636,7026.36
702724,7027.24
702812,7028.12
702900,7029.0
702989,7029.89
703078,7030.78
703166,7031.66
703255,7032.55
703345,7033.45
703436,7034.36
703525,7035.25
703615,7036.15
703705,7037.05
703796,7037.96
703885,7038.85
703973,7039.73
704062,7040.62
704150,7041.5
704238,7042.38
704326,7043.26
704414,7044.14
704502,7045.02
704589,7045.89
704677,7046.77
704766,7047.66
704855,7048.55
704944,7049.44
705034,7050.34
705125,7051.25
705216,7052.16
705305,7053.05
705396,7053.96
705486,7054.86
705575,7055.75
705663,7056.63
705751,7057.51
705840,7058.4
705930,7059.3
706020,7060.2
706110,7061.1
706198,7061.98
706286,7062.86
706375,7063.75
706464,7064.64
706552,7065.52
706639,7066.39
706726,7067.26
706812,7068.12
706897,7068.97
706981,7069.81
707064,7070.64
707146,7071.46
707227,7072.27
707308,7073.08
707388,7073.88
707469,7074.69
707551,7075.51
707631,7076.31
707711,7077.11
707790,7077.9
707870,7078.7
707949,7079.49
708028,7080.28
708107,7081.07
708187,7081.87
708267,7082.67
708346,7083.46
708426,7084.26
708504,7085.04
708581,7085.81
708656,7086.56
708730,7087.3
708804,7088.04
708878,7088.78
708953,7089.53
709026,7090.26
709100,7091.0
709173,7091.73
709247,7092.47
709322,7093.22
709400,7094.0
709484,7094.84
709572,7095.72
709666,7096.66
709761,7097.61
709855,7098.55
709950,7099.5
710042,7100.42
710132,7101.32
710221,7102.21
710310,7103.1
710399,7103.99
710489,7104.89
710578,7105.78
710668,7106.68
710757,7107.57
710845,7108.45
710934,7109.34
711026,7110.26
711119,7111.19
711211,7112.11
711303,7113.03
711394,7113.94
711485,7114.85
711576,7115.76
711668,7116.68
711760,7117.6
711852,7118.52
711944,7119.44
712039,7120.39
712137,7121.37
712234,7122.34
712331,7123.31
712427,7124.27
712524,7125.24
712623,7126.23
712724,7127.24
712827,7128.27
712930,7129.3
713033,7130.33
713137,7131.37
713241,7132.41
713345,7133.45
713450,7134.5
713555,7135.55
713659,7136.59
713763,7137.63
713867,7138.67
713970,7139.7
714071,7140.71
714172,7141.72
714274,7142.74
714376,7143.76
714480,7144.8
714581,7145.81
714682,7146.82
714783,7147.83
714884,7148.84
714985,7149.85
715085,7150.85
715186,7151.86
715285,7152.85
715385,7153.85
715484,7154.84
715583,7155.83
715683,7156.83
715782,7157.82
715879,7158.79
715977,7159.77
716075,7160.75
716173,7161.73
716269,7162.69
716364,7163.64
716460,7164.6
716557,7165.57
716652,7166.52
716746,7167.46
716840,7168.4
716935,7169.35
717032,7170.32
717128,7171.28
717223,7172.23
717318,7173.18
717413,7174.13
717507,7175.07
717600,7176.0
717695,7176.95
717788,7177.88
717879,7178.79
717967,7179.67
718052,7180.52
718134,7181.34
718214,7182.14
718294,7182.94
718375,7183.75
718458,7184.58
718543,7185.43
718632,7186.32
718724,7187.24
718818,7188.18
718912,7189.12
719008,7190.08
719105,7191.05
719201,7192.01
719297,7192.97
719391,7193.91
719485,7194.85
719576,7195.76
719666,7196.66
719755,7197.55
719844,7198.44
719934,7199.34
720023,7200.23
720109,7201.09
720195,7201.95
720282,7202.82
720371,7203.71
720466,7204.66
720565,7205.65
720665,7206.65
720764,7207.64
720862,7208.62
720961,7209.61
721059,7210.59
721156,7211.56
721250,7212.5
721344,7213.44
721437,7214.37
721532,7215.32
721628,7216.28
721723,7217.23
721819,7218.19
721914,7219.14
722011,7220.11
722108,7221.08
722205,7222.05
722299,7222.99
722394,7223.94
722489,7224.89
722583,7225.83
722676,7226.76
722769,7227.69
722861,7228.61
722954,7229.54
723050,7230.5
723145,7231.45
723239,7232.39
723334,7233.34
723429,7234.29
723524,7235.24
723618,7236.18
723712,7237.12
723808,7238.08
723903,7239.03
723999,7239.99
724094,7240.94
724189,7241.89
724284,7242.84
724379,7243.79
724473,7244.73
724568,7245.68
724663,7246.63
724760,7247.6
724856,7248.56
724950,7249.5
725043,7250.43
725136,7251.36
725229,7252.29
725322,7253.22
725414,7254.14
725507,7255.07
725599,7255.99
725692,7256.92
725783,7257.83
725874,7258.74
725964,7259.64
726054,7260.54
726145,7261.45
726235,7262.35
726326,7263.26
726416,7264.16
726507,7265.07
726595,7265.95
726683,7266.83
726772,7267.72
726861,7268.61
726950,7269.5
727039,7270.39
727128,7271.28
727218,7272.18
727309,7273.09
727397,7273.97
727486,7274.86
727576,7275.76
727667,7276.67
727757,7277.57
727846,7278.46
727935,7279.35
728022,7280.22
728106,7281.06
728187,7281.87
728266,7282.66
728347,7283.47
728427,7284.27
728510,7285.1
728597,7285.97
728686,7286.86
728781,7287.81
728884,7288.84
728987,7289.87
729090,7290.9
729192,7291.92
729295,7292.95
729397,7293.97
729498,7294.98
729596,7295.96
729694,7296.94
729791,7297.91
729886,7298.86
729981,7299.81
730075,7300.75
730170,7301.7
730263,7302.63
730355,7303.55
730446,7304.46
730537,7305.37
730629,7306.29
730721,7307.21
730812,7308.12
730902,7309.02
730992,7309.92
731082,7310.82
731174,7311.74
731266,7312.66
731359,7313.59
731451,7314.51
731545,7315.45
731639,7316.39
731733,7317.33
731826,7318.26
731920,7319.2
732014,7320.14
732108,7321.08
732202,7322.02
732296,7322.96
732390,7323.9
732483,7324.83
732574,7325.74
732667,7326.67
732759,7327.59
732853,7328.53
732946,7329.46
733039,7330.39
733132,7331.32
733225,7332.25
733318,7333.18
733409,7334.09
733501,7335.01
733592,7335.92
733682,7336.82
733773,7337.73
733863,7338.63
733953,7339.53
734044,7340.44
734136,7341.36
734228,7342.28
734319,7343.19
734408,7344.08
734497,7344.97
734586,7345.86
734674,7346.74
734760,7347.6
734845,7348.45
734930,7349.3
735016,7350.16
735103,7351.03
735189,7351.89
735276,7352.76
735365,7353.65
735455,7354.55
735545,7355.45
735634,7356.34
735724,7357.24
