sample,time_sec
16118,161.18
16183,161.83
16615,166.15
16729,167.29
16889,168.89
16993,169.93
17355,173.55
17468,174.68
19502,195.02
21537,215.37
21670,216.7
21736,217.36
21831,218.31
26098,260.98
43648,436.48
43711,437.11
43793,437.93
43970,439.7
44300,443.0
44380,443.8
47564,475.64
53519,535.19
53845,538.45
56667,566.67
56880,568.8
56982,569.82
57080,570.8
57921,579.21
58299,582.99
59926,599.26
60020,600.2
60109,601.09
60202,602.02
60292,602.92
60385,603.85
60485,604.85
60551,605.51
60618,606.18
60698,606.98
60797,607.97
60899,608.99
60999,609.99
61095,610.95
61187,611.87
61276,612.76
61366,613.66
61459,614.59
61554,615.54
61649,616.49
61737,617.37
61828,618.28
61921,619.21
62013,620.13
62105,621.05
62196,621.96
62277,622.77
62354,623.54
62430,624.3
62508,625.08
62591,625.91
62671,626.71
62751,627.51
62842,628.42
62931,629.31
63024,630.24
63118,631.18
63204,632.04
63292,632.92
63384,633.84
63481,634.81
63572,635.72
63668,636.68
63765,637.65
63862,638.62
63967,639.67
64067,640.67
64163,641.63
64259,642.59
64357,643.57
64450,644.5
64536,645.36
64617,646.17
64693,646.93
64774,647.74
64850,648.5
64929,649.29
65009,650.09
65094,650.94
65175,651.75
65256,652.56
65337,653.37
65412,654.12
65491,654.91
65571,655.71
65657,656.57
65741,657.41
65827,658.27
65909,659.09
65996,659.96
66085,660.85
66182,661.82
66277,662.77
66375,663.75
66473,664.73
66572,665.72
66668,666.68
66767,667.67
66865,668.65
66959,669.59
67044,670.44
67124,671.24
67201,672.01
67296,672.96
67406,674.06
67517,675.17
67620,676.2
67725,677.25
67826,678.26
67928,679.28
68016,680.16
68104,681.04
68202,682.02
68287,682.87
68377,683.77
68467,684.67
68566,685.66
68664,686.64
68759,687.59
68855,688.55
68951,689.51
69047,690.47
69143,691.43
69229,692.29
69320,693.2
69414,694.14
69513,695.13
69610,696.1
69701,697.01
69791,697.91
69881,698.81
69964,699.64
70045,700.45
70134,701.34
70207,702.07
70259,702.59
70340,703.4
70441,704.41
70539,705.39
70634,706.34
70725,707.25
70805,708.05
70882,708.82
70961,709.61
71051,710.51
71143,711.43
71248,712.48
71354,713.54
71411,714.11
71459,714.59
71513,715.13
71563,715.63
71659,716.59
71756,717.56
71849,718.49
71944,719.44
72035,720.35
72133,721.33
72229,722.29
72326,723.26
72429,724.29
72526,725.26
72628,726.28
72726,727.26
72827,728.27
72927,729.27
73025,730.25
73122,731.22
73214,732.14
73299,732.99
73393,733.93
73487,734.87
73585,735.85
73685,736.85
73779,737.79
73876,738.76
73977,739.77
74073,740.73
74173,741.73
74264,742.64
74352,743.52
74441,744.41
74528,745.28
74621,746.21
74714,747.14
74807,748.07
74893,748.93
74978,749.78
75060,750.6
75135,751.35
75210,752.1
75286,752.86
75361,753.61
75437,754.37
75519,755.19
75602,756.02
75682,756.82
75759,757.59
75836,758.36
75912,759.12
75992,759.92
76077,760.77
76164,761.64
76252,762.52
76348,763.48
76445,764.45
76543,765.43
76637,766.37
76731,767.31
76827,768.27
76922,769.22
77008,770.08
77098,770.98
77189,771.89
77271,772.71
77348,773.48
77431,774.31
77521,775.21
77610,776.1
77697,776.97
77786,777.86
77873,778.73
77961,779.61
78039,780.39
78115,781.15
78193,781.93
78278,782.78
78371,783.71
78466,784.66
78559,785.59
78647,786.47
78730,787.3
78808,788.08
78887,788.87
78964,789.64
79039,790.39
79118,791.18
79222,792.22
79316,793.16
79414,794.14
79514,795.14
79612,796.12
79700,797.0
79789,797.89
79880,798.8
79970,799.7
80059,800.59
80155,801.55
80256,802.56
80351,803.51
80451,804.51
80551,805.51
80647,806.47
80744,807.44
80835,808.35
80930,809.3
81025,810.25
81119,811.19
81209,812.09
81301,813.01
81394,813.94
81490,814.9
81586,815.86
81689,816.89
81796,817.96
81901,819.01
81999,819.99
82099,820.99
82197,821.97
82290,822.9
82384,823.84
82489,824.89
82595,825.95
82698,826.98
82803,828.03
82906,829.06
83007,830.07
83104,831.04
83203,832.03
83306,833.06
83402,834.02
83499,834.99
83599,835.99
83694,836.94
83800,838.0
83909,839.09
84008,840.08
84105,841.05
84195,841.95
84283,842.83
84365,843.65
84457,844.57
84542,845.42
84628,846.28
84731,847.31
84831,848.31
84937,849.37
85036,850.36
85136,851.36
85237,852.37
85333,853.33
85432,854.32
85529,855.29
85622,856.22
85718,857.18
85817,858.17
85913,859.13
86010,860.1
86110,861.1
86206,862.06
86303,863.03
86402,864.02
86496,864.96
86595,865.95
86697,866.97
86797,867.97
86901,869.01
86997,869.97
87100,871.0
87203,872.03
87306,873.06
87398,873.98
87490,874.9
87583,875.83
87679,876.79
87770,877.7
87868,878.68
87966,879.66
88064,880.64
88163,881.63
88262,882.62
88356,883.56
88451,884.51
88544,885.44
88631,886.31
88714,887.14
88799,887.99
88892,888.92
88993,889.93
89096,890.96
89195,891.95
89286,892.86
89376,893.76
89463,894.63
89554,895.54
89642,896.42
89730,897.3
89823,898.23
89909,899.09
89995,899.95
90081,900.81
90176,901.76
90272,902.72
90372,903.72
90472,904.72
90565,905.65
90658,906.58
90754,907.54
90850,908.5
90941,909.41
91023,910.23
91102,911.02
91182,911.82
91291,912.91
91391,913.91
91490,914.9
91582,915.82
91665,916.65
91745,917.45
91824,918.24
91912,919.12
91995,919.95
92077,920.77
92163,921.63
92252,922.52
92332,923.32
92410,924.1
92491,924.91
92572,925.72
92659,926.59
92744,927.44
92830,928.3
92917,929.17
93004,930.04
93088,930.88
93172,931.72
93261,932.61
93357,933.57
93451,934.51
93543,935.43
93644,936.44
93753,937.53
93857,938.57
93957,939.57
94047,940.47
94128,941.28
94205,942.05
94289,942.89
94390,943.9
94492,944.92
94592,945.92
94692,946.92
94793,947.93
94896,948.96
94998,949.98
95100,951.0
95196,951.96
95293,952.93
95390,953.9
95488,954.88
95580,955.8
95680,956.8
95783,957.83
95887,958.87
95986,959.86
96088,960.88
96192,961.92
96292,962.92
96396,963.96
96478,964.78
96575,965.75
96672,966.72
96758,967.58
96854,968.54
96973,969.73
97085,970.85
97192,971.92
97290,972.9
97374,973.74
97451,974.51
97528,975.28
97610,976.1
97705,977.05
97819,978.19
97931,979.31
98038,980.38
98144,981.44
98247,982.47
98342,983.42
98431,984.31
98515,985.15
98599,985.99
98691,986.91
98800,988.0
98912,989.12
99023,990.23
99130,991.3
99230,992.3
99322,993.22
99412,994.12
99499,994.99
99584,995.84
99673,996.73
99774,997.74
99870,998.7
99956,999.56
100043,1000.43
100146,1001.46
100246,1002.46
100343,1003.43
100437,1004.37
100532,1005.32
100628,1006.28
100720,1007.2
100817,1008.17
100915,1009.15
101016,1010.16
101116,1011.16
101212,1012.12
101304,1013.04
101401,1014.01
101506,1015.06
101611,1016.11
101706,1017.06
101791,1017.91
101880,1018.8
101974,1019.74
102068,1020.68
102159,1021.59
102253,1022.53
102356,1023.56
102462,1024.62
102565,1025.65
102664,1026.64
102757,1027.57
102847,1028.47
102935,1029.35
103022,1030.22
103113,1031.13
103216,1032.16
103331,1033.31
103440,1034.4
103544,1035.44
103643,1036.43
103737,1037.37
103828,1038.28
103915,1039.15
103997,1039.97
104077,1040.77
104164,1041.64
104260,1042.6
104357,1043.57
104445,1044.45
104540,1045.4
104638,1046.38
104737,1047.37
104834,1048.34
104930,1049.3
105020,1050.2
105113,1051.13
105208,1052.08
105305,1053.05
105397,1053.97
105487,1054.87
105582,1055.82
105680,1056.8
105781,1057.81
105880,1058.8
105981,1059.81
106082,1060.82
106180,1061.8
106278,1062.78
106369,1063.69
106457,1064.57
106549,1065.49
106646,1066.46
106749,1067.49
106852,1068.52
106953,1069.53
107051,1070.51
107145,1071.45
107241,1072.41
107331,1073.31
107416,1074.16
107510,1075.1
107609,1076.09
107708,1077.08
107793,1077.93
107873,1078.73
107952,1079.52
108028,1080.28
108115,1081.15
108211,1082.11
108310,1083.1
108410,1084.1
108507,1085.07
108596,1085.96
108683,1086.83
108775,1087.75
108874,1088.74
108977,1089.77
109079,1090.79
109175,1091.75
109272,1092.72
109370,1093.7
109464,1094.64
109558,1095.58
109653,1096.53
109752,1097.52
109850,1098.5
109954,1099.54
110059,1100.59
110159,1101.59
110261,1102.61
110362,1103.62
110458,1104.58
110551,1105.51
110652,1106.52
110757,1107.57
110861,1108.61
110966,1109.66
111071,1110.71
111173,1111.73
111268,1112.68
111368,1113.68
111472,1114.72
111574,1115.74
111670,1116.7
111770,1117.7
111873,1118.73
111974,1119.74
112076,1120.76
112181,1121.81
112284,1122.84
112383,1123.83
112484,1124.84
112586,1125.86
112685,1126.85
112782,1127.82
112880,1128.8
112975,1129.75
113061,1130.61
113140,1131.4
113218,1132.18
113309,1133.09
113407,1134.07
113503,1135.03
113599,1135.99
113694,1136.94
113789,1137.89
113880,1138.8
113964,1139.64
114049,1140.49
114133,1141.33
114212,1142.12
114292,1142.92
114392,1143.92
114491,1144.91
114585,1145.85
114671,1146.71
114756,1147.56
114840,1148.4
114919,1149.19
115001,1150.01
115094,1150.94
115187,1151.87
115274,1152.74
115363,1153.63
115452,1154.52
115538,1155.38
115622,1156.22
115702,1157.02
115778,1157.78
115855,1158.55
115931,1159.31
116003,1160.03
116075,1160.75
116145,1161.45
116216,1162.16
116286,1162.86
116355,1163.55
116424,1164.24
116491,1164.91
116557,1165.57
116625,1166.25
116689,1166.89
116752,1167.52
116809,1168.09
116874,1168.74
116939,1169.39
117000,1170.0
117060,1170.6
117122,1171.22
117182,1171.82
117243,1172.43
117308,1173.08
117371,1173.71
117434,1174.34
117498,1174.98
117564,1175.64
117630,1176.3
117698,1176.98
117763,1177.63
117832,1178.32
117902,1179.02
117988,1179.88
118074,1180.74
118140,1181.4
118212,1182.12
118277,1182.77
118343,1183.43
118411,1184.11
118476,1184.76
118541,1185.41
118604,1186.04
118668,1186.68
118743,1187.43
118812,1188.12
118883,1188.83
118955,1189.55
119027,1190.27
119097,1190.97
119161,1191.61
119226,1192.26
119301,1193.01
119370,1193.7
119442,1194.42
119515,1195.15
119588,1195.88
119660,1196.6
119733,1197.33
119807,1198.07
119878,1198.78
119946,1199.46
120015,1200.15
120088,1200.88
120162,1201.62
120238,1202.38
120318,1203.18
120397,1203.97
120474,1204.74
120546,1205.46
120616,1206.16
120690,1206.9
120765,1207.65
120840,1208.4
120915,1209.15
120988,1209.88
121065,1210.65
121117,1211.17
121170,1211.7
121220,1212.2
121271,1212.71
121347,1213.47
121436,1214.36
121507,1215.07
121579,1215.79
121651,1216.51
121725,1217.25
121781,1217.81
121876,1218.76
121971,1219.71
122039,1220.39
122107,1221.07
122182,1221.82
122251,1222.51
122321,1223.21
122390,1223.9
122472,1224.72
122569,1225.69
122655,1226.55
122733,1227.33
122805,1228.05
122877,1228.77
122952,1229.52
123027,1230.27
123104,1231.04
123171,1231.71
123251,1232.51
123339,1233.39
123414,1234.14
123503,1235.03
123572,1235.72
123645,1236.45
123716,1237.16
123786,1237.86
123859,1238.59
123933,1239.33
124008,1240.08
124086,1240.86
124168,1241.68
124255,1242.55
124344,1243.44
124429,1244.29
124516,1245.16
124605,1246.05
124687,1246.87
124776,1247.76
124872,1248.72
124964,1249.64
125060,1250.6
125156,1251.56
125246,1252.46
125335,1253.35
125416,1254.16
125498,1254.98
125587,1255.87
125678,1256.78
125762,1257.62
125840,1258.4
125915,1259.15
125993,1259.93
126087,1260.87
126184,1261.84
126270,1262.7
126360,1263.6
126453,1264.53
126542,1265.42
126628,1266.28
126710,1267.1
126800,1268.0
126899,1268.99
126997,1269.97
127086,1270.86
127184,1271.84
127283,1272.83
127379,1273.79
127468,1274.68
127561,1275.61
127659,1276.59
127758,1277.58
127853,1278.53
127945,1279.45
128040,1280.4
128137,1281.37
128218,1282.18
128306,1283.06
128392,1283.92
128470,1284.7
128546,1285.46
128628,1286.28
128721,1287.21
128812,1288.12
128906,1289.06
129007,1290.07
129109,1291.09
129207,1292.07
129297,1292.97
129389,1293.89
129485,1294.85
129585,1295.85
129681,1296.81
129780,1297.8
129877,1298.77
129975,1299.75
130065,1300.65
130159,1301.59
130255,1302.55
130354,1303.54
130448,1304.48
130545,1305.45
130644,1306.44
130737,1307.37
130829,1308.29
130921,1309.21
131014,1310.14
131099,1310.99
131189,1311.89
131287,1312.87
131387,1313.87
131479,1314.79
131574,1315.74
131669,1316.69
131755,1317.55
131843,1318.43
131925,1319.25
132003,1320.03
132078,1320.78
132151,1321.51
132227,1322.27
132311,1323.11
132396,1323.96
132484,1324.84
132573,1325.73
132657,1326.57
132741,1327.41
132827,1328.27
132914,1329.14
133000,1330.0
133089,1330.89
133185,1331.85
133277,1332.77
133371,1333.71
133467,1334.67
133558,1335.58
133653,1336.53
133751,1337.51
133848,1338.48
133943,1339.43
134044,1340.44
134143,1341.43
134237,1342.37
134336,1343.36
134434,1344.34
134529,1345.29
134610,1346.1
134687,1346.87
134763,1347.63
134858,1348.58
134954,1349.54
135040,1350.4
135120,1351.2
135201,1352.01
135283,1352.83
135389,1353.89
135495,1354.95
135583,1355.83
135668,1356.68
135753,1357.53
135834,1358.34
135918,1359.18
136007,1360.07
136099,1360.99
136182,1361.82
136269,1362.69
136355,1363.55
136441,1364.41
136529,1365.29
136617,1366.17
136706,1367.06
136800,1368.0
136894,1368.94
136983,1369.83
137077,1370.77
137178,1371.78
137281,1372.81
137381,1373.81
137478,1374.78
137578,1375.78
137676,1376.76
137766,1377.66
137849,1378.49
137934,1379.34
138019,1380.19
138100,1381.0
138180,1381.8
138282,1382.82
138390,1383.9
138490,1384.9
138595,1385.95
138698,1386.98
138794,1387.94
138886,1388.86
138976,1389.76
139062,1390.62
139143,1391.43
139229,1392.29
139323,1393.23
139423,1394.23
139518,1395.18
139619,1396.19
139720,1397.2
139814,1398.14
139913,1399.13
140012,1400.12
140104,1401.04
140197,1401.97
140292,1402.92
140388,1403.88
140474,1404.74
140553,1405.53
140637,1406.37
140737,1407.37
140833,1408.33
140932,1409.32
141033,1410.33
141129,1411.29
141217,1412.17
141309,1413.09
141401,1414.01
141492,1414.92
141586,1415.86
141681,1416.81
141774,1417.74
141863,1418.63
141952,1419.52
142040,1420.4
142123,1421.23
142217,1422.17
142323,1423.23
142422,1424.22
142519,1425.19
142617,1426.17
142710,1427.1
142799,1427.99
142890,1428.9
142982,1429.82
143071,1430.71
143169,1431.69
143272,1432.72
143368,1433.68
143463,1434.63
143549,1435.49
143628,1436.28
143708,1437.08
143801,1438.01
143893,1438.93
143998,1439.98
144105,1441.05
144204,1442.04
144303,1443.03
144399,1443.99
144490,1444.9
144579,1445.79
144670,1446.7
144762,1447.62
144852,1448.52
144953,1449.53
145054,1450.54
145150,1451.5
145245,1452.45
145340,1453.4
145430,1454.3
145525,1455.25
145624,1456.24
145720,1457.2
145809,1458.09
145901,1459.01
146001,1460.01
146099,1460.99
146190,1461.9
146285,1462.85
146385,1463.85
146486,1464.86
146584,1465.84
146681,1466.81
146776,1467.76
146859,1468.59
146945,1469.45
147035,1470.35
147129,1471.29
147222,1472.22
147324,1473.24
147428,1474.28
147526,1475.26
147621,1476.21
147708,1477.08
147788,1477.88
147868,1478.68
147955,1479.55
148041,1480.41
148133,1481.33
148230,1482.3
148325,1483.25
148419,1484.19
148514,1485.14
148608,1486.08
148696,1486.96
148788,1487.88
148882,1488.82
148971,1489.71
149065,1490.65
149158,1491.58
149246,1492.46
149340,1493.4
149441,1494.41
149539,1495.39
149632,1496.32
149728,1497.28
149819,1498.19
149904,1499.04
149994,1499.94
150087,1500.87
150180,1501.8
150282,1502.82
150387,1503.87
150487,1504.87
150585,1505.85
150687,1506.87
150790,1507.9
150881,1508.81
150974,1509.74
151058,1510.58
151136,1511.36
151215,1512.15
151314,1513.14
151402,1514.02
151499,1514.99
151600,1516.0
151700,1517.0
151796,1517.96
151895,1518.95
151991,1519.91
152081,1520.81
152164,1521.64
152247,1522.47
152329,1523.29
152409,1524.09
152486,1524.86
152578,1525.78
152681,1526.81
152781,1527.81
152885,1528.85
152989,1529.89
153083,1530.83
153168,1531.68
153246,1532.46
153333,1533.33
153421,1534.21
153497,1534.97
153575,1535.75
153658,1536.58
153737,1537.37
153814,1538.14
153893,1538.93
153975,1539.75
154063,1540.63
154151,1541.51
154237,1542.37
154322,1543.22
154402,1544.02
154480,1544.8
154554,1545.54
154625,1546.25
154693,1546.93
154759,1547.59
154824,1548.24
154890,1548.9
154957,1549.57
155037,1550.37
155089,1550.89
155142,1551.42
155209,1552.09
155297,1552.97
155385,1553.85
155467,1554.67
155550,1555.5
155629,1556.29
155718,1557.18
155815,1558.15
155908,1559.08
156004,1560.04
156101,1561.01
156194,1561.94
156287,1562.87
156372,1563.72
156460,1564.6
156552,1565.52
156642,1566.42
156737,1567.37
156836,1568.36
156937,1569.37
157035,1570.35
157140,1571.4
157244,1572.44
157339,1573.39
157435,1574.35
157531,1575.31
157622,1576.22
157711,1577.11
157798,1577.98
157879,1578.79
157952,1579.52
158030,1580.3
158138,1581.38
158247,1582.47
158332,1583.32
158412,1584.12
158488,1584.88
158565,1585.65
158647,1586.47
158736,1587.36
158818,1588.18
158896,1588.96
158977,1589.77
159061,1590.61
159149,1591.49
159240,1592.4
159333,1593.33
159429,1594.29
159526,1595.26
159623,1596.23
159721,1597.21
159818,1598.18
159909,1599.09
160007,1600.07
160107,1601.07
160206,1602.06
160294,1602.94
160390,1603.9
160495,1604.95
160605,1606.05
160713,1607.13
160815,1608.15
160913,1609.13
161013,1610.13
161111,1611.11
161204,1612.04
161300,1613.0
161397,1613.97
161482,1614.82
161564,1615.64
161651,1616.51
161740,1617.4
161823,1618.23
161903,1619.03
161987,1619.87
162082,1620.82
162173,1621.73
162270,1622.7
162369,1623.69
162467,1624.67
162562,1625.62
162658,1626.58
162755,1627.55
162847,1628.47
162934,1629.34
163028,1630.28
163128,1631.28
163227,1632.27
163324,1633.24
163425,1634.25
163521,1635.21
163605,1636.05
163686,1636.86
163768,1637.68
163851,1638.51
163935,1639.35
164014,1640.14
164091,1640.91
164166,1641.66
164243,1642.43
164326,1643.26
164428,1644.28
164530,1645.3
164617,1646.17
164700,1647.0
164785,1647.85
164871,1648.71
164954,1649.54
165038,1650.38
165123,1651.23
165210,1652.1
165297,1652.97
165390,1653.9
165484,1654.84
165579,1655.79
165665,1656.65
165753,1657.53
165840,1658.4
165928,1659.28
166008,1660.08
166088,1660.88
166166,1661.66
166241,1662.41
166314,1663.14
166387,1663.87
166460,1664.6
166533,1665.33
166612,1666.12
166700,1667.0
166790,1667.9
166881,1668.81
166968,1669.68
167053,1670.53
167135,1671.35
167215,1672.15
167295,1672.95
167377,1673.77
167459,1674.59
167543,1675.43
167631,1676.31
167721,1677.21
167811,1678.11
167896,1678.96
167974,1679.74
168049,1680.49
168121,1681.21
168190,1681.9
168259,1682.59
168343,1683.43
168428,1684.28
168513,1685.13
168598,1685.98
168690,1686.9
168784,1687.84
168867,1688.67
168951,1689.51
169037,1690.37
169124,1691.24
169205,1692.05
169281,1692.81
169354,1693.54
169424,1694.24
169493,1694.93
169561,1695.61
169630,1696.3
169701,1697.01
169772,1697.72
169843,1698.43
169916,1699.16
169994,1699.94
170072,1700.72
170147,1701.47
170236,1702.36
170303,1703.03
170376,1703.76
170427,1704.27
170476,1704.76
170519,1705.19
170603,1706.03
170681,1706.81
170754,1707.54
170826,1708.26
170899,1708.99
170969,1709.69
171041,1710.41
171112,1711.12
171183,1711.83
171254,1712.54
171322,1713.22
171389,1713.89
171458,1714.58
171527,1715.27
171596,1715.96
171667,1716.67
171737,1717.37
171807,1718.07
171879,1718.79
171952,1719.52
172024,1720.24
172098,1720.98
172174,1721.74
172252,1722.52
172329,1723.29
172408,1724.08
172485,1724.85
172560,1725.6
172635,1726.35
172710,1727.1
172784,1727.84
172856,1728.56
172929,1729.29
173010,1730.1
173090,1730.9
173169,1731.69
173247,1732.47
173321,1733.21
173390,1733.9
173460,1734.6
173533,1735.33
173607,1736.07
173674,1736.74
173740,1737.4
173808,1738.08
173877,1738.77
173950,1739.5
174027,1740.27
174104,1741.04
174180,1741.8
174257,1742.57
174331,1743.31
174405,1744.05
174483,1744.83
174569,1745.69
174648,1746.48
174726,1747.26
174809,1748.09
174889,1748.89
174962,1749.62
175034,1750.34
175105,1751.05
175175,1751.75
175247,1752.47
175321,1753.21
175402,1754.02
175480,1754.8
175557,1755.57
175630,1756.3
175701,1757.01
175772,1757.72
175845,1758.45
175924,1759.24
176015,1760.15
176107,1761.07
176192,1761.92
176277,1762.77
176367,1763.67
176460,1764.6
176549,1765.49
176634,1766.34
176723,1767.23
176813,1768.13
176904,1769.04
176992,1769.92
177089,1770.89
177187,1771.87
177278,1772.78
177369,1773.69
177456,1774.56
177537,1775.37
177617,1776.17
177696,1776.96
177778,1777.78
177863,1778.63
177954,1779.54
178043,1780.43
178125,1781.25
178210,1782.1
178296,1782.96
178382,1783.82
178465,1784.65
178551,1785.51
178637,1786.37
178719,1787.19
178805,1788.05
178890,1788.9
178975,1789.75
179058,1790.58
179143,1791.43
179229,1792.29
179310,1793.1
179400,1794.0
179489,1794.89
179576,1795.76
179661,1796.61
179750,1797.5
179840,1798.4
179926,1799.26
180016,1800.16
180105,1801.05
180194,1801.94
180280,1802.8
180370,1803.7
180455,1804.55
180536,1805.36
180619,1806.19
180704,1807.04
180789,1807.89
180881,1808.81
180971,1809.71
181061,1810.61
181156,1811.56
181249,1812.49
181338,1813.38
181426,1814.26
181510,1815.1
181593,1815.93
181679,1816.79
181763,1817.63
181846,1818.46
181934,1819.34
182018,1820.18
182097,1820.97
182176,1821.76
182255,1822.55
182330,1823.3
182404,1824.04
182478,1824.78
182553,1825.53
182632,1826.32
182712,1827.12
182791,1827.91
182870,1828.7
182954,1829.54
183039,1830.39
183120,1831.2
183199,1831.99
183283,1832.83
183366,1833.66
183447,1834.47
183533,1835.33
183620,1836.2
183703,1837.03
183794,1837.94
183888,1838.88
183976,1839.76
184066,1840.66
184156,1841.56
184240,1842.4
184328,1843.28
184418,1844.18
184513,1845.13
184605,1846.05
184703,1847.03
184801,1848.01
184892,1848.92
184987,1849.87
185083,1850.83
185176,1851.76
185267,1852.67
185362,1853.62
185454,1854.54
185545,1855.45
185635,1856.35
185727,1857.27
185814,1858.14
185902,1859.02
185992,1859.92
186083,1860.83
186173,1861.73
186264,1862.64
186362,1863.62
186462,1864.62
186557,1865.57
186644,1866.44
186734,1867.34
186827,1868.27
186921,1869.21
187011,1870.11
187102,1871.02
187200,1872.0
187286,1872.86
187366,1873.66
187451,1874.51
187544,1875.44
187634,1876.34
187728,1877.28
187823,1878.23
187921,1879.21
188011,1880.11
188100,1881.0
188192,1881.92
188287,1882.87
188378,1883.78
188479,1884.79
188581,1885.81
188676,1886.76
188764,1887.64
188852,1888.52
188940,1889.4
189025,1890.25
189115,1891.15
189213,1892.13
189313,1893.13
189408,1894.08
189508,1895.08
189606,1896.06
189697,1896.97
189789,1897.89
189883,1898.83
189981,1899.81
190074,1900.74
190171,1901.71
190269,1902.69
190365,1903.65
190458,1904.58
190553,1905.53
190652,1906.52
190746,1907.46
190842,1908.42
190939,1909.39
191036,1910.36
191131,1911.31
191226,1912.26
191322,1913.22
191415,1914.15
191501,1915.01
191588,1915.88
191670,1916.7
191748,1917.48
191825,1918.25
191908,1919.08
192002,1920.02
192100,1921.0
192201,1922.01
192303,1923.03
192398,1923.98
192494,1924.94
192589,1925.89
192684,1926.84
192773,1927.73
192865,1928.65
192962,1929.62
193056,1930.56
193153,1931.53
193252,1932.52
193351,1933.51
193446,1934.46
193533,1935.33
193616,1936.16
193696,1936.96
193778,1937.78
193866,1938.66
193959,1939.59
194051,1940.51
194141,1941.41
194220,1942.2
194296,1942.96
194370,1943.7
194448,1944.48
194530,1945.3
194616,1946.16
194697,1946.97
194778,1947.78
194862,1948.62
194944,1949.44
195021,1950.21
195096,1950.96
195174,1951.74
195255,1952.55
195334,1953.34
195421,1954.21
195511,1955.11
195602,1956.02
195687,1956.87
195775,1957.75
195865,1958.65
195961,1959.61
196058,1960.58
196155,1961.55
196252,1962.52
196351,1963.51
196444,1964.44
196543,1965.43
196646,1966.46
196744,1967.44
196834,1968.34
196930,1969.3
197024,1970.24
197115,1971.15
197209,1972.09
197305,1973.05
197394,1973.94
197487,1974.87
197584,1975.84
197677,1976.77
197773,1977.73
197871,1978.71
197962,1979.62
198056,1980.56
198156,1981.56
198251,1982.51
198339,1983.39
198432,1984.32
198525,1985.25
198626,1986.26
198729,1987.29
198830,1988.3
198924,1989.24
199020,1990.2
199116,1991.16
199213,1992.13
199306,1993.06
199397,1993.97
199482,1994.82
199561,1995.61
199637,1996.37
199716,1997.16
199796,1997.96
199894,1998.94
199985,1999.85
200080,2000.8
200177,2001.77
200271,2002.71
200368,2003.68
200463,2004.63
200558,2005.58
200649,2006.49
200744,2007.44
200843,2008.43
200941,2009.41
201040,2010.4
201143,2011.43
201248,2012.48
201347,2013.47
201447,2014.47
201546,2015.46
201641,2016.41
201732,2017.32
201826,2018.26
201917,2019.17
201998,2019.98
202077,2020.77
202160,2021.6
202246,2022.46
202336,2023.36
202430,2024.3
202528,2025.28
202626,2026.26
202719,2027.19
202813,2028.13
202909,2029.09
203000,2030.0
203096,2030.96
203196,2031.96
203297,2032.97
203392,2033.92
203488,2034.88
203587,2035.87
203684,2036.84
203779,2037.79
203876,2038.76
203972,2039.72
204065,2040.65
204159,2041.59
204260,2042.6
204360,2043.6
204452,2044.52
204549,2045.49
204642,2046.42
204731,2047.31
204826,2048.26
204920,2049.2
205013,2050.13
205103,2051.03
205195,2051.95
205300,2053.0
205406,2054.06
205505,2055.05
205602,2056.02
205698,2056.98
205792,2057.92
205882,2058.82
205976,2059.76
206075,2060.75
206176,2061.76
206278,2062.78
206380,2063.8
206479,2064.79
206567,2065.67
206658,2066.58
206751,2067.51
206846,2068.46
206939,2069.39
207039,2070.39
207143,2071.43
207241,2072.41
207338,2073.38
207438,2074.38
207538,2075.38
207631,2076.31
207726,2077.26
207822,2078.22
207919,2079.19
208012,2080.12
208110,2081.1
208210,2082.1
208306,2083.06
208399,2083.99
208485,2084.85
208563,2085.63
208642,2086.42
208727,2087.27
208814,2088.14
208910,2089.1
209008,2090.08
209101,2091.01
209190,2091.9
209284,2092.84
209380,2093.8
209468,2094.68
209558,2095.58
209651,2096.51
209741,2097.41
209831,2098.31
209930,2099.3
210032,2100.32
210129,2101.29
210230,2102.3
210331,2103.31
210425,2104.25
210519,2105.19
210613,2106.13
210704,2107.04
210795,2107.95
210888,2108.88
210980,2109.8
211077,2110.77
211175,2111.75
211272,2112.72
211365,2113.65
211459,2114.59
211554,2115.54
211645,2116.45
211741,2117.41
211840,2118.4
211931,2119.31
212024,2120.24
212117,2121.17
212208,2122.08
212306,2123.06
212406,2124.06
212498,2124.98
212591,2125.91
212685,2126.85
212776,2127.76
212860,2128.6
212940,2129.4
213023,2130.23
213102,2131.02
213181,2131.81
213259,2132.59
213333,2133.33
213411,2134.11
213489,2134.89
213550,2135.5
213611,2136.11
213684,2136.84
213757,2137.57
213833,2138.33
213910,2139.1
213970,2139.7
214030,2140.3
214097,2140.97
214164,2141.64
214229,2142.29
214292,2142.92
214355,2143.55
214416,2144.16
214479,2144.79
214545,2145.45
214645,2146.45
214744,2147.44
214836,2148.36
214925,2149.25
215009,2150.09
215103,2151.03
215205,2152.05
215304,2153.04
215403,2154.03
215496,2154.96
215590,2155.9
215679,2156.79
215775,2157.75
215872,2158.72
215965,2159.65
216064,2160.64
216163,2161.63
216254,2162.54
216341,2163.41
216428,2164.28
216511,2165.11
216598,2165.98
216680,2166.8
216766,2167.66
216870,2168.7
216974,2169.74
217075,2170.75
217176,2171.76
217274,2172.74
217366,2173.66
217460,2174.6
217561,2175.61
217664,2176.64
217762,2177.62
217863,2178.63
217970,2179.7
218074,2180.74
218171,2181.71
218262,2182.62
218351,2183.51
218444,2184.44
218537,2185.37
218624,2186.24
218702,2187.02
218777,2187.77
218852,2188.52
218933,2189.33
219018,2190.18
219111,2191.11
219212,2192.12
219313,2193.13
219407,2194.07
219503,2195.03
219603,2196.03
219704,2197.04
219799,2197.99
219896,2198.96
219993,2199.93
220086,2200.86
220179,2201.79
220280,2202.8
220381,2203.81
220479,2204.79
220582,2205.82
220687,2206.87
220787,2207.87
220887,2208.87
220986,2209.86
221081,2210.81
221175,2211.75
221271,2212.71
221367,2213.67
221460,2214.6
221557,2215.57
221651,2216.51
221743,2217.43
221837,2218.37
221931,2219.31
222023,2220.23
222113,2221.13
222206,2222.06
222298,2222.98
222391,2223.91
222492,2224.92
222600,2226.0
222707,2227.07
222814,2228.14
222920,2229.2
223022,2230.22
223125,2231.25
223228,2232.28
223329,2233.29
223431,2234.31
223535,2235.35
223636,2236.36
223739,2237.39
223844,2238.44
223944,2239.44
224041,2240.41
224141,2241.41
224243,2242.43
224340,2243.4
224428,2244.28
224509,2245.09
224597,2245.97
224701,2247.01
224802,2248.02
224904,2249.04
225009,2250.09
225113,2251.13
225212,2252.12
225311,2253.11
225406,2254.06
225495,2254.95
225587,2255.87
225688,2256.88
225792,2257.92
225897,2258.97
226007,2260.07
226115,2261.15
226217,2262.17
226321,2263.21
226422,2264.22
226513,2265.13
226606,2266.06
226704,2267.04
226807,2268.07
226915,2269.15
227025,2270.25
227130,2271.3
227233,2272.33
227336,2273.36
227437,2274.37
227531,2275.31
227629,2276.29
227730,2277.3
227828,2278.28
227930,2279.3
228035,2280.35
228139,2281.39
228238,2282.38
228336,2283.36
228434,2284.34
228530,2285.3
228626,2286.26
228724,2287.24
228817,2288.17
228900,2289.0
228979,2289.79
229061,2290.61
229153,2291.53
229244,2292.44
229337,2293.37
229422,2294.22
229504,2295.04
229582,2295.82
229659,2296.59
229735,2297.35
229811,2298.11
229885,2298.85
229960,2299.6
230037,2300.37
230110,2301.1
230182,2301.82
230252,2302.52
230323,2303.23
230398,2303.98
230476,2304.76
230558,2305.58
230657,2306.57
230756,2307.56
230848,2308.48
230938,2309.38
231030,2310.3
231121,2311.21
231206,2312.06
231296,2312.96
231393,2313.93
231485,2314.85
231575,2315.75
231672,2316.72
231773,2317.73
231867,2318.67
231962,2319.62
232060,2320.6
232152,2321.52
232245,2322.45
232341,2323.41
232435,2324.35
232532,2325.32
232634,2326.34
232731,2327.31
232822,2328.22
232915,2329.15
233011,2330.11
233101,2331.01
233198,2331.98
233297,2332.97
233390,2333.9
233483,2334.83
233579,2335.79
233674,2336.74
233764,2337.64
233856,2338.56
233943,2339.43
234022,2340.22
234099,2340.99
234188,2341.88
234288,2342.88
234386,2343.86
234488,2344.88
234593,2345.93
234689,2346.89
234788,2347.88
234886,2348.86
234979,2349.79
235070,2350.7
235165,2351.65
235261,2352.61
235355,2353.55
235444,2354.44
235532,2355.32
235621,2356.21
235710,2357.1
235797,2357.97
235884,2358.84
235969,2359.69
236048,2360.48
236128,2361.28
236208,2362.08
236289,2362.89
236366,2363.66
236440,2364.4
236515,2365.15
236588,2365.88
236662,2366.62
236737,2367.37
236810,2368.1
236881,2368.81
236952,2369.52
237013,2370.13
237074,2370.74
237133,2371.33
237192,2371.92
237276,2372.76
237369,2373.69
237454,2374.54
237548,2375.48
237631,2376.31
237713,2377.13
237803,2378.03
237895,2378.95
237977,2379.77
238059,2380.59
238148,2381.48
238224,2382.24
238293,2382.93
238363,2383.63
238443,2384.43
238513,2385.13
238582,2385.82
238653,2386.53
238725,2387.25
238803,2388.03
238885,2388.85
238964,2389.64
239047,2390.47
239131,2391.31
239212,2392.12
239292,2392.92
239375,2393.75
239453,2394.53
239531,2395.31
239610,2396.1
239691,2396.91
239772,2397.72
239855,2398.55
239938,2399.38
240018,2400.18
240100,2401.0
240180,2401.8
240262,2402.62
240342,2403.42
240422,2404.22
240500,2405.0
240580,2405.8
240663,2406.63
240751,2407.51
240843,2408.43
240920,2409.2
240997,2409.97
241095,2410.95
241186,2411.86
241274,2412.74
241364,2413.64
241455,2414.55
241543,2415.43
241628,2416.28
241716,2417.16
241807,2418.07
241898,2418.98
241983,2419.83
242073,2420.73
242163,2421.63
242250,2422.5
242338,2423.38
242420,2424.2
242497,2424.97
242572,2425.72
242648,2426.48
242731,2427.31
242814,2428.14
242906,2429.06
242999,2429.99
243087,2430.87
243178,2431.78
243269,2432.69
243354,2433.54
243442,2434.42
243537,2435.37
243628,2436.28
243727,2437.27
243828,2438.28
243929,2439.29
244028,2440.28
244125,2441.25
244220,2442.2
244305,2443.05
244393,2443.93
244484,2444.84
244574,2445.74
244673,2446.73
244775,2447.75
244873,2448.73
244969,2449.69
245069,2450.69
245168,2451.68
245262,2452.62
245359,2453.59
245457,2454.57
245553,2455.53
245654,2456.54
245758,2457.58
245858,2458.58
245956,2459.56
246055,2460.55
246153,2461.53
246245,2462.45
246343,2463.43
246442,2464.42
246540,2465.4
246636,2466.36
246733,2467.33
246829,2468.29
246917,2469.17
247012,2470.12
247109,2471.09
247202,2472.02
247302,2473.02
247399,2473.99
247488,2474.88
247582,2475.82
247668,2476.68
247747,2477.47
247823,2478.23
247901,2479.01
247983,2479.83
248068,2480.68
248156,2481.56
248251,2482.51
248336,2483.36
248416,2484.16
248499,2484.99
248583,2485.83
248670,2486.7
248761,2487.61
248851,2488.51
248937,2489.37
249026,2490.26
249117,2491.17
249210,2492.1
249299,2492.99
249395,2493.95
249493,2494.93
249589,2495.89
249685,2496.85
249781,2497.81
249873,2498.73
249957,2499.57
250044,2500.44
250140,2501.4
250233,2502.33
250334,2503.34
250440,2504.4
250540,2505.4
250639,2506.39
250734,2507.34
250828,2508.28
250919,2509.19
251020,2510.2
251123,2511.23
251210,2512.1
251290,2512.9
251373,2513.73
251474,2514.74
251566,2515.66
251653,2516.53
251733,2517.33
251818,2518.18
251918,2519.18
252015,2520.15
252117,2521.17
252222,2522.22
252329,2523.29
252428,2524.28
252530,2525.3
252633,2526.33
252730,2527.3
252827,2528.27
252926,2529.26
253024,2530.24
253115,2531.15
253204,2532.04
253295,2532.95
253398,2533.98
253508,2535.08
253615,2536.15
253718,2537.18
253818,2538.18
253914,2539.14
254005,2540.05
254109,2541.09
254219,2542.19
254327,2543.27
254431,2544.31
254533,2545.33
254632,2546.32
254726,2547.26
254830,2548.3
254935,2549.35
255038,2550.38
255131,2551.31
255222,2552.22
255314,2553.14
255399,2553.99
255490,2554.9
255584,2555.84
255687,2556.87
255783,2557.83
255881,2558.81
255966,2559.66
256048,2560.48
256141,2561.41
256234,2562.34
256335,2563.35
256439,2564.39
256534,2565.34
256631,2566.31
256723,2567.23
256812,2568.12
256898,2568.98
256991,2569.91
257088,2570.88
257183,2571.83
257274,2572.74
257371,2573.71
257468,2574.68
257557,2575.57
257650,2576.5
257745,2577.45
257839,2578.39
257928,2579.28
258030,2580.3
258132,2581.32
258228,2582.28
258327,2583.27
258424,2584.24
258514,2585.14
258611,2586.11
258709,2587.09
258801,2588.01
258896,2588.96
258996,2589.96
259100,2591.0
259196,2591.96
259293,2592.93
259390,2593.9
259482,2594.82
259576,2595.76
259671,2596.71
259762,2597.62
259861,2598.61
259961,2599.61
260054,2600.54
260149,2601.49
260246,2602.46
260340,2603.4
260432,2604.32
260525,2605.25
260621,2606.21
260714,2607.14
260812,2608.12
260909,2609.09
261004,2610.04
261102,2611.02
261199,2611.99
261292,2612.92
261387,2613.87
261483,2614.83
261579,2615.79
261670,2616.7
261762,2617.62
261855,2618.55
261941,2619.41
262033,2620.33
262127,2621.27
262222,2622.22
262312,2623.12
262411,2624.11
262513,2625.13
262605,2626.05
262696,2626.96
262786,2627.86
262876,2628.76
262961,2629.61
263052,2630.52
263148,2631.48
263237,2632.37
263328,2633.28
263426,2634.26
263522,2635.22
263609,2636.09
263701,2637.01
263793,2637.93
263882,2638.82
263972,2639.72
264067,2640.67
264157,2641.57
264249,2642.49
264338,2643.38
264426,2644.26
264511,2645.11
264600,2646.0
264690,2646.9
264777,2647.77
264867,2648.67
264947,2649.47
265023,2650.23
265102,2651.02
265186,2651.86
265272,2652.72
265367,2653.67
265463,2654.63
265552,2655.52
265641,2656.41
265732,2657.32
265822,2658.22
265909,2659.09
266001,2660.01
266095,2660.95
266186,2661.86
266273,2662.73
266365,2663.65
266463,2664.63
266560,2665.6
266649,2666.49
266744,2667.44
266843,2668.43
266937,2669.37
267033,2670.33
267136,2671.36
267238,2672.38
267332,2673.32
267427,2674.27
267523,2675.23
267615,2676.15
267701,2677.01
267790,2677.9
267882,2678.82
267971,2679.71
268067,2680.67
268166,2681.66
268260,2682.6
268357,2683.57
268455,2684.55
268550,2685.5
268637,2686.37
268727,2687.27
268819,2688.19
268908,2689.08
269001,2690.01
269105,2691.05
269210,2692.1
269299,2692.99
269394,2693.94
269494,2694.94
269585,2695.85
269677,2696.77
269773,2697.73
269868,2698.68
269955,2699.55
270042,2700.42
270128,2701.28
270214,2702.14
270299,2702.99
270396,2703.96
270495,2704.95
270592,2705.92
270690,2706.9
270787,2707.87
270873,2708.73
270956,2709.56
271033,2710.33
271107,2711.07
271186,2711.86
271289,2712.89
271380,2713.8
271479,2714.79
271580,2715.8
271675,2716.75
271771,2717.71
271867,2718.67
271955,2719.55
272047,2720.47
272142,2721.42
272235,2722.35
272320,2723.2
272410,2724.1
272507,2725.07
272601,2726.01
272694,2726.94
272794,2727.94
272895,2728.95
272992,2729.92
273094,2730.94
273195,2731.95
273289,2732.89
273383,2733.83
273476,2734.76
273570,2735.7
273662,2736.62
273761,2737.61
273863,2738.63
273962,2739.62
274073,2740.73
274186,2741.86
274294,2742.94
274399,2743.99
274504,2745.04
274609,2746.09
274708,2747.08
274810,2748.1
274913,2749.13
275013,2750.13
275112,2751.12
275210,2752.1
275305,2753.05
275393,2753.93
275486,2754.86
275582,2755.82
275676,2756.76
275774,2757.74
275877,2758.77
275977,2759.77
276071,2760.71
276168,2761.68
276260,2762.6
276350,2763.5
276442,2764.42
276525,2765.25
276603,2766.03
276678,2766.78
276760,2767.6
276843,2768.43
276940,2769.4
277036,2770.36
277132,2771.32
277237,2772.37
277339,2773.39
277435,2774.35
277532,2775.32
277630,2776.3
277721,2777.21
277819,2778.19
277921,2779.21
278018,2780.18
278115,2781.15
278213,2782.13
278309,2783.09
278402,2784.02
278495,2784.95
278588,2785.88
278676,2786.76
278769,2787.69
278865,2788.65
278964,2789.64
279065,2790.65
279172,2791.72
279277,2792.77
279381,2793.81
279486,2794.86
279590,2795.9
279686,2796.86
279779,2797.79
279878,2798.78
279976,2799.76
280073,2800.73
280168,2801.68
280259,2802.59
280350,2803.5
280443,2804.43
280536,2805.36
280624,2806.24
280715,2807.15
280811,2808.11
280909,2809.09
281007,2810.07
281113,2811.13
281221,2812.21
281324,2813.24
281421,2814.21
281518,2815.18
281620,2816.2
281724,2817.24
281821,2818.21
281922,2819.22
282025,2820.25
282132,2821.32
282233,2822.33
282336,2823.36
282442,2824.42
282549,2825.49
282652,2826.52
282753,2827.53
282859,2828.59
282963,2829.63
283063,2830.63
283157,2831.57
283250,2832.5
283345,2833.45
283439,2834.39
283546,2835.46
283647,2836.47
283749,2837.49
283854,2838.54
283957,2839.57
284054,2840.54
284155,2841.55
284255,2842.55
284347,2843.47
284446,2844.46
284544,2845.44
284639,2846.39
284730,2847.3
284829,2848.29
284927,2849.27
285015,2850.15
285106,2851.06
285188,2851.88
285266,2852.66
285355,2853.55
285458,2854.58
285559,2855.59
285661,2856.61
285760,2857.6
285852,2858.52
285946,2859.46
286040,2860.4
286129,2861.29
286223,2862.23
286318,2863.18
286411,2864.11
286503,2865.03
286602,2866.02
286703,2867.03
286796,2867.96
286891,2868.91
286989,2869.89
287084,2870.84
287175,2871.75
287268,2872.68
287361,2873.61
287448,2874.48
287538,2875.38
287634,2876.34
287736,2877.36
287831,2878.31
287926,2879.26
288022,2880.22
288113,2881.13
288202,2882.02
288294,2882.94
288391,2883.91
288485,2884.85
288585,2885.85
288686,2886.86
288781,2887.81
288881,2888.81
288983,2889.83
289080,2890.8
289169,2891.69
289265,2892.65
289366,2893.66
289461,2894.61
289562,2895.62
289667,2896.67
289772,2897.72
289871,2898.71
289974,2899.74
290076,2900.76
290172,2901.72
290262,2902.62
290352,2903.52
290435,2904.35
290512,2905.12
290589,2905.89
290677,2906.77
290778,2907.78
290875,2908.75
290974,2909.74
291073,2910.73
291166,2911.66
291255,2912.55
291342,2913.42
291429,2914.29
291521,2915.21
291609,2916.09
291699,2916.99
291807,2918.07
291916,2919.16
292010,2920.1
292099,2920.99
292184,2921.84
292269,2922.69
292358,2923.58
292460,2924.6
292569,2925.69
292675,2926.75
292773,2927.73
292871,2928.71
292965,2929.65
293054,2930.54
293149,2931.49
293243,2932.43
293339,2933.39
293429,2934.29
293527,2935.27
293627,2936.27
293724,2937.24
293819,2938.19
293922,2939.22
294025,2940.25
294118,2941.18
294216,2942.16
294315,2943.15
294412,2944.12
294502,2945.02
294597,2945.97
294698,2946.98
294796,2947.96
294891,2948.91
294993,2949.93
295096,2950.96
295190,2951.9
295286,2952.86
295380,2953.8
295472,2954.72
295567,2955.67
295666,2956.66
295770,2957.7
295871,2958.71
295977,2959.77
296082,2960.82
296178,2961.78
296273,2962.73
296367,2963.67
296461,2964.61
296549,2965.49
296644,2966.44
296739,2967.39
296830,2968.3
296927,2969.27
297026,2970.26
297125,2971.25
297215,2972.15
297305,2973.05
297396,2973.96
297491,2974.91
297581,2975.81
297678,2976.78
297774,2977.74
297863,2978.63
297951,2979.51
298042,2980.42
298134,2981.34
298221,2982.21
298313,2983.13
298397,2983.97
298475,2984.75
298556,2985.56
298643,2986.43
298732,2987.32
298827,2988.27
298924,2989.24
299019,2990.19
299109,2991.09
299202,2992.02
299293,2992.93
299380,2993.8
299471,2994.71
299564,2995.64
299657,2996.57
299751,2997.51
299851,2998.51
299952,2999.52
300048,3000.48
300148,3001.48
300249,3002.49
300347,3003.47
300443,3004.43
300541,3005.41
300641,3006.41
300737,3007.37
300833,3008.33
300930,3009.3
301028,3010.28
301122,3011.22
301209,3012.09
301290,3012.9
301388,3013.88
301493,3014.93
301598,3015.98
301692,3016.92
301776,3017.76
301860,3018.6
301953,3019.53
302051,3020.51
302146,3021.46
302249,3022.49
302352,3023.52
302454,3024.54
302549,3025.49
302647,3026.47
302749,3027.49
302850,3028.5
302949,3029.49
303051,3030.51
303152,3031.52
303254,3032.54
303351,3033.51
303450,3034.5
303547,3035.47
303646,3036.46
303742,3037.42
303840,3038.4
303940,3039.4
304030,3040.3
304118,3041.18
304209,3042.09
304297,3042.97
304389,3043.89
304476,3044.76
304565,3045.65
304655,3046.55
304740,3047.4
304822,3048.22
304902,3049.02
304979,3049.79
305055,3050.55
305127,3051.27
305199,3051.99
305269,3052.69
305338,3053.38
305405,3054.05
305472,3054.72
305536,3055.36
305601,3056.01
305665,3056.65
305728,3057.28
305789,3057.89
305850,3058.5
305941,3059.41
306032,3060.32
306108,3061.08
306184,3061.84
306270,3062.7
306349,3063.49
306434,3064.34
306556,3065.56
306671,3066.71
306782,3067.82
306841,3068.41
306901,3069.01
306970,3069.7
307049,3070.49
307125,3071.25
307200,3072.0
307274,3072.74
307350,3073.5
307423,3074.23
307495,3074.95
307566,3075.66
307634,3076.34
307703,3077.03
307785,3077.85
307868,3078.68
307944,3079.44
308035,3080.35
308127,3081.27
308216,3082.16
308297,3082.97
308374,3083.74
308447,3084.47
308518,3085.18
308590,3085.9
308658,3086.58
308727,3087.27
308805,3088.05
308876,3088.76
308947,3089.47
309017,3090.17
309087,3090.87
309159,3091.59
309237,3092.37
309319,3093.19
309398,3093.98
309479,3094.79
309566,3095.66
309655,3096.55
309740,3097.4
309815,3098.15
309891,3098.91
309965,3099.65
310037,3100.37
310108,3101.08
310181,3101.81
310258,3102.58
310334,3103.34
310413,3104.13
310502,3105.02
310584,3105.84
310665,3106.65
310743,3107.43
310818,3108.18
310890,3108.9
310959,3109.59
311027,3110.27
311096,3110.96
311165,3111.65
311236,3112.36
311308,3113.08
311385,3113.85
311462,3114.62
311539,3115.39
311615,3116.15
311698,3116.98
311779,3117.79
311857,3118.57
311938,3119.38
312022,3120.22
312110,3121.1
312189,3121.89
312266,3122.66
312340,3123.4
312413,3124.13
312495,3124.95
312583,3125.83
312673,3126.73
312774,3127.74
312876,3128.76
312965,3129.65
313053,3130.53
313139,3131.39
313227,3132.27
313313,3133.13
313402,3134.02
313505,3135.05
313611,3136.11
313707,3137.07
313805,3138.05
313899,3138.99
313984,3139.84
314065,3140.65
314156,3141.56
314253,3142.53
314350,3143.5
314441,3144.41
314538,3145.38
314636,3146.36
314725,3147.25
314817,3148.17
314907,3149.07
314994,3149.94
315078,3150.78
315168,3151.68
315261,3152.61
315349,3153.49
315439,3154.39
315528,3155.28
315617,3156.17
315703,3157.03
315800,3158.0
315901,3159.01
315998,3159.98
316087,3160.87
316178,3161.78
316268,3162.68
316352,3163.52
316443,3164.43
316538,3165.38
316637,3166.37
316730,3167.3
316826,3168.26
316924,3169.24
317015,3170.15
317109,3171.09
317204,3172.04
317301,3173.01
317390,3173.9
317486,3174.86
317581,3175.81
317669,3176.69
317763,3177.63
317863,3178.63
317960,3179.6
318053,3180.53
318148,3181.48
318243,3182.43
318334,3183.34
318431,3184.31
318533,3185.33
318631,3186.31
318732,3187.32
318838,3188.38
318940,3189.4
319035,3190.35
319129,3191.29
319226,3192.26
319323,3193.23
319414,3194.14
319508,3195.08
319606,3196.06
319707,3197.07
319804,3198.04
319907,3199.07
320014,3200.14
320115,3201.15
320208,3202.08
320301,3203.01
320398,3203.98
320495,3204.95
320589,3205.89
320692,3206.92
320795,3207.95
320892,3208.92
320992,3209.92
321088,3210.88
321177,3211.77
321259,3212.59
321345,3213.45
321434,3214.34
321514,3215.14
321592,3215.92
321679,3216.79
321774,3217.74
321864,3218.64
321959,3219.59
322051,3220.51
322134,3221.34
322217,3222.17
322302,3223.02
322390,3223.9
322480,3224.8
322586,3225.86
322692,3226.92
322789,3227.89
322885,3228.85
322979,3229.79
323071,3230.71
323158,3231.58
323252,3232.52
323350,3233.5
323444,3234.44
323544,3235.44
323645,3236.45
323742,3237.42
323830,3238.3
323926,3239.26
324027,3240.27
324120,3241.2
324215,3242.15
324309,3243.09
324399,3243.99
324487,3244.87
324583,3245.83
324680,3246.8
324767,3247.67
324853,3248.53
324939,3249.39
325026,3250.26
325114,3251.14
325195,3251.95
325275,3252.75
325352,3253.52
325425,3254.25
325495,3254.95
325566,3255.66
325637,3256.37
325706,3257.06
325778,3257.78
325849,3258.49
325921,3259.21
325996,3259.96
326075,3260.75
326154,3261.54
326229,3262.29
326309,3263.09
326397,3263.97
326484,3264.84
326577,3265.77
326668,3266.68
326760,3267.6
326846,3268.46
326934,3269.34
327024,3270.24
327113,3271.13
327198,3271.98
327290,3272.9
327390,3273.9
327490,3274.9
327586,3275.86
327687,3276.87
327789,3277.89
327882,3278.82
327980,3279.8
328078,3280.78
328173,3281.73
328268,3282.68
328368,3283.68
328469,3284.69
328566,3285.66
328668,3286.68
328773,3287.73
328875,3288.75
328971,3289.71
329073,3290.73
329178,3291.78
329276,3292.76
329376,3293.76
329476,3294.76
329573,3295.73
329664,3296.64
329759,3297.59
329856,3298.56
329953,3299.53
330046,3300.46
330145,3301.45
330250,3302.5
330348,3303.48
330445,3304.45
330541,3305.41
330635,3306.35
330726,3307.26
330818,3308.18
330911,3309.11
331001,3310.01
331094,3310.94
331188,3311.88
331282,3312.82
331374,3313.74
331462,3314.62
331542,3315.42
331617,3316.17
331695,3316.95
331781,3317.81
331868,3318.68
331969,3319.69
332071,3320.71
332169,3321.69
332268,3322.68
332366,3323.66
332462,3324.62
332552,3325.52
332641,3326.41
332731,3327.31
332819,3328.19
332919,3329.19
333021,3330.21
333121,3331.21
333225,3332.25
333330,3333.3
333433,3334.33
333531,3335.31
333630,3336.3
333729,3337.29
333822,3338.22
333920,3339.2
334022,3340.22
334125,3341.25
334223,3342.23
334325,3343.25
334429,3344.29
334531,3345.31
334628,3346.28
334726,3347.26
334826,3348.26
334921,3349.21
335018,3350.18
335117,3351.17
335212,3352.12
335311,3353.11
335416,3354.16
335520,3355.2
335620,3356.2
335722,3357.22
335823,3358.23
335916,3359.16
336008,3360.08
336100,3361.0
336188,3361.88
336278,3362.78
336373,3363.73
336474,3364.74
336568,3365.68
336668,3366.68
336767,3367.67
336859,3368.59
336948,3369.48
337040,3370.4
337132,3371.32
337226,3372.26
337341,3373.41
337451,3374.51
337556,3375.56
337655,3376.55
337752,3377.52
337845,3378.45
337936,3379.36
338024,3380.24
338117,3381.17
338212,3382.12
338305,3383.05
338394,3383.94
338488,3384.88
338583,3385.83
338675,3386.75
338756,3387.56
338837,3388.37
338914,3389.14
338989,3389.89
339078,3390.78
339184,3391.84
339285,3392.85
339395,3393.95
339504,3395.04
339604,3396.04
339703,3397.03
339800,3398.0
339895,3398.95
339986,3399.86
340086,3400.86
340194,3401.94
340297,3402.97
340396,3403.96
340498,3404.98
340598,3405.98
340684,3406.84
340764,3407.64
340846,3408.46
340931,3409.31
341027,3410.27
341114,3411.14
341210,3412.1
341307,3413.07
341408,3414.08
341498,3414.98
341586,3415.86
341675,3416.75
341771,3417.71
341869,3418.69
341969,3419.69
342058,3420.58
342147,3421.47
342236,3422.36
342328,3423.28
342424,3424.24
342520,3425.2
342611,3426.11
342692,3426.92
342770,3427.7
342849,3428.49
342930,3429.3
343014,3430.14
343099,3430.99
343183,3431.83
343270,3432.7
343350,3433.5
343426,3434.26
343498,3434.98
343576,3435.76
343674,3436.74
343772,3437.72
343855,3438.55
343934,3439.34
344015,3440.15
344101,3441.01
344191,3441.91
344280,3442.8
344366,3443.66
344455,3444.55
344543,3445.43
344628,3446.28
344709,3447.09
344794,3447.94
344884,3448.84
344978,3449.78
345073,3450.73
345173,3451.73
345276,3452.76
345379,3453.79
345476,3454.76
345572,3455.72
345667,3456.67
345756,3457.56
345845,3458.45
345934,3459.34
346024,3460.24
346109,3461.09
346198,3461.98
346297,3462.97
346390,3463.9
346484,3464.84
346577,3465.77
346671,3466.71
346760,3467.6
346841,3468.41
346923,3469.23
347004,3470.04
347081,3470.81
347161,3471.61
347246,3472.46
347334,3473.34
347421,3474.21
347512,3475.12
347603,3476.03
347694,3476.94
347781,3477.81
347872,3478.72
347971,3479.71
348068,3480.68
348157,3481.57
348254,3482.54
348353,3483.53
348452,3484.52
348544,3485.44
348646,3486.46
348748,3487.48
348841,3488.41
348934,3489.34
349031,3490.31
349128,3491.28
349217,3492.17
349316,3493.16
349417,3494.17
349514,3495.14
349611,3496.11
349710,3497.1
349807,3498.07
349902,3499.02
350003,3500.03
350105,3501.05
350204,3502.04
350304,3503.04
350403,3504.03
350496,3504.96
350591,3505.91
350687,3506.87
350781,3507.81
350876,3508.76
350978,3509.78
351080,3510.8
351182,3511.82
351290,3512.9
351398,3513.98
351500,3515.0
351601,3516.01
351700,3517.0
351793,3517.93
351887,3518.87
351987,3519.87
352088,3520.88
352188,3521.88
352292,3522.92
352395,3523.95
352490,3524.9
352584,3525.84
352678,3526.78
352775,3527.75
352872,3528.72
352972,3529.72
353077,3530.77
353179,3531.79
353279,3532.79
353380,3533.8
353478,3534.78
353567,3535.67
353647,3536.47
353724,3537.24
353811,3538.11
353913,3539.13
354009,3540.09
354109,3541.09
354212,3542.12
354312,3543.12
354410,3544.1
354506,3545.06
354601,3546.01
354692,3546.92
354788,3547.88
354886,3548.86
354986,3549.86
355081,3550.81
355181,3551.81
355282,3552.82
355378,3553.78
355478,3554.78
355580,3555.8
355679,3556.79
355778,3557.78
355879,3558.79
355978,3559.78
356074,3560.74
356171,3561.71
356268,3562.68
356361,3563.61
356457,3564.57
356551,3565.51
356638,3566.38
356720,3567.2
356811,3568.11
356909,3569.09
357007,3570.07
357110,3571.1
357213,3572.13
357308,3573.08
357401,3574.01
357492,3574.92
357586,3575.86
357677,3576.77
357774,3577.74
357872,3578.72
357974,3579.74
358070,3580.7
358171,3581.71
358271,3582.71
358367,3583.67
358463,3584.63
358564,3585.64
358666,3586.66
358766,3587.66
358866,3588.66
358965,3589.65
359063,3590.63
359158,3591.58
359257,3592.57
359356,3593.56
359450,3594.5
359545,3595.45
359638,3596.38
359729,3597.29
359815,3598.15
359907,3599.07
360001,3600.01
360094,3600.94
360190,3601.9
360290,3602.9
360385,3603.85
360476,3604.76
360571,3605.71
360667,3606.67
360758,3607.58
360852,3608.52
360949,3609.49
361049,3610.49
361146,3611.46
361244,3612.44
361342,3613.42
361436,3614.36
361537,3615.37
361638,3616.38
361732,3617.32
361830,3618.3
361930,3619.3
362028,3620.28
362121,3621.21
362215,3622.15
362311,3623.11
362407,3624.07
362501,3625.01
362605,3626.05
362713,3627.13
362819,3628.19
362923,3629.23
363026,3630.26
363125,3631.25
363217,3632.17
363311,3633.11
363407,3634.07
363504,3635.04
363598,3635.98
363697,3636.97
363798,3637.98
363888,3638.88
363972,3639.72
364061,3640.61
364150,3641.5
364243,3642.43
364337,3643.37
364426,3644.26
364511,3645.11
364599,3645.99
364693,3646.93
364792,3647.92
364889,3648.89
364992,3649.92
365094,3650.94
365191,3651.91
365286,3652.86
365383,3653.83
365480,3654.8
365572,3655.72
365673,3656.73
365778,3657.78
365883,3658.83
365984,3659.84
366083,3660.83
366181,3661.81
366273,3662.73
366369,3663.69
366473,3664.73
366578,3665.78
366679,3666.79
366786,3667.86
366894,3668.94
366996,3669.96
367099,3670.99
367201,3672.01
367300,3673.0
367400,3674.0
367498,3674.98
367592,3675.92
367682,3676.82
367779,3677.79
367890,3678.9
367997,3679.97
368108,3681.08
368219,3682.19
368324,3683.24
368425,3684.25
368521,3685.21
368609,3686.09
368691,3686.91
368778,3687.78
368876,3688.76
368977,3689.77
369074,3690.74
369179,3691.79
369284,3692.84
369383,3693.83
369478,3694.78
369573,3695.73
369666,3696.66
369754,3697.54
369845,3698.45
369941,3699.41
370039,3700.39
370128,3701.28
370219,3702.19
370307,3703.07
370387,3703.87
370464,3704.64
370548,3705.48
370640,3706.4
370732,3707.32
370833,3708.33
370936,3709.36
371034,3710.34
371128,3711.28
371225,3712.25
371325,3713.25
371421,3714.21
371523,3715.23
371629,3716.29
371733,3717.33
371832,3718.32
371934,3719.34
372036,3720.36
372132,3721.32
372230,3722.3
372334,3723.34
372442,3724.42
372546,3725.46
372653,3726.53
372760,3727.6
372864,3728.64
372961,3729.61
373058,3730.58
373157,3731.57
373249,3732.49
373344,3733.44
373444,3734.44
373545,3735.45
373646,3736.46
373758,3737.58
373873,3738.73
373981,3739.81
374090,3740.9
374193,3741.93
374290,3742.9
374387,3743.87
374488,3744.88
374592,3745.92
374692,3746.92
374794,3747.94
374895,3748.95
374992,3749.92
375092,3750.92
375190,3751.9
375282,3752.82
375370,3753.7
375451,3754.51
375525,3755.25
375612,3756.12
375710,3757.1
375808,3758.08
375900,3759.0
375990,3759.9
376075,3760.75
376193,3761.93
376252,3762.52
376312,3763.12
376387,3763.87
376459,3764.59
376531,3765.31
376601,3766.01
376671,3766.71
376740,3767.4
376809,3768.09
376877,3768.77
376945,3769.45
377013,3770.13
377170,3771.7
377327,3773.27
377406,3774.06
377490,3774.9
377572,3775.72
377646,3776.46
377720,3777.2
377794,3777.94
377868,3778.68
377941,3779.41
377986,3779.86
378082,3780.82
378178,3781.78
378261,3782.61
378356,3783.56
378467,3784.67
378514,3785.14
378562,3785.62
378719,3787.19
378876,3788.76
378954,3789.54
379024,3790.24
379122,3791.22
379206,3792.06
379289,3792.89
379368,3793.68
379444,3794.44
379482,3794.82
379520,3795.2
379579,3795.79
379665,3796.65
379736,3797.36
379807,3798.07
379881,3798.81
379959,3799.59
380038,3800.38
380119,3801.19
380212,3802.12
380309,3803.09
380403,3804.03
380497,3804.97
380592,3805.92
380684,3806.84
380770,3807.7
380856,3808.56
380943,3809.43
381035,3810.35
381123,3811.23
381219,3812.19
381319,3813.19
381414,3814.14
381505,3815.05
381596,3815.96
381681,3816.81
381762,3817.62
381845,3818.45
381926,3819.26
382003,3820.03
382077,3820.77
382152,3821.52
382232,3822.32
382318,3823.18
382412,3824.12
382507,3825.07
382596,3825.96
382689,3826.89
382783,3827.83
382876,3828.76
382964,3829.64
383056,3830.56
383150,3831.5
383238,3832.38
383326,3833.26
383413,3834.13
383500,3835.0
383583,3835.83
383670,3836.7
383757,3837.57
383844,3838.44
383924,3839.24
384002,3840.02
384087,3840.87
384174,3841.74
384269,3842.69
384367,3843.67
384462,3844.62
384550,3845.5
384636,3846.36
384728,3847.28
384829,3848.29
384925,3849.25
385030,3850.3
385137,3851.37
385238,3852.38
385343,3853.43
385449,3854.49
385553,3855.53
385655,3856.55
385759,3857.59
385861,3858.61
385958,3859.58
386061,3860.61
386163,3861.63
386261,3862.61
386361,3863.61
386463,3864.63
386563,3865.63
386660,3866.6
386760,3867.6
386864,3868.64
386961,3869.61
387058,3870.58
387156,3871.56
387256,3872.56
387353,3873.53
387458,3874.58
387565,3875.65
387667,3876.67
387775,3877.75
387881,3878.81
387980,3879.8
388080,3880.8
388181,3881.81
388279,3882.79
388378,3883.78
388481,3884.81
388579,3885.79
388671,3886.71
388766,3887.66
388864,3888.64
388955,3889.55
389047,3890.47
389150,3891.5
389251,3892.51
389351,3893.51
389457,3894.57
389565,3895.65
389670,3896.7
389772,3897.72
389874,3898.74
389973,3899.73
390066,3900.66
390161,3901.61
390259,3902.59
390356,3903.56
390453,3904.53
390554,3905.54
390652,3906.52
390747,3907.47
390844,3908.44
390945,3909.45
391039,3910.39
391139,3911.39
391239,3912.39
391341,3913.41
391441,3914.41
391545,3915.45
391650,3916.5
391750,3917.5
391852,3918.52
391953,3919.53
392045,3920.45
392127,3921.27
392206,3922.06
392287,3922.87
392377,3923.77
392478,3924.78
392580,3925.8
392674,3926.74
392763,3927.63
392848,3928.48
392935,3929.35
393008,3930.08
393097,3930.97
393187,3931.87
393250,3932.5
393335,3933.35
393421,3934.21
393497,3934.97
393571,3935.71
393646,3936.46
393726,3937.26
393810,3938.1
393906,3939.06
394006,3940.06
394087,3940.87
394172,3941.72
394271,3942.71
394360,3943.6
394448,3944.48
394541,3945.41
394631,3946.31
394720,3947.2
394839,3948.39
394940,3949.4
395043,3950.43
395131,3951.31
395230,3952.3
395335,3953.35
395420,3954.2
395522,3955.22
395632,3956.32
395727,3957.27
395838,3958.38
395949,3959.49
396050,3960.5
396150,3961.5
396246,3962.46
396331,3963.31
396415,3964.15
396503,3965.03
396602,3966.02
396680,3966.8
396780,3967.8
396892,3968.92
396989,3969.89
397083,3970.83
397185,3971.85
397274,3972.74
397388,3973.88
397492,3974.92
397598,3975.98
397701,3977.01
397803,3978.03
397906,3979.06
398006,3980.06
398094,3980.94
398182,3981.82
398283,3982.83
398385,3983.85
398487,3984.87
398593,3985.93
398699,3986.99
398795,3987.95
398886,3988.86
398977,3989.77
399071,3990.71
399166,3991.66
399257,3992.57
399342,3993.42
399422,3994.22
399500,3995.0
399575,3995.75
399650,3996.5
399718,3997.18
399790,3997.9
399864,3998.64
399939,3999.39
400046,4000.46
400142,4001.42
400237,4002.37
400330,4003.3
400415,4004.15
400494,4004.94
400573,4005.73
400650,4006.5
400727,4007.27
400806,4008.06
400887,4008.87
400967,4009.67
401045,4010.45
401131,4011.31
401217,4012.17
401321,4013.21
401412,4014.12
401505,4015.05
401600,4016.0
401689,4016.89
401785,4017.85
401885,4018.85
401984,4019.84
402076,4020.76
402169,4021.69
402263,4022.63
402357,4023.57
402442,4024.42
402532,4025.32
402624,4026.24
402716,4027.16
402803,4028.03
402902,4029.02
403004,4030.04
403105,4031.05
403203,4032.03
403305,4033.05
403410,4034.1
403504,4035.04
403603,4036.03
403703,4037.03
403794,4037.94
403885,4038.85
403986,4039.86
404084,4040.84
404179,4041.79
404281,4042.81
404383,4043.83
404479,4044.79
404575,4045.75
404668,4046.68
404753,4047.53
404839,4048.39
404923,4049.23
405003,4050.03
405080,4050.8
405157,4051.57
405231,4052.31
405309,4053.09
405395,4053.95
405468,4054.68
405566,4055.66
405664,4056.64
405757,4057.57
405846,4058.46
405937,4059.37
406033,4060.33
406126,4061.26
406216,4062.16
406312,4063.12
406409,4064.09
406497,4064.97
406586,4065.86
406686,4066.86
406785,4067.85
406878,4068.78
406978,4069.78
407079,4070.79
407164,4071.64
407267,4072.67
407371,4073.71
407474,4074.74
407571,4075.71
407674,4076.74
407780,4077.8
407880,4078.8
407981,4079.81
408078,4080.78
408172,4081.72
408261,4082.61
408358,4083.58
408464,4084.64
408566,4085.66
408663,4086.63
408781,4087.81
408889,4088.89
408987,4089.87
409087,4090.87
409184,4091.84
409273,4092.73
409362,4093.62
409467,4094.67
409572,4095.72
409668,4096.68
409769,4097.69
409871,4098.71
409963,4099.63
410040,4100.4
410131,4101.31
410207,4102.07
410301,4103.01
410407,4104.07
410490,4104.9
410571,4105.71
410661,4106.61
410743,4107.43
410840,4108.4
410938,4109.38
411033,4110.33
411131,4111.31
411221,4112.21
411313,4113.13
411409,4114.09
411505,4115.05
411594,4115.94
411684,4116.84
411775,4117.75
411869,4118.69
411961,4119.61
412066,4120.66
412175,4121.75
412280,4122.8
412384,4123.84
412485,4124.85
412583,4125.83
412672,4126.72
412768,4127.68
412870,4128.7
412972,4129.72
413068,4130.68
413173,4131.73
413277,4132.77
413372,4133.72
413475,4134.75
413580,4135.8
413676,4136.76
413763,4137.63
413855,4138.55
413957,4139.57
414059,4140.59
414161,4141.61
414264,4142.64
414362,4143.62
414457,4144.57
414561,4145.61
414668,4146.68
414770,4147.7
414866,4148.66
414965,4149.65
415066,4150.66
415164,4151.64
415270,4152.7
415378,4153.78
415483,4154.83
415582,4155.82
415681,4156.81
415780,4157.8
415876,4158.76
415970,4159.7
416067,4160.67
416158,4161.58
416242,4162.42
416329,4163.29
416419,4164.19
416512,4165.12
416604,4166.04
416691,4166.91
416774,4167.74
416862,4168.62
416957,4169.57
417051,4170.51
417140,4171.4
417242,4172.42
417343,4173.43
417435,4174.35
417528,4175.28
417618,4176.18
417705,4177.05
417785,4177.85
417857,4178.57
417924,4179.24
417999,4179.99
418070,4180.7
418172,4181.72
418275,4182.75
418360,4183.6
418441,4184.41
418525,4185.25
418608,4186.08
418695,4186.95
418783,4187.83
418874,4188.74
418957,4189.57
419042,4190.42
419128,4191.28
419211,4192.11
419295,4192.95
419383,4193.83
419473,4194.73
419562,4195.62
419645,4196.45
419731,4197.31
419825,4198.25
419915,4199.15
420000,4200.0
420086,4200.86
420167,4201.67
420243,4202.43
420317,4203.17
420392,4203.92
420476,4204.76
420563,4205.63
420661,4206.61
420763,4207.63
420860,4208.6
420954,4209.54
421050,4210.5
421146,4211.46
421237,4212.37
421332,4213.32
421430,4214.3
421524,4215.24
421616,4216.16
421715,4217.15
421818,4218.18
421916,4219.16
422022,4220.22
422131,4221.31
422236,4222.36
422340,4223.4
422444,4224.44
422545,4225.45
422639,4226.39
422736,4227.36
422839,4228.39
422941,4229.41
423044,4230.44
423151,4231.51
423257,4232.57
423356,4233.56
423460,4234.6
423563,4235.63
423658,4236.58
423754,4237.54
423853,4238.53
423960,4239.6
424065,4240.65
424173,4241.73
424282,4242.82
424392,4243.92
424496,4244.96
424599,4245.99
424699,4246.99
424792,4247.92
424885,4248.85
424978,4249.78
425073,4250.73
425168,4251.68
425266,4252.66
425371,4253.71
425478,4254.78
425580,4255.8
425684,4256.84
425791,4257.91
425895,4258.95
425997,4259.97
426103,4261.03
426210,4262.1
426314,4263.14
426421,4264.21
426530,4265.3
426637,4266.37
426739,4267.39
426842,4268.42
426947,4269.47
427051,4270.51
427149,4271.49
427238,4272.38
427328,4273.28
427424,4274.24
427530,4275.3
427631,4276.31
427732,4277.32
427829,4278.29
427913,4279.13
427991,4279.91
428071,4280.71
428162,4281.62
428252,4282.52
428351,4283.51
428452,4284.52
428553,4285.53
428645,4286.45
428739,4287.39
428834,4288.34
428932,4289.32
429023,4290.23
429115,4291.15
429216,4292.16
429323,4293.23
429428,4294.28
429526,4295.26
429628,4296.28
429730,4297.3
429830,4298.3
429925,4299.25
430027,4300.27
430135,4301.35
430239,4302.39
430342,4303.42
430447,4304.47
430552,4305.52
430655,4306.55
430755,4307.55
430858,4308.58
430963,4309.63
431065,4310.65
431171,4311.71
431277,4312.77
431382,4313.82
431480,4314.8
431582,4315.82
431687,4316.87
431790,4317.9
431885,4318.85
431983,4319.83
432088,4320.88
432195,4321.95
432297,4322.97
432405,4324.05
432514,4325.14
432617,4326.17
432716,4327.16
432817,4328.17
432914,4329.14
433007,4330.07
433104,4331.04
433207,4332.07
433303,4333.03
433402,4334.02
433505,4335.05
433608,4336.08
433704,4337.04
433803,4338.03
433901,4339.01
433994,4339.94
434089,4340.89
434192,4341.92
434297,4342.97
434400,4344.0
434499,4344.99
434599,4345.99
434700,4347.0
434797,4347.97
434897,4348.97
434998,4349.98
435096,4350.96
435187,4351.87
435284,4352.84
435387,4353.87
435492,4354.92
435593,4355.93
435693,4356.93
435795,4357.95
435891,4358.91
435984,4359.84
436080,4360.8
436177,4361.77
436271,4362.71
436359,4363.59
436448,4364.48
436529,4365.29
436607,4366.07
436694,4366.94
436789,4367.89
436879,4368.79
436975,4369.75
437072,4370.72
437167,4371.67
437251,4372.51
437335,4373.35
437433,4374.33
437524,4375.24
437612,4376.12
437699,4376.99
437791,4377.91
437888,4378.88
437983,4379.83
438076,4380.76
438172,4381.72
438271,4382.71
438366,4383.66
438467,4384.67
438573,4385.73
438679,4386.79
438783,4387.83
438888,4388.88
438995,4389.95
439096,4390.96
439195,4391.95
439295,4392.95
439392,4393.92
439483,4394.83
439579,4395.79
439681,4396.81
439787,4397.87
439891,4398.91
439994,4399.94
440103,4401.03
440209,4402.09
440309,4403.09
440411,4404.11
440511,4405.11
440607,4406.07
440700,4407.0
440795,4407.95
440895,4408.95
440992,4409.92
441081,4410.81
441171,4411.71
441257,4412.57
441338,4413.38
441419,4414.19
441499,4414.99
441576,4415.76
441653,4416.53
441745,4417.45
441837,4418.37
441935,4419.35
442041,4420.41
442146,4421.46
442237,4422.37
442328,4423.28
442416,4424.16
442494,4424.94
442573,4425.73
442652,4426.52
442732,4427.32
442818,4428.18
442910,4429.1
443020,4430.2
443129,4431.29
443233,4432.33
443332,4433.32
443423,4434.23
443509,4435.09
443588,4435.88
443669,4436.69
443751,4437.51
443837,4438.37
443930,4439.3
444017,4440.17
444102,4441.02
444184,4441.84
444262,4442.62
444336,4443.36
444412,4444.12
444492,4444.92
444575,4445.75
444665,4446.65
444767,4447.67
444869,4448.69
444960,4449.6
445051,4450.51
445151,4451.51
445246,4452.46
445338,4453.38
445437,4454.37
445534,4455.34
445627,4456.27
445720,4457.2
445829,4458.29
445936,4459.36
446043,4460.43
446153,4461.53
446258,4462.58
446355,4463.55
446455,4464.55
446559,4465.59
446665,4466.65
446765,4467.65
446867,4468.67
446974,4469.74
447083,4470.83
447186,4471.86
447292,4472.92
447399,4473.99
447504,4475.04
447601,4476.01
447700,4477.0
447806,4478.06
447916,4479.16
448021,4480.21
448120,4481.2
448225,4482.25
448333,4483.33
448435,4484.35
448540,4485.4
448647,4486.47
448750,4487.5
448843,4488.43
448936,4489.36
449041,4490.41
449147,4491.47
449249,4492.49
449361,4493.61
449475,4494.75
449583,4495.83
449684,4496.84
449787,4497.87
449891,4498.91
449993,4499.93
450089,4500.89
450193,4501.93
450298,4502.98
450389,4503.89
450507,4505.07
450614,4506.14
450707,4507.07
450825,4508.25
450922,4509.22
451017,4510.17
451119,4511.19
451227,4512.27
451332,4513.32
451440,4514.4
451550,4515.5
451659,4516.59
451765,4517.65
451873,4518.73
451981,4519.81
452085,4520.85
452170,4521.7
452285,4522.85
452389,4523.89
452491,4524.91
452589,4525.89
452688,4526.88
452793,4527.93
452896,4528.96
452980,4529.8
453083,4530.83
453202,4532.02
453306,4533.06
453388,4533.88
453501,4535.01
453599,4535.99
453697,4536.97
453779,4537.79
453899,4538.99
454011,4540.11
454117,4541.17
454198,4541.98
454299,4542.99
454391,4543.91
454496,4544.96
454587,4545.87
454713,4547.13
454832,4548.32
454945,4549.45
455053,4550.53
455162,4551.62
455270,4552.7
455373,4553.73
455473,4554.73
455572,4555.72
455673,4556.73
455753,4557.53
455859,4558.59
455953,4559.53
456048,4560.48
456143,4561.43
456241,4562.41
456346,4563.46
456452,4564.52
456555,4565.55
456658,4566.58
456766,4567.66
456873,4568.73
456958,4569.58
457073,4570.73
457178,4571.78
457284,4572.84
457371,4573.71
457488,4574.88
457597,4575.97
457706,4577.06
457791,4577.91
457904,4579.04
458005,4580.05
458093,4580.93
458190,4581.9
458303,4583.03
458404,4584.04
458488,4584.88
458587,4585.87
458690,4586.9
458808,4588.08
458907,4589.07
458991,4589.91
459105,4591.05
459205,4592.05
459287,4592.87
459394,4593.94
459489,4594.89
459586,4595.86
459678,4596.78
459769,4597.69
459854,4598.54
459958,4599.58
460058,4600.58
460164,4601.64
460284,4602.84
460390,4603.9
460479,4604.79
460597,4605.97
460700,4607.0
460782,4607.82
460893,4608.93
460993,4609.93
461097,4610.97
461197,4611.97
461294,4612.94
461399,4613.99
461512,4615.12
461621,4616.21
461733,4617.33
461844,4618.44
461951,4619.51
462038,4620.38
462155,4621.55
462258,4622.58
462361,4623.61
462466,4624.66
462553,4625.53
462647,4626.47
462743,4627.43
462844,4628.44
462968,4629.68
463060,4630.6
463185,4631.85
463298,4632.98
463390,4633.9
463495,4634.95
463615,4636.15
463721,4637.21
463807,4638.07
463919,4639.19
464021,4640.21
464109,4641.09
464225,4642.25
464328,4643.28
464431,4644.31
464515,4645.15
464631,4646.31
464739,4647.39
464845,4648.45
464948,4649.48
465053,4650.53
465162,4651.62
465267,4652.67
465350,4653.5
465467,4654.67
465557,4655.57
465659,4656.59
465758,4657.58
465871,4658.71
465968,4659.68
466052,4660.52
466146,4661.46
466250,4662.5
466360,4663.6
466467,4664.67
466589,4665.89
466695,4666.95
466798,4667.98
466899,4668.99
466999,4669.99
467080,4670.8
467194,4671.94
467303,4673.03
467392,4673.92
467501,4675.01
467610,4676.1
467714,4677.14
467828,4678.28
467928,4679.28
468029,4680.29
468111,4681.11
468217,4682.17
468295,4682.95
468391,4683.91
468485,4684.85
468579,4685.79
468706,4687.06
468823,4688.23
468932,4689.32
469047,4690.47
469161,4691.61
469270,4692.7
469381,4693.81
469477,4694.77
469577,4695.77
469679,4696.79
469784,4697.84
469889,4698.89
469995,4699.95
470105,4701.05
470213,4702.13
470314,4703.14
470413,4704.13
470511,4705.11
470607,4706.07
470722,4707.22
470833,4708.33
470942,4709.42
471030,4710.3
471145,4711.45
471249,4712.49
471354,4713.54
471441,4714.41
471543,4715.43
471662,4716.62
471766,4717.66
471851,4718.51
471948,4719.48
472056,4720.56
472181,4721.81
472270,4722.7
472386,4723.86
472493,4724.93
472606,4726.06
472715,4727.15
472828,4728.28
472943,4729.43
473056,4730.56
473167,4731.67
473279,4732.79
473388,4733.88
473475,4734.75
473590,4735.9
473691,4736.91
473794,4737.94
473876,4738.76
473976,4739.76
474079,4740.79
474180,4741.8
474279,4742.79
474383,4743.83
474504,4745.04
474611,4746.11
474699,4746.99
474820,4748.2
474917,4749.17
475042,4750.42
475134,4751.34
475241,4752.41
475348,4753.48
475472,4754.72
475565,4755.65
475690,4756.9
475802,4758.02
475909,4759.09
475997,4759.97
476116,4761.16
476208,4762.08
476311,4763.11
476424,4764.24
476522,4765.22
476625,4766.25
476716,4767.16
476823,4768.23
476934,4769.34
477042,4770.42
477150,4771.5
477258,4772.58
477362,4773.62
477466,4774.66
477572,4775.72
477679,4776.79
477783,4777.83
477903,4779.03
478012,4780.12
478119,4781.19
478221,4782.21
478325,4783.25
478431,4784.31
478535,4785.35
478634,4786.34
478736,4787.36
478841,4788.41
478947,4789.47
479050,4790.5
479155,4791.55
479264,4792.64
479369,4793.69
479477,4794.77
479584,4795.84
479688,4796.88
479794,4797.94
479899,4798.99
480002,4800.02
480109,4801.09
480217,4802.17
480324,4803.24
480429,4804.29
480536,4805.36
480648,4806.48
480755,4807.55
480863,4808.63
480972,4809.72
481082,4810.82
481172,4811.72
481278,4812.78
481400,4814.0
481508,4815.08
481611,4816.11
481715,4817.15
481823,4818.23
481928,4819.28
482033,4820.33
482140,4821.4
482228,4822.28
482328,4823.28
482426,4824.26
482521,4825.21
482614,4826.14
482720,4827.2
482830,4828.3
482937,4829.37
483040,4830.4
483160,4831.6
483250,4832.5
483369,4833.69
483476,4834.76
483583,4835.83
483667,4836.67
483778,4837.78
483875,4838.75
483972,4839.72
484065,4840.65
484150,4841.5
484267,4842.67
484360,4843.6
484476,4844.76
484565,4845.65
484669,4846.69
484772,4847.72
484879,4848.79
484988,4849.88
485108,4851.08
485195,4851.95
485300,4853.0
485407,4854.07
485506,4855.06
485616,4856.16
485701,4857.01
485805,4858.05
485906,4859.06
486006,4860.06
486109,4861.09
486212,4862.12
486310,4863.1
486407,4864.07
486512,4865.12
486613,4866.13
486708,4867.08
486808,4868.08
486915,4869.15
487024,4870.24
487124,4871.24
487223,4872.23
487344,4873.44
487445,4874.45
487547,4875.47
487661,4876.61
487791,4877.91
487885,4878.85
487986,4879.86
488088,4880.88
488192,4881.92
488295,4882.95
488397,4883.97
488499,4884.99
488606,4886.06
488711,4887.11
488813,4888.13
488917,4889.17
489021,4890.21
489119,4891.19
489217,4892.17
489322,4893.22
489442,4894.42
489536,4895.36
489631,4896.31
489734,4897.34
489843,4898.43
489953,4899.53
490051,4900.51
490158,4901.58
490265,4902.65
490364,4903.64
490465,4904.65
490569,4905.69
490676,4906.76
490775,4907.75
490877,4908.77
490978,4909.78
491083,4910.83
491179,4911.79
491278,4912.78
491383,4913.83
491491,4914.91
491595,4915.95
491699,4916.99
491807,4918.07
491911,4919.11
492013,4920.13
492116,4921.16
492220,4922.2
492318,4923.18
492417,4924.17
492519,4925.19
492616,4926.16
492711,4927.11
492801,4928.01
492904,4929.04
493014,4930.14
493125,4931.25
493222,4932.22
493331,4933.31
493439,4934.39
493546,4935.46
493647,4936.47
493749,4937.49
493852,4938.52
493955,4939.55
494054,4940.54
494155,4941.55
494258,4942.58
494361,4943.61
494459,4944.59
494562,4945.62
494663,4946.63
494758,4947.58
494857,4948.57
494963,4949.63
495068,4950.68
495166,4951.66
495265,4952.65
495367,4953.67
495468,4954.68
495576,4955.76
495687,4956.87
495798,4957.98
495895,4958.95
495999,4959.99
496101,4961.01
496199,4961.99
496303,4963.03
496410,4964.1
496514,4965.14
496615,4966.15
496722,4967.22
496833,4968.33
496944,4969.44
497043,4970.43
497147,4971.47
497253,4972.53
497359,4973.59
497459,4974.59
497559,4975.59
497665,4976.65
497771,4977.71
497877,4978.77
497986,4979.86
498096,4980.96
498194,4981.94
498289,4982.89
498387,4983.87
498485,4984.85
498582,4985.82
498685,4986.85
498791,4987.91
498897,4988.97
499007,4990.07
499130,4991.3
499225,4992.25
499321,4993.21
499421,4994.21
499521,4995.21
499622,4996.22
499717,4997.17
499806,4998.06
499900,4999.0
499995,4999.95
500104,5001.04
500217,5002.17
500327,5003.27
500437,5004.37
500545,5005.45
500651,5006.51
500765,5007.65
500879,5008.79
500960,5009.6
501055,5010.55
501151,5011.51
501246,5012.46
501337,5013.37
501425,5014.25
501524,5015.24
501634,5016.34
501758,5017.58
501854,5018.54
501951,5019.51
502057,5020.57
502161,5021.61
502279,5022.79
502374,5023.74
502469,5024.69
502570,5025.7
502675,5026.75
502795,5027.95
502886,5028.86
502977,5029.77
503081,5030.81
503187,5031.87
503286,5032.86
503384,5033.84
503488,5034.88
503592,5035.92
503695,5036.95
503796,5037.96
503896,5038.96
503993,5039.93
504088,5040.88
504186,5041.86
504287,5042.87
504384,5043.84
504488,5044.88
504609,5046.09
504705,5047.05
504801,5048.01
504907,5049.07
505012,5050.12
505111,5051.11
505212,5052.12
505318,5053.18
505419,5054.19
505521,5055.21
505628,5056.28
505754,5057.54
505852,5058.52
505950,5059.5
506054,5060.54
506154,5061.54
506250,5062.5
506350,5063.5
506446,5064.46
506543,5065.43
506643,5066.43
506757,5067.57
506871,5068.71
507001,5070.01
507116,5071.16
507229,5072.29
507341,5073.41
507437,5074.37
507545,5075.45
507646,5076.46
507751,5077.51
507856,5078.56
507958,5079.58
508048,5080.48
508147,5081.47
508233,5082.33
508320,5083.2
508428,5084.28
508556,5085.56
508684,5086.84
508802,5088.02
508920,5089.2
509037,5090.37
509134,5091.34
509240,5092.4
509348,5093.48
509453,5094.53
509554,5095.54
509655,5096.55
509760,5097.6
509869,5098.69
509976,5099.76
510082,5100.82
510191,5101.91
510296,5102.96
510398,5103.98
510504,5105.04
510614,5106.14
510719,5107.19
510826,5108.26
510934,5109.34
511038,5110.38
511138,5111.38
511239,5112.39
511343,5113.43
511446,5114.46
511545,5115.45
511643,5116.43
511746,5117.46
511853,5118.53
511960,5119.6
512069,5120.69
512179,5121.79
512286,5122.86
512400,5124.0
512489,5124.89
512572,5125.72
512655,5126.55
512738,5127.38
512822,5128.22
512893,5128.93
512984,5129.84
513076,5130.76
513151,5131.51
513273,5132.73
513396,5133.96
513505,5135.05
513615,5136.15
513722,5137.22
513833,5138.33
513942,5139.42
514028,5140.28
514115,5141.15
514217,5142.17
514302,5143.02
514414,5144.14
514522,5145.22
514650,5146.5
514770,5147.7
514883,5148.83
514992,5149.92
515105,5151.05
515217,5152.17
515307,5153.07
515410,5154.1
515528,5155.28
515620,5156.2
515713,5157.13
515820,5158.2
515924,5159.24
516025,5160.25
516126,5161.26
516233,5162.33
516354,5163.54
516445,5164.45
516536,5165.36
516638,5166.38
516741,5167.41
516845,5168.45
516974,5169.74
517084,5170.84
517191,5171.91
517300,5173.0
517395,5173.95
517500,5175.0
517611,5176.11
517724,5177.24
517828,5178.28
517933,5179.33
518041,5180.41
518149,5181.49
518252,5182.52
518352,5183.52
518454,5184.54
518570,5185.7
518662,5186.62
518755,5187.55
518866,5188.66
518974,5189.74
519094,5190.94
519206,5192.06
519320,5193.2
519413,5194.13
519519,5195.19
519638,5196.38
519730,5197.3
519823,5198.23
519927,5199.27
520032,5200.32
520132,5201.32
520232,5202.32
520342,5203.42
520469,5204.69
520564,5205.64
520660,5206.6
520767,5207.67
520871,5208.71
520971,5209.71
521075,5210.75
521198,5211.98
521289,5212.89
521389,5213.89
521490,5214.9
521588,5215.88
521679,5216.79
521783,5217.83
521874,5218.74
521960,5219.6
522066,5220.66
522168,5221.68
522285,5222.85
522392,5223.92
522468,5224.68
522566,5225.66
522653,5226.53
522736,5227.36
522814,5228.14
522888,5228.88
522998,5229.98
523127,5231.27
523247,5232.47
523367,5233.67
523479,5234.79
523567,5235.67
523676,5236.76
523775,5237.75
523862,5238.62
523962,5239.62
524070,5240.7
524193,5241.93
524290,5242.9
524388,5243.88
524506,5245.06
524592,5245.92
524692,5246.92
524797,5247.97
524916,5249.16
525003,5250.03
525102,5251.02
525203,5252.03
525307,5253.07
525409,5254.09
525506,5255.06
525608,5256.08
525714,5257.14
525818,5258.18
525920,5259.2
526044,5260.44
526160,5261.6
526270,5262.7
526384,5263.84
526494,5264.94
526587,5265.87
526692,5266.92
526809,5268.09
526910,5269.1
527001,5270.01
527121,5271.21
527214,5272.14
527320,5273.2
527427,5274.27
527530,5275.3
527633,5276.33
527733,5277.33
527834,5278.34
527934,5279.34
528044,5280.44
528172,5281.72
528265,5282.65
528372,5283.72
528484,5284.84
528609,5286.09
528707,5287.07
528805,5288.05
528912,5289.12
529015,5290.15
529116,5291.16
529234,5292.34
529326,5293.26
529428,5294.28
529533,5295.33
529637,5296.37
529739,5297.39
529853,5298.53
529940,5299.4
530042,5300.42
530141,5301.41
530239,5302.39
530353,5303.53
530437,5304.37
530550,5305.5
530640,5306.4
530744,5307.44
530841,5308.41
530939,5309.39
531056,5310.56
531142,5311.42
531242,5312.42
531341,5313.41
531461,5314.61
531551,5315.51
531657,5316.57
531761,5317.61
531864,5318.64
531962,5319.62
532063,5320.63
532167,5321.67
532270,5322.7
532368,5323.68
532468,5324.68
532568,5325.68
532663,5326.63
532757,5327.57
532868,5328.68
532953,5329.53
533047,5330.47
533139,5331.39
533235,5332.35
533331,5333.31
533429,5334.29
533532,5335.32
533651,5336.51
533738,5337.38
533835,5338.35
533947,5339.47
534036,5340.36
534137,5341.37
534234,5342.34
534333,5343.33
534436,5344.36
534537,5345.37
534648,5346.48
534748,5347.48
534835,5348.35
534952,5349.52
535033,5350.33
535143,5351.43
535230,5352.3
535348,5353.48
535435,5354.35
535539,5355.39
535647,5356.47
535755,5357.55
535862,5358.62
535971,5359.71
536091,5360.91
536171,5361.71
536261,5362.61
536365,5363.65
536457,5364.57
536529,5365.29
536626,5366.26
536725,5367.25
536828,5368.28
536928,5369.28
537028,5370.28
537124,5371.24
537221,5372.21
537314,5373.14
537413,5374.13
537525,5375.25
537654,5376.54
537752,5377.52
537851,5378.51
537957,5379.57
538062,5380.62
538162,5381.62
538264,5382.64
538365,5383.65
538465,5384.65
538562,5385.62
538663,5386.63
538767,5387.67
538870,5388.7
538967,5389.67
539067,5390.67
539165,5391.65
539258,5392.58
539348,5393.48
539453,5394.53
539535,5395.35
539636,5396.36
539734,5397.34
539834,5398.34
539939,5399.39
540040,5400.4
540139,5401.39
540242,5402.42
540347,5403.47
540447,5404.47
540543,5405.43
540637,5406.37
540737,5407.37
540836,5408.36
540935,5409.35
541048,5410.48
541136,5411.36
541234,5412.34
541334,5413.34
541437,5414.37
541546,5415.46
541650,5416.5
541753,5417.53
541850,5418.5
541950,5419.5
542050,5420.5
542169,5421.69
542279,5422.79
542370,5423.7
542473,5424.73
542573,5425.73
542673,5426.73
542765,5427.65
542872,5428.72
542957,5429.57
543075,5430.75
543164,5431.64
543279,5432.79
543371,5433.71
543498,5434.98
543592,5435.92
543714,5437.14
543808,5438.08
543925,5439.25
544009,5440.09
544105,5441.05
544201,5442.01
544309,5443.09
544404,5444.04
544482,5444.82
544574,5445.74
544672,5446.72
544776,5447.76
544874,5448.74
544970,5449.7
545080,5450.8
545166,5451.66
545263,5452.63
545351,5453.51
545437,5454.37
545535,5455.35
545643,5456.43
545749,5457.49
545855,5458.55
545983,5459.83
546095,5460.95
546201,5462.01
546292,5462.92
546399,5463.99
546521,5465.21
546608,5466.08
546709,5467.09
546811,5468.11
546918,5469.18
547019,5470.19
547119,5471.19
547219,5472.19
547319,5473.19
547418,5474.18
547523,5475.23
547646,5476.46
547736,5477.36
547837,5478.37
547938,5479.38
548058,5480.58
548148,5481.48
548263,5482.63
548352,5483.52
548458,5484.58
548557,5485.57
548651,5486.51
548747,5487.47
548862,5488.62
548969,5489.69
549056,5490.56
549159,5491.59
549281,5492.81
549375,5493.75
549475,5494.75
549574,5495.74
549674,5496.74
549772,5497.72
549870,5498.7
549968,5499.68
550068,5500.68
550165,5501.65
550267,5502.67
550391,5503.91
550485,5504.85
550603,5506.03
550707,5507.07
550813,5508.13
550898,5508.98
550994,5509.94
551095,5510.95
551201,5512.01
551302,5513.02
551399,5513.99
551515,5515.15
551606,5516.06
551727,5517.27
551810,5518.1
551902,5519.02
551993,5519.93
552092,5520.92
552191,5521.91
552287,5522.87
552380,5523.8
552482,5524.82
552582,5525.82
552687,5526.87
552792,5527.92
552895,5528.95
552997,5529.97
553109,5531.09
553238,5532.38
553332,5533.32
553440,5534.4
553565,5535.65
553655,5536.55
553758,5537.58
553861,5538.61
553966,5539.66
554063,5540.63
554156,5541.56
554266,5542.66
554355,5543.55
554456,5544.56
554553,5545.53
554654,5546.54
554776,5547.76
554871,5548.71
554966,5549.66
555072,5550.72
555180,5551.8
555284,5552.84
555388,5553.88
555495,5554.95
555617,5556.17
555711,5557.11
555805,5558.05
555910,5559.1
556032,5560.32
556125,5561.25
556218,5562.18
556325,5563.25
556433,5564.33
556532,5565.32
556636,5566.36
556744,5567.44
556850,5568.5
556951,5569.51
557050,5570.5
557154,5571.54
557257,5572.57
557356,5573.56
557456,5574.56
557560,5575.6
557661,5576.61
557762,5577.62
557860,5578.6
557960,5579.6
558057,5580.57
558161,5581.61
558269,5582.69
558375,5583.75
558478,5584.78
558582,5585.82
558691,5586.91
558796,5587.96
558899,5588.99
559004,5590.04
559112,5591.12
559220,5592.2
559315,5593.15
559416,5594.16
559522,5595.22
559625,5596.25
559722,5597.22
559822,5598.22
559923,5599.23
560029,5600.29
560128,5601.28
560230,5602.3
560334,5603.34
560438,5604.38
560540,5605.4
560645,5606.45
560751,5607.51
560846,5608.46
560946,5609.46
561048,5610.48
561148,5611.48
561247,5612.47
561349,5613.49
561451,5614.51
561548,5615.48
561644,5616.44
561745,5617.45
561847,5618.47
561948,5619.48
562052,5620.52
562159,5621.59
562261,5622.61
562361,5623.61
562462,5624.62
562563,5625.63
562658,5626.58
562754,5627.54
562853,5628.53
562956,5629.56
563055,5630.55
563156,5631.56
563260,5632.6
563364,5633.64
563460,5634.6
563555,5635.55
563651,5636.51
563754,5637.54
563858,5638.58
563954,5639.54
564049,5640.49
564153,5641.53
564264,5642.64
564369,5643.69
564470,5644.7
564572,5645.72
564675,5646.75
564773,5647.73
564869,5648.69
564969,5649.69
565076,5650.76
565179,5651.79
565278,5652.78
565379,5653.79
565482,5654.82
565583,5655.83
565682,5656.82
565785,5657.85
565885,5658.85
565987,5659.87
566093,5660.93
566199,5661.99
566296,5662.96
566391,5663.91
566489,5664.89
566585,5665.85
566678,5666.78
566776,5667.76
566874,5668.74
566970,5669.7
567069,5670.69
567172,5671.72
567275,5672.75
567372,5673.72
567469,5674.69
567567,5675.67
567665,5676.65
567767,5677.67
567872,5678.72
567973,5679.73
568075,5680.75
568178,5681.78
568285,5682.85
568389,5683.89
568486,5684.86
568584,5685.84
568681,5686.81
568776,5687.76
568878,5688.78
568997,5689.97
569117,5691.17
569232,5692.32
569338,5693.38
569444,5694.44
569548,5695.48
569645,5696.45
569737,5697.37
569834,5698.34
569938,5699.38
570029,5700.29
570133,5701.33
570241,5702.41
570347,5703.47
570441,5704.41
570535,5705.35
570635,5706.35
570734,5707.34
570829,5708.29
570928,5709.28
571029,5710.29
571130,5711.3
571226,5712.26
571324,5713.24
571426,5714.26
571522,5715.22
571615,5716.15
571711,5717.11
571814,5718.14
571914,5719.14
572016,5720.16
572121,5721.21
572226,5722.26
572327,5723.27
572429,5724.29
572533,5725.33
572629,5726.29
572718,5727.18
572803,5728.03
572897,5728.97
573002,5730.02
573112,5731.12
573221,5732.21
573344,5733.44
573461,5734.61
573573,5735.73
573687,5736.87
573801,5738.01
573903,5739.03
574001,5740.01
574100,5741.0
574203,5742.03
574307,5743.07
574407,5744.07
574510,5745.1
574610,5746.1
574707,5747.07
574807,5748.07
574909,5749.09
575005,5750.05
575106,5751.06
575211,5752.11
575316,5753.16
575416,5754.16
575532,5755.32
575649,5756.49
575761,5757.61
575857,5758.57
575954,5759.54
576060,5760.6
576162,5761.62
576259,5762.59
576362,5763.62
576468,5764.68
576570,5765.7
576667,5766.67
576765,5767.65
576872,5768.72
576979,5769.79
577072,5770.72
577175,5771.75
577293,5772.93
577400,5774.0
577492,5774.92
577591,5775.91
577689,5776.89
577793,5777.93
577903,5779.03
578013,5780.13
578113,5781.13
578224,5782.24
578336,5783.36
578434,5784.34
578535,5785.35
578632,5786.32
578725,5787.25
578821,5788.21
578919,5789.19
579011,5790.11
579105,5791.05
579205,5792.05
579305,5793.05
579403,5794.03
579507,5795.07
579615,5796.15
579723,5797.23
579823,5798.23
579922,5799.22
580022,5800.22
580121,5801.21
580215,5802.15
580318,5803.18
580421,5804.21
580516,5805.16
580614,5806.14
580712,5807.12
580819,5808.19
580926,5809.26
581024,5810.24
581129,5811.29
581235,5812.35
581339,5813.39
581439,5814.39
581552,5815.52
581651,5816.51
581750,5817.5
581851,5818.51
581953,5819.53
582057,5820.57
582161,5821.61
582256,5822.56
582351,5823.51
582448,5824.48
582543,5825.43
582636,5826.36
582734,5827.34
582840,5828.4
582940,5829.4
583038,5830.38
583139,5831.39
583243,5832.43
583342,5833.42
583438,5834.38
583534,5835.34
583632,5836.32
583732,5837.32
583828,5838.28
583926,5839.26
584031,5840.31
584136,5841.36
584230,5842.3
584334,5843.34
584438,5844.38
584533,5845.33
584632,5846.32
584734,5847.34
584840,5848.4
584944,5849.44
585043,5850.43
585144,5851.44
585247,5852.47
585345,5853.45
585442,5854.42
585547,5855.47
585655,5856.55
585759,5857.59
585861,5858.61
585963,5859.63
586067,5860.67
586164,5861.64
586259,5862.59
586351,5863.51
586443,5864.43
586538,5865.38
586649,5866.49
586763,5867.63
586871,5868.71
586980,5869.8
587091,5870.91
587202,5872.02
587297,5872.97
587391,5873.91
587482,5874.82
587568,5875.68
587656,5876.56
587747,5877.47
587854,5878.54
587961,5879.61
588073,5880.73
588194,5881.94
588304,5883.04
588413,5884.13
588511,5885.11
588617,5886.17
588716,5887.16
588810,5888.1
588906,5889.06
589003,5890.03
589102,5891.02
589198,5891.98
589296,5892.96
589400,5894.0
589500,5895.0
589601,5896.01
589703,5897.03
589805,5898.05
589901,5899.01
590000,5900.0
590093,5900.93
590188,5901.88
590287,5902.87
590393,5903.93
590498,5904.98
590611,5906.11
590724,5907.24
590827,5908.27
590941,5909.41
591055,5910.55
591161,5911.61
591267,5912.67
591372,5913.72
591468,5914.68
591565,5915.65
591664,5916.64
591762,5917.62
591866,5918.66
591975,5919.75
592080,5920.8
592178,5921.78
592278,5922.78
592382,5923.82
592483,5924.83
592579,5925.79
592679,5926.79
592785,5927.85
592888,5928.88
592985,5929.85
593083,5930.83
593191,5931.91
593297,5932.97
593397,5933.97
593499,5934.99
593607,5936.07
593717,5937.17
593822,5938.22
593926,5939.26
594032,5940.32
594135,5941.35
594235,5942.35
594335,5943.35
594436,5944.36
594539,5945.39
594637,5946.37
594734,5947.34
594833,5948.33
594931,5949.31
595025,5950.25
595123,5951.23
595225,5952.25
595322,5953.22
595424,5954.24
595527,5955.27
595627,5956.27
595723,5957.23
595820,5958.2
595923,5959.23
596021,5960.21
596119,5961.19
596215,5962.15
596313,5963.13
596408,5964.08
596506,5965.06
596609,5966.09
596711,5967.11
596814,5968.14
596920,5969.2
597022,5970.22
597126,5971.26
597233,5972.33
597342,5973.42
597445,5974.45
597546,5975.46
597650,5976.5
597756,5977.56
597856,5978.56
597955,5979.55
598056,5980.56
598160,5981.6
598264,5982.64
598365,5983.65
598461,5984.61
598552,5985.52
598648,5986.48
598741,5987.41
598833,5988.33
598932,5989.32
599034,5990.34
599133,5991.33
599230,5992.3
599329,5993.29
599425,5994.25
599518,5995.18
599614,5996.14
599714,5997.14
599812,5998.12
599908,5999.08
600009,6000.09
600112,6001.12
600211,6002.11
600311,6003.11
600412,6004.12
600514,6005.14
600609,6006.09
600700,6007.0
600795,6007.95
600893,6008.93
600986,6009.86
601083,6010.83
601188,6011.88
601291,6012.91
601391,6013.91
601493,6014.93
601598,6015.98
601700,6017.0
601797,6017.97
601894,6018.94
601996,6019.96
602097,6020.97
602192,6021.92
602286,6022.86
602384,6023.84
602486,6024.86
602587,6025.87
602687,6026.87
602792,6027.92
602898,6028.98
602992,6029.92
603094,6030.94
603199,6031.99
603297,6032.97
603393,6033.93
603486,6034.86
603579,6035.79
603675,6036.75
603772,6037.72
603870,6038.7
603971,6039.71
604066,6040.66
604161,6041.61
604259,6042.59
604362,6043.62
604464,6044.64
604563,6045.63
604668,6046.68
604772,6047.72
604870,6048.7
604961,6049.61
605052,6050.52
605146,6051.46
605240,6052.4
605322,6053.22
605413,6054.13
605511,6055.11
605614,6056.14
605710,6057.1
605809,6058.09
605910,6059.1
606013,6060.13
606109,6061.09
606205,6062.05
606305,6063.05
606406,6064.06
606496,6064.96
606590,6065.9
606691,6066.91
606796,6067.96
606897,6068.97
606997,6069.97
607100,6071.0
607205,6072.05
607305,6073.05
607406,6074.06
607511,6075.11
607620,6076.2
607723,6077.23
607825,6078.25
607929,6079.29
608029,6080.29
608123,6081.23
608217,6082.17
608319,6083.19
608423,6084.23
608521,6085.21
608620,6086.2
608721,6087.21
608825,6088.25
608926,6089.26
609038,6090.38
609150,6091.5
609244,6092.44
609348,6093.48
609448,6094.48
609549,6095.49
609652,6096.52
609753,6097.53
609858,6098.58
609963,6099.63
610061,6100.61
610156,6101.56
610254,6102.54
610353,6103.53
610450,6104.5
610552,6105.52
610656,6106.56
610761,6107.61
610852,6108.52
610953,6109.53
611060,6110.6
611165,6111.65
611266,6112.66
611368,6113.68
611472,6114.72
611572,6115.72
611672,6116.72
611773,6117.73
611877,6118.77
611976,6119.76
612076,6120.76
612177,6121.77
612279,6122.79
612377,6123.77
612477,6124.77
612582,6125.82
612686,6126.86
612789,6127.89
612895,6128.95
613002,6130.02
613109,6131.09
613205,6132.05
613302,6133.02
613403,6134.03
613499,6134.99
613600,6136.0
613702,6137.02
613796,6137.96
613896,6138.96
614001,6140.01
614109,6141.09
614214,6142.14
614310,6143.1
614407,6144.07
614511,6145.11
614613,6146.13
614712,6147.12
614815,6148.15
614920,6149.2
615025,6150.25
615119,6151.19
615215,6152.15
615313,6153.13
615414,6154.14
615512,6155.12
615615,6156.15
615722,6157.22
615826,6158.26
615922,6159.22
616012,6160.12
616106,6161.06
616205,6162.05
616301,6163.01
616405,6164.05
616509,6165.09
616615,6166.15
616714,6167.14
616818,6168.18
616919,6169.19
617018,6170.18
617111,6171.11
617208,6172.08
617310,6173.1
617412,6174.12
617512,6175.12
617618,6176.18
617729,6177.29
617841,6178.41
617939,6179.39
618048,6180.48
618155,6181.55
618257,6182.57
618360,6183.6
618463,6184.63
618557,6185.57
618651,6186.51
618748,6187.48
618850,6188.5
618945,6189.45
619042,6190.42
619147,6191.47
619254,6192.54
619357,6193.57
619460,6194.6
619565,6195.65
619682,6196.82
619773,6197.73
619864,6198.64
619963,6199.63
620062,6200.62
620171,6201.71
620269,6202.69
620358,6203.58
620454,6204.54
620554,6205.54
620659,6206.59
620777,6207.77
620870,6208.7
620964,6209.64
621066,6210.66
621169,6211.69
621266,6212.66
621362,6213.62
621462,6214.62
621564,6215.64
621662,6216.62
621773,6217.73
621872,6218.72
621953,6219.53
622053,6220.53
622156,6221.56
622262,6222.62
622365,6223.65
622465,6224.65
622568,6225.68
622674,6226.74
622775,6227.75
622877,6228.77
622992,6229.92
623087,6230.87
623183,6231.83
623280,6232.8
623365,6233.65
623469,6234.69
623573,6235.73
623669,6236.69
623754,6237.54
623852,6238.52
623948,6239.48
624062,6240.62
624153,6241.53
624253,6242.53
624353,6243.53
624455,6244.55
624575,6245.75
624668,6246.68
624762,6247.62
624864,6248.64
624966,6249.66
625064,6250.64
625176,6251.76
625273,6252.73
625359,6253.59
625452,6254.52
625547,6255.47
625642,6256.42
625753,6257.53
625839,6258.39
625926,6259.26
626023,6260.23
626125,6261.25
626224,6262.24
626324,6263.24
626426,6264.26
626529,6265.29
626625,6266.25
626721,6267.21
626821,6268.21
626924,6269.24
627021,6270.21
627116,6271.16
627223,6272.23
627304,6273.04
627399,6273.99
627492,6274.92
627590,6275.9
627688,6276.88
627785,6277.85
627881,6278.81
627976,6279.76
628086,6280.86
628175,6281.75
628238,6282.38
628324,6283.24
628411,6284.11
628492,6284.92
628571,6285.71
628654,6286.54
628751,6287.51
628837,6288.37
628918,6289.18
628982,6289.82
629066,6290.66
629151,6291.51
629227,6292.27
629300,6293.0
629373,6293.73
629446,6294.46
629517,6295.17
629588,6295.88
629657,6296.57
629727,6297.27
629796,6297.96
629865,6298.65
629933,6299.33
630003,6300.03
630073,6300.73
630149,6301.49
630234,6302.34
630320,6303.2
630412,6304.12
630517,6305.17
630631,6306.31
630743,6307.43
630849,6308.49
630945,6309.45
631039,6310.39
631134,6311.34
631244,6312.44
631364,6313.64
631483,6314.83
631598,6315.98
631716,6317.16
631831,6318.31
631935,6319.35
632024,6320.24
632112,6321.12
632211,6322.11
632305,6323.05
632396,6323.96
632490,6324.9
632602,6326.02
632724,6327.24
632851,6328.51
632970,6329.7
633082,6330.82
633192,6331.92
633305,6333.05
633424,6334.24
633540,6335.4
633654,6336.54
633769,6337.69
633878,6338.78
633982,6339.82
634083,6340.83
634190,6341.9
634300,6343.0
634412,6344.12
634525,6345.25
634637,6346.37
634748,6347.48
634862,6348.62
634973,6349.73
635084,6350.84
635196,6351.96
635304,6353.04
635408,6354.08
635517,6355.17
635619,6356.19
635721,6357.21
635824,6358.24
635931,6359.31
636041,6360.41
636150,6361.5
636259,6362.59
636370,6363.7
636482,6364.82
636588,6365.88
636693,6366.93
636800,6368.0
636905,6369.05
637011,6370.11
637115,6371.15
637216,6372.16
637316,6373.16
637421,6374.21
637526,6375.26
637632,6376.32
637736,6377.36
637840,6378.4
637939,6379.39
638043,6380.43
638152,6381.52
638257,6382.57
638361,6383.61
638469,6384.69
638575,6385.75
638674,6386.74
638771,6387.71
638870,6388.7
638966,6389.66
639062,6390.62
639155,6391.55
639253,6392.53
639350,6393.5
639449,6394.49
639553,6395.53
639652,6396.52
639740,6397.4
639825,6398.25
639904,6399.04
639980,6399.8
640064,6400.64
640161,6401.61
640261,6402.61
640368,6403.68
640478,6404.78
640584,6405.84
640700,6407.0
640810,6408.1
640913,6409.13
641012,6410.12
641117,6411.17
641226,6412.26
641331,6413.31
641435,6414.35
641540,6415.4
641638,6416.38
641738,6417.38
641847,6418.47
641956,6419.56
642062,6420.62
642169,6421.69
642277,6422.77
642383,6423.83
642483,6424.83
642584,6425.84
642687,6426.87
642789,6427.89
642889,6428.89
642990,6429.9
643093,6430.93
643191,6431.91
643291,6432.91
643392,6433.92
643499,6434.99
643608,6436.08
643717,6437.17
643824,6438.24
643930,6439.3
644032,6440.32
644133,6441.33
644236,6442.36
644337,6443.37
644435,6444.35
644537,6445.37
644642,6446.42
644742,6447.42
644840,6448.4
644944,6449.44
645048,6450.48
645150,6451.5
645253,6452.53
645358,6453.58
645465,6454.65
645568,6455.68
645670,6456.7
645772,6457.72
645872,6458.72
645974,6459.74
646079,6460.79
646185,6461.85
646289,6462.89
646390,6463.9
646490,6464.9
646590,6465.9
646688,6466.88
646782,6467.82
646877,6468.77
646976,6469.76
647079,6470.79
647182,6471.82
647288,6472.88
647396,6473.96
647506,6475.06
647620,6476.2
647730,6477.3
647837,6478.37
647943,6479.43
648048,6480.48
648149,6481.49
648249,6482.49
648350,6483.5
648447,6484.47
648539,6485.39
648630,6486.3
648721,6487.21
648811,6488.11
648900,6489.0
648996,6489.96
649089,6490.89
649183,6491.83
649271,6492.71
649360,6493.6
649441,6494.41
649520,6495.2
649600,6496.0
649680,6496.8
649763,6497.63
649865,6498.65
649975,6499.75
650081,6500.81
650190,6501.9
650301,6503.01
650408,6504.08
650511,6505.11
650613,6506.13
650714,6507.14
650818,6508.18
650916,6509.16
651017,6510.17
651120,6511.2
651225,6512.25
651331,6513.31
651440,6514.4
651547,6515.47
651652,6516.52
651754,6517.54
651859,6518.59
651964,6519.64
652070,6520.7
652179,6521.79
652283,6522.83
652385,6523.85
652483,6524.83
652577,6525.77
652669,6526.69
652759,6527.59
652849,6528.49
652942,6529.42
653043,6530.43
653150,6531.5
653254,6532.54
653365,6533.65
653481,6534.81
653594,6535.94
653706,6537.06
653820,6538.2
653929,6539.29
654030,6540.3
654129,6541.29
654227,6542.27
654324,6543.24
654417,6544.17
654513,6545.13
654618,6546.18
654725,6547.25
654828,6548.28
654930,6549.3
655033,6550.33
655134,6551.34
655238,6552.38
655346,6553.46
655455,6554.55
655560,6555.6
655665,6556.65
655772,6557.72
655878,6558.78
655986,6559.86
656093,6560.93
656194,6561.94
656294,6562.94
656394,6563.94
656497,6564.97
656597,6565.97
656698,6566.98
656804,6568.04
656911,6569.11
657014,6570.14
657114,6571.14
657216,6572.16
657317,6573.17
657417,6574.17
657517,6575.17
657622,6576.22
657727,6577.27
657831,6578.31
657935,6579.35
658041,6580.41
658142,6581.42
658238,6582.38
658334,6583.34
658431,6584.31
658527,6585.27
658626,6586.26
658734,6587.34
658842,6588.42
658946,6589.46
659047,6590.47
659149,6591.49
659251,6592.51
659349,6593.49
659445,6594.45
659538,6595.38
659629,6596.29
659721,6597.21
659815,6598.15
659905,6599.05
659992,6599.92
660083,6600.83
660171,6601.71
660257,6602.57
660348,6603.48
660454,6604.54
660557,6605.57
660653,6606.53
660747,6607.47
660845,6608.45
660946,6609.46
661041,6610.41
661142,6611.42
661249,6612.49
661355,6613.55
661463,6614.63
661577,6615.77
661684,6616.84
661791,6617.91
661901,6619.01
662009,6620.09
662111,6621.11
662209,6622.09
662310,6623.1
662413,6624.13
662516,6625.16
662625,6626.25
662733,6627.33
662837,6628.37
662936,6629.36
663036,6630.36
663139,6631.39
663241,6632.41
663348,6633.48
663457,6634.57
663564,6635.64
663669,6636.69
663774,6637.74
663877,6638.77
663982,6639.82
664090,6640.9
664199,6641.99
664303,6643.03
664407,6644.07
664512,6645.12
664617,6646.17
664718,6647.18
664820,6648.2
664922,6649.22
665023,6650.23
665120,6651.2
665218,6652.18
665321,6653.21
665423,6654.23
665525,6655.25
665628,6656.28
665729,6657.29
665832,6658.32
665937,6659.37
666040,6660.4
666140,6661.4
666241,6662.41
666342,6663.42
666442,6664.42
666543,6665.43
666647,6666.47
666750,6667.5
666852,6668.52
666957,6669.57
667060,6670.6
667158,6671.58
667254,6672.54
667349,6673.49
667443,6674.43
667536,6675.36
667632,6676.32
667732,6677.32
667832,6678.32
667932,6679.32
668036,6680.36
668143,6681.43
668248,6682.48
668354,6683.54
668458,6684.58
668558,6685.58
668655,6686.55
668754,6687.54
668855,6688.55
668953,6689.53
669053,6690.53
669153,6691.53
669250,6692.5
669352,6693.52
669452,6694.52
669550,6695.5
669650,6696.5
669752,6697.52
669852,6698.52
669953,6699.53
670054,6700.54
670152,6701.52
670253,6702.53
670355,6703.55
670455,6704.55
670551,6705.51
670650,6706.5
670751,6707.51
670850,6708.5
670949,6709.49
671049,6710.49
671150,6711.5
671246,6712.46
671342,6713.42
671440,6714.4
671538,6715.38
671632,6716.32
671728,6717.28
671828,6718.28
671929,6719.29
672030,6720.3
672135,6721.35
672238,6722.38
672338,6723.38
672435,6724.35
672531,6725.31
672626,6726.26
672722,6727.22
672822,6728.22
672927,6729.27
673034,6730.34
673140,6731.4
673247,6732.47
673352,6733.52
673453,6734.53
673553,6735.53
673652,6736.52
673749,6737.49
673845,6738.45
673945,6739.45
674046,6740.46
674145,6741.45
674246,6742.46
674347,6743.47
674445,6744.45
674542,6745.42
674641,6746.41
674741,6747.41
674838,6748.38
674935,6749.35
675035,6750.35
675133,6751.33
675232,6752.32
675336,6753.36
675440,6754.4
675540,6755.4
675641,6756.41
675740,6757.4
675836,6758.36
675930,6759.3
676029,6760.29
676128,6761.28
676226,6762.26
676322,6763.22
676421,6764.21
676519,6765.19
676614,6766.14
676707,6767.07
676802,6768.02
676900,6769.0
676994,6769.94
677089,6770.89
677183,6771.83
677277,6772.77
677373,6773.73
677468,6774.68
677561,6775.61
677653,6776.53
677746,6777.46
677839,6778.39
677934,6779.34
678029,6780.29
678130,6781.3
678228,6782.28
678326,6783.26
678422,6784.22
678516,6785.16
678610,6786.1
678703,6787.03
678795,6787.95
678895,6788.95
678998,6789.98
679096,6790.96
679194,6791.94
679295,6792.95
679394,6793.94
679487,6794.87
679581,6795.81
679677,6796.77
679770,6797.7
679861,6798.61
679960,6799.6
680059,6800.59
680155,6801.55
680251,6802.51
680351,6803.51
680449,6804.49
680547,6805.47
680650,6806.5
680753,6807.53
680852,6808.52
680951,6809.51
681050,6810.5
681150,6811.5
681247,6812.47
681344,6813.44
681442,6814.42
681540,6815.4
681635,6816.35
681735,6817.35
681837,6818.37
681935,6819.35
682032,6820.32
682134,6821.34
682237,6822.37
682337,6823.37
682436,6824.36
682540,6825.4
682646,6826.46
682749,6827.49
682849,6828.49
682950,6829.5
683052,6830.52
683153,6831.53
683255,6832.55
683356,6833.56
683458,6834.58
683559,6835.59
683661,6836.61
683765,6837.65
683868,6838.68
683971,6839.71
684074,6840.74
684175,6841.75
684272,6842.72
684370,6843.7
684471,6844.71
684571,6845.71
684669,6846.69
684767,6847.67
684868,6848.68
684970,6849.7
685067,6850.67
685164,6851.64
685263,6852.63
685365,6853.65
685466,6854.66
685564,6855.64
685660,6856.6
685751,6857.51
685834,6858.34
685914,6859.14
685995,6859.95
686081,6860.81
686168,6861.68
686254,6862.54
686345,6863.45
686437,6864.37
686546,6865.46
686663,6866.63
686778,6867.78
686888,6868.88
686999,6869.99
687109,6871.09
687215,6872.15
687321,6873.21
687428,6874.28
687534,6875.34
687640,6876.4
687744,6877.44
687848,6878.48
687949,6879.49
688052,6880.52
688153,6881.53
688258,6882.58
688362,6883.62
688466,6884.66
688571,6885.71
688672,6886.72
688775,6887.75
688875,6888.75
688972,6889.72
689068,6890.68
689169,6891.69
689273,6892.73
689374,6893.74
689475,6894.75
689577,6895.77
689676,6896.76
689775,6897.75
689874,6898.74
689972,6899.72
690067,6900.67
690162,6901.62
690256,6902.56
690348,6903.48
690441,6904.41
690542,6905.42
690636,6906.36
690720,6907.2
690798,6907.98
690874,6908.74
690947,6909.47
691023,6910.23
691114,6911.14
691212,6912.12
691325,6913.25
691431,6914.31
691522,6915.22
691606,6916.06
691686,6916.86
691762,6917.62
691836,6918.36
691908,6919.08
691978,6919.78
692047,6920.47
692117,6921.17
692185,6921.85
692253,6922.53
692321,6923.21
692387,6923.87
692454,6924.54
692520,6925.2
692586,6925.86
692653,6926.53
692718,6927.18
692776,6927.76
692837,6928.37
692913,6929.13
692977,6929.77
693042,6930.42
693104,6931.04
693167,6931.67
693228,6932.28
693290,6932.9
693352,6933.52
693413,6934.13
693474,6934.74
693535,6935.35
693598,6935.98
693665,6936.65
693739,6937.39
693819,6938.19
693903,6939.03
693988,6939.88
694084,6940.84
694187,6941.87
694290,6942.9
694400,6944.0
694505,6945.05
694604,6946.04
694690,6946.9
694772,6947.72
694850,6948.5
694926,6949.26
695045,6950.45
695161,6951.61
695277,6952.77
695402,6954.02
695524,6955.24
695636,6956.36
695744,6957.44
695854,6958.54
695959,6959.59
696067,6960.67
696180,6961.8
696289,6962.89
696403,6964.03
696517,6965.17
696625,6966.25
696723,6967.23
696823,6968.23
696921,6969.21
697026,6970.26
697143,6971.43
697252,6972.52
697354,6973.54
697458,6974.58
697571,6975.71
697680,6976.8
697784,6977.84
697894,6978.94
698003,6980.03
698106,6981.06
698214,6982.14
698324,6983.24
698431,6984.31
698541,6985.41
698651,6986.51
698759,6987.59
698864,6988.64
698969,6989.69
699069,6990.69
699170,6991.7
699275,6992.75
699376,6993.76
699477,6994.77
699582,6995.82
699684,6996.84
699790,6997.9
699898,6998.98
699998,6999.98
700089,7000.89
700179,7001.79
700271,7002.71
700364,7003.64
700457,7004.57
700550,7005.5
700655,7006.55
700758,7007.58
700864,7008.64
700977,7009.77
701089,7010.89
701194,7011.94
701289,7012.89
701381,7013.81
701469,7014.69
701550,7015.5
701629,7016.29
701717,7017.17
701827,7018.27
701939,7019.39
702054,7020.54
702173,7021.73
702288,7022.88
702397,7023.97
702509,7025.09
702617,7026.17
702722,7027.22
702823,7028.23
702922,7029.22
703018,7030.18
703108,7031.08
703197,7031.97
703283,7032.83
703363,7033.63
703443,7034.43
703525,7035.25
703627,7036.27
703736,7037.36
703849,7038.49
703962,7039.62
704056,7040.56
704146,7041.46
704239,7042.39
704329,7043.29
704420,7044.2
704518,7045.18
704623,7046.23
704728,7047.28
704824,7048.24
704911,7049.11
705001,7050.01
705104,7051.04
705209,7052.09
705310,7053.1
705410,7054.1
705508,7055.08
705604,7056.04
705702,7057.02
705795,7057.95
705897,7058.97
706006,7060.06
706114,7061.14
706215,7062.15
706320,7063.2
706428,7064.28
706532,7065.32
706632,7066.32
706738,7067.38
706846,7068.46
706952,7069.52
707051,7070.51
707147,7071.47
707245,7072.45
707343,7073.43
707440,7074.4
707550,7075.5
707660,7076.6
707767,7077.67
707867,7078.67
707962,7079.62
708063,7080.63
708170,7081.7
708275,7082.75
708388,7083.88
708504,7085.04
708614,7086.14
708726,7087.26
708837,7088.37
708943,7089.43
709044,7090.44
709145,7091.45
709246,7092.46
709344,7093.44
709436,7094.36
709530,7095.3
709629,7096.29
709729,7097.29
709839,7098.39
709954,7099.54
710064,7100.64
710174,7101.74
710278,7102.78
710377,7103.77
710481,7104.81
710584,7105.84
710681,7106.81
710774,7107.74
710876,7108.76
710989,7109.89
711100,7111.0
711216,7112.16
711330,7113.3
711440,7114.4
711548,7115.48
711654,7116.54
711755,7117.55
711852,7118.52
711949,7119.49
712045,7120.45
712140,7121.4
712230,7122.3
712323,7123.23
712427,7124.27
712537,7125.37
712651,7126.51
712768,7127.68
712883,7128.83
712998,7129.98
713112,7131.12
713219,7132.19
713327,7133.27
713432,7134.32
713532,7135.32
713631,7136.31
713731,7137.31
713832,7138.32
713931,7139.31
714033,7140.33
714137,7141.37
714235,7142.35
714332,7143.32
714433,7144.33
714533,7145.33
714630,7146.3
714730,7147.3
714837,7148.37
714937,7149.37
715032,7150.32
715128,7151.28
715227,7152.27
715323,7153.23
715422,7154.22
715529,7155.29
715639,7156.39
715745,7157.45
715842,7158.42
715936,7159.36
716034,7160.34
716131,7161.31
716230,7162.3
716335,7163.35
716437,7164.37
716533,7165.33
716626,7166.26
716715,7167.15
716808,7168.08
716917,7169.17
717034,7170.34
717146,7171.46
717263,7172.63
717377,7173.77
717484,7174.84
717591,7175.91
717697,7176.97
717796,7177.96
717884,7178.84
717971,7179.71
718067,7180.67
718173,7181.73
718273,7182.73
718378,7183.78
718493,7184.93
718604,7186.04
718709,7187.09
718817,7188.17
718928,7189.28
719036,7190.36
719139,7191.39
719241,7192.41
719341,7193.41
719433,7194.33
719519,7195.19
719610,7196.1
719710,7197.1
719813,7198.13
719925,7199.25
720044,7200.44
720156,7201.56
720269,7202.69
720381,7203.81
720486,7204.86
720578,7205.78
720669,7206.69
720762,7207.62
720860,7208.6
720960,7209.6
721063,7210.63
721172,7211.72
721278,7212.78
721382,7213.82
721482,7214.82
721578,7215.78
721665,7216.65
721747,7217.47
721825,7218.25
721900,7219.0
721980,7219.8
722092,7220.92
722201,7222.01
722323,7223.23
722449,7224.49
722567,7225.67
722681,7226.81
722796,7227.96
722908,7229.08
723011,7230.11
723115,7231.15
723216,7232.16
723312,7233.12
723407,7234.07
723507,7235.07
723612,7236.12
723709,7237.09
723809,7238.09
723915,7239.15
724021,7240.21
724127,7241.27
724235,7242.35
724339,7243.39
724438,7244.38
724544,7245.44
724653,7246.53
724761,7247.61
724862,7248.62
724965,7249.65
725069,7250.69
725173,7251.73
725271,7252.71
725372,7253.72
725476,7254.76
725580,7255.8
725681,7256.81
725783,7257.83
725889,7258.89
725994,7259.94
726096,7260.96
726201,7262.01
726306,7263.06
726407,7264.07
726502,7265.02
726591,7265.91
726673,7266.73
726753,7267.53
726832,7268.32
726912,7269.12
726996,7269.96
727077,7270.77
727160,7271.6
727252,7272.52
727339,7273.39
727428,7274.28
727532,7275.32
727639,7276.39
727749,7277.49
727860,7278.6
727967,7279.67
728072,7280.72
728175,7281.75
728273,7282.73
728371,7283.71
728473,7284.73
728576,7285.76
728679,7286.79
728787,7287.87
728891,7288.91
728979,7289.79
729059,7290.59
729136,7291.36
729213,7292.13
729320,7293.2
729436,7294.36
729563,7295.63
729690,7296.9
729808,7298.08
729927,7299.27
730043,7300.43
730152,7301.52
730256,7302.56
730358,7303.58
730459,7304.59
730554,7305.54
730648,7306.48
730742,7307.42
730840,7308.4
730936,7309.36
731023,7310.23
731104,7311.04
731181,7311.81
731256,7312.56
731330,7313.3
731411,7314.11
731517,7315.17
731626,7316.26
731732,7317.32
731846,7318.46
731965,7319.65
732073,7320.73
732176,7321.76
732273,7322.73
732371,7323.71
732466,7324.66
732558,7325.58
732658,7326.58
732766,7327.66
732872,7328.72
732971,7329.71
733074,7330.74
733179,7331.79
733280,7332.8
733377,7333.77
733480,7334.8
733589,7335.89
733697,7336.97
733802,7338.02
733905,7339.05
734009,7340.09
734106,7341.06
734202,7342.02
734306,7343.06
734414,7344.14
734516,7345.16
734614,7346.14
734718,7347.18
734826,7348.26
734933,7349.33
735043,7350.43
735148,7351.48
735247,7352.47
735346,7353.46
735446,7354.46
735546,7355.46
735639,7356.39
735734,7357.34
735829,7358.29
735929,7359.29
736030,7360.3
736134,7361.34
736242,7362.42
736348,7363.48
736447,7364.47
736548,7365.48
736653,7366.53
736754,7367.54
736850,7368.5
736944,7369.44
737044,7370.44
737149,7371.49
737249,7372.49
737357,7373.57
737474,7374.74
737588,7375.88
737696,7376.96
737807,7378.07
737911,7379.11
738009,7380.09
738108,7381.08
738210,7382.1
738306,7383.06
738400,7384.0
738487,7384.87
738567,7385.67
738644,7386.44
738720,7387.2
738796,7387.96
738876,7388.76
738956,7389.56
739046,7390.46
739123,7391.23
739200,7392.0
739270,7392.7
739340,7393.4
739426,7394.26
739511,7395.11
739595,7395.95
739676,7396.76
739759,7397.59
739850,7398.5
739947,7399.47
740046,7400.46
740153,7401.53
740262,7402.62
740361,7403.61
740449,7404.49
740538,7405.38
740636,7406.36
740744,7407.44
740850,7408.5
740962,7409.62
741074,7410.74
741180,7411.8
741288,7412.88
741398,7413.98
741504,7415.04
741608,7416.08
741717,7417.17
741827,7418.27
741934,7419.34
742034,7420.34
742132,7421.32
742235,7422.35
742338,7423.38
742439,7424.39
742550,7425.5
742657,7426.57
742758,7427.58
742850,7428.5
742948,7429.48
743061,7430.61
743176,7431.76
743289,7432.89
743404,7434.04
743515,7435.15
743616,7436.16
743717,7437.17
743819,7438.19
743930,7439.3
744030,7440.3
744126,7441.26
744228,7442.28
744343,7443.43
744458,7444.58
744564,7445.64
744672,7446.72
744776,7447.76
744878,7448.78
744973,7449.73
745072,7450.72
745171,7451.71
745268,7452.68
745358,7453.58
745448,7454.48
745539,7455.39
745636,7456.36
745739,7457.39
745858,7458.58
745970,7459.7
746075,7460.75
746186,7461.86
746300,7463.0
746410,7464.1
746520,7465.2
746628,7466.28
746732,7467.32
746834,7468.34
746934,7469.34
747038,7470.38
747139,7471.39
747241,7472.41
747343,7473.43
747440,7474.4
747537,7475.37
747638,7476.38
747738,7477.38
747836,7478.36
747934,7479.34
748034,7480.34
748136,7481.36
748239,7482.39
748346,7483.46
748451,7484.51
748554,7485.54
748660,7486.6
748766,7487.66
748864,7488.64
748964,7489.64
749064,7490.64
749165,7491.65
749262,7492.62
749363,7493.63
749470,7494.7
749580,7495.8
749685,7496.85
749796,7497.96
749904,7499.04
750009,7500.09
750108,7501.08
750205,7502.05
750303,7503.03
750404,7504.04
750502,7505.02
750600,7506.0
750700,7507.0
750800,7508.0
750899,7508.99
751007,7510.07
751117,7511.17
751220,7512.2
751327,7513.27
751433,7514.33
751532,7515.32
751627,7516.27
751726,7517.26
751825,7518.25
751926,7519.26
752021,7520.21
752116,7521.16
752215,7522.15
752313,7523.13
752409,7524.09
752508,7525.08
752613,7526.13
752720,7527.2
752821,7528.21
752926,7529.26
753032,7530.32
753132,7531.32
753231,7532.31
753330,7533.3
753421,7534.21
753502,7535.02
753580,7535.8
753657,7536.57
753734,7537.34
753812,7538.12
753900,7539.0
753997,7539.97
754124,7541.24
754255,7542.55
754384,7543.84
754502,7545.02
754625,7546.25
754744,7547.44
754852,7548.52
754954,7549.54
755053,7550.53
755153,7551.53
755245,7552.45
755340,7553.4
755440,7554.4
755541,7555.41
755641,7556.41
755744,7557.44
755846,7558.46
755949,7559.49
756055,7560.55
756164,7561.64
756263,7562.63
756359,7563.59
756451,7564.51
756533,7565.33
756617,7566.17
756701,7567.01
756780,7567.8
756859,7568.59
756940,7569.4
757031,7570.31
757141,7571.41
757267,7572.67
757394,7573.94
757504,7575.04
757607,7576.07
757711,7577.11
757812,7578.12
757914,7579.14
758025,7580.25
758137,7581.37
758241,7582.41
758351,7583.51
758463,7584.63
758569,7585.69
758668,7586.68
758772,7587.72
758881,7588.81
758986,7589.86
759086,7590.86
759193,7591.93
759298,7592.98
759402,7594.02
759499,7594.99
759596,7595.96
759695,7596.95
759798,7597.98
759895,7598.95
759997,7599.97
760103,7601.03
760206,7602.06
760303,7603.03
760398,7603.98
760497,7604.97
760602,7606.02
760703,7607.03
760808,7608.08
760913,7609.13
761013,7610.13
761107,7611.07
761207,7612.07
761310,7613.1
761413,7614.13
761511,7615.11
761606,7616.06
761706,7617.06
761811,7618.11
761913,7619.13
762013,7620.13
762114,7621.14
762215,7622.15
762311,7623.11
762405,7624.05
762502,7625.02
762604,7626.04
762701,7627.01
762798,7627.98
762897,7628.97
762990,7629.9
763094,7630.94
763198,7631.98
763298,7632.98
763392,7633.92
763491,7634.91
763595,7635.95
763702,7637.02
763803,7638.03
763907,7639.07
764014,7640.14
764119,7641.19
764215,7642.15
764309,7643.09
764408,7644.08
764512,7645.12
764616,7646.16
764724,7647.24
764838,7648.38
764956,7649.56
765064,7650.64
765166,7651.66
765268,7652.68
765373,7653.73
765477,7654.77
765575,7655.75
765670,7656.7
765770,7657.7
765876,7658.76
765978,7659.78
766079,7660.79
766178,7661.78
766281,7662.81
766379,7663.79
766479,7664.79
766584,7665.84
766690,7666.9
766790,7667.9
766892,7668.92
766992,7669.92
767091,7670.91
767185,7671.85
767280,7672.8
767378,7673.78
767473,7674.73
767569,7675.69
767668,7676.68
767766,7677.66
767864,7678.64
767957,7679.57
768052,7680.52
768146,7681.46
768241,7682.41
768339,7683.39
768441,7684.41
768549,7685.49
768663,7686.63
768778,7687.78
768873,7688.73
768961,7689.61
769053,7690.53
769149,7691.49
769241,7692.41
769328,7693.28
769434,7694.34
769540,7695.4
769649,7696.49
769759,7697.59
769871,7698.71
769977,7699.77
770078,7700.78
770184,7701.84
770292,7702.92
770392,7703.92
770491,7704.91
770592,7705.92
770697,7706.97
770796,7707.96
770894,7708.94
770998,7709.98
771105,7711.05
771206,7712.06
771302,7713.02
771402,7714.02
771505,7715.05
771609,7716.09
771707,7717.07
771807,7718.07
771911,7719.11
772015,7720.15
772117,7721.17
772224,7722.24
772333,7723.33
772438,7724.38
772542,7725.42
772645,7726.45
772747,7727.47
772845,7728.45
772939,7729.39
773035,7730.35
773133,7731.33
773228,7732.28
773327,7733.27
773428,7734.28
773526,7735.26
773625,7736.25
773726,7737.26
773825,7738.25
773918,7739.18
774012,7740.12
774111,7741.11
774209,7742.09
774308,7743.08
774407,7744.07
774508,7745.08
774610,7746.1
774710,7747.1
774812,7748.12
774919,7749.19
775026,7750.26
775126,7751.26
775227,7752.27
775330,7753.3
775431,7754.31
775528,7755.28
775625,7756.25
775725,7757.25
775823,7758.23
775917,7759.17
776017,7760.17
776125,7761.25
776233,7762.33
776336,7763.36
776441,7764.41
776550,7765.5
776656,7766.56
776758,7767.58
776856,7768.56
776953,7769.53
777046,7770.46
777136,7771.36
777235,7772.35
777341,7773.41
777448,7774.48
777552,7775.52
777663,7776.63
777772,7777.72
777875,7778.75
777978,7779.78
778080,7780.8
778175,7781.75
778265,7782.65
778356,7783.56
778451,7784.51
778545,7785.45
778640,7786.4
778741,7787.41
778845,7788.45
778944,7789.44
779042,7790.42
779141,7791.41
779238,7792.38
779331,7793.31
779428,7794.28
779529,7795.29
779626,7796.26
779721,7797.21
779815,7798.15
779903,7799.03
779994,7799.94
780084,7800.84
780179,7801.79
780274,7802.74
780375,7803.75
780481,7804.81
780589,7805.89
780689,7806.89
780791,7807.91
780896,7808.96
780999,7809.99
781094,7810.94
781187,7811.87
781281,7812.81
781379,7813.79
781471,7814.71
781569,7815.69
781673,7816.73
781773,7817.73
781869,7818.69
781965,7819.65
782059,7820.59
782148,7821.48
782238,7822.38
782322,7823.22
782401,7824.01
782479,7824.79
782557,7825.57
782637,7826.37
782715,7827.15
782791,7827.91
782869,7828.69
782960,7829.6
783076,7830.76
783200,7832.0
783325,7833.25
783435,7834.35
783541,7835.41
783647,7836.47
783750,7837.5
783847,7838.47
783949,7839.49
784056,7840.56
784156,7841.56
784249,7842.49
784340,7843.4
784436,7844.36
784543,7845.43
784648,7846.48
784755,7847.55
784872,7848.72
784984,7849.84
785092,7850.92
785203,7852.03
785309,7853.09
785406,7854.06
785506,7855.06
785613,7856.13
785720,7857.2
785824,7858.24
785929,7859.29
786030,7860.3
786128,7861.28
786225,7862.25
786326,7863.26
786428,7864.28
786530,7865.3
786634,7866.34
786741,7867.41
786846,7868.46
786946,7869.46
787046,7870.46
787144,7871.44
787238,7872.38
787334,7873.34
787434,7874.34
787536,7875.36
787633,7876.33
787726,7877.26
787811,7878.11
787891,7878.91
787968,7879.68
788047,7880.47
788127,7881.27
788210,7882.1
788300,7883.0
788390,7883.9
788484,7884.84
788588,7885.88
788701,7887.01
788814,7888.14
788928,7889.28
789035,7890.35
789140,7891.4
789240,7892.4
789338,7893.38
789439,7894.39
789540,7895.4
789642,7896.42
789748,7897.48
789857,7898.57
789961,7899.61
790061,7900.61
790152,7901.52
790233,7902.33
790315,7903.15
790425,7904.25
790531,7905.31
790648,7906.48
790767,7907.67
790882,7908.82
791001,7910.01
791119,7911.19
791242,7912.42
791356,7913.56
791464,7914.64
791575,7915.75
791681,7916.81
791782,7917.82
791881,7918.81
791983,7919.83
792082,7920.82
792186,7921.86
792292,7922.92
792395,7923.95
792494,7924.94
792595,7925.95
792698,7926.98
792801,7928.01
792896,7928.96
792986,7929.86
793077,7930.77
793171,7931.71
793266,7932.66
793356,7933.56
793455,7934.55
793560,7935.6
793667,7936.67
793764,7937.64
793865,7938.65
793967,7939.67
794067,7940.67
794162,7941.62
794263,7942.63
794364,7943.64
794462,7944.62
794557,7945.57
794656,7946.56
794754,7947.54
794849,7948.49
794943,7949.43
795041,7950.41
795143,7951.43
795248,7952.48
795349,7953.49
795453,7954.53
795561,7955.61
795667,7956.67
795753,7957.53
795834,7958.34
795911,7959.11
795991,7959.91
796085,7960.85
796230,7962.3
796369,7963.69
796504,7965.04
796645,7966.45
796775,7967.75
796898,7968.98
797021,7970.21
797137,7971.37
797249,7972.49
797360,7973.6
797462,7974.62
797563,7975.63
797663,7976.63
797760,7977.6
797859,7978.59
797962,7979.62
798069,7980.69
798172,7981.72
798274,7982.74
798373,7983.73
798465,7984.65
798554,7985.54
798646,7986.46
798751,7987.51
798864,7988.64
798982,7989.82
799105,7991.05
799223,7992.23
799343,7993.43
799460,7994.6
799569,7995.69
799678,7996.78
799786,7997.86
799889,7998.89
799997,7999.97
800106,8001.06
800209,8002.09
800311,8003.11
800409,8004.09
800505,8005.05
800597,8005.97
800696,8006.96
800812,8008.12
800930,8009.3
801044,8010.44
801154,8011.54
801265,8012.65
801369,8013.69
801474,8014.74
801577,8015.77
801673,8016.73
801774,8017.74
801888,8018.88
802002,8020.02
802110,8021.1
802223,8022.23
802330,8023.3
802431,8024.31
802528,8025.28
802627,8026.27
802727,8027.27
802828,8028.28
802936,8029.36
803045,8030.45
803148,8031.48
803250,8032.5
803350,8033.5
803446,8034.46
803539,8035.39
803637,8036.37
803740,8037.4
803842,8038.42
803952,8039.52
804065,8040.65
804178,8041.78
804283,8042.83
804388,8043.88
804496,8044.96
804597,8045.97
804697,8046.97
804804,8048.04
804910,8049.1
805013,8050.13
805120,8051.2
805229,8052.29
805335,8053.35
805431,8054.31
805525,8055.25
805621,8056.21
805716,8057.16
805805,8058.05
805893,8058.93
805985,8059.85
806078,8060.78
806172,8061.72
806277,8062.77
806385,8063.85
806487,8064.87
806585,8065.85
806680,8066.8
806772,8067.72
806860,8068.6
806946,8069.46
807028,8070.28
807109,8071.09
807187,8071.87
807267,8072.67
807348,8073.48
807436,8074.36
807534,8075.34
807660,8076.6
807786,8077.86
807900,8079.0
808012,8080.12
808125,8081.25
808233,8082.33
808329,8083.29
808419,8084.19
808512,8085.12
808607,8086.07
808707,8087.07
808804,8088.04
808899,8088.99
808998,8089.98
809099,8090.99
809196,8091.96
809294,8092.94
809394,8093.94
809494,8094.94
809587,8095.87
809679,8096.79
809773,8097.73
809866,8098.66
809956,8099.56
810048,8100.48
810135,8101.35
810225,8102.25
810317,8103.17
810416,8104.16
810512,8105.12
810611,8106.11
810716,8107.16
810816,8108.16
810917,8109.17
811003,8110.03
811085,8110.85
811164,8111.64
811243,8112.43
811320,8113.2
811398,8113.98
811481,8114.81
811560,8115.6
811646,8116.46
811756,8117.56
811886,8118.86
812017,8120.17
812135,8121.35
812245,8122.45
812362,8123.62
812477,8124.77
812581,8125.81
812682,8126.82
812789,8127.89
812894,8128.94
812995,8129.95
813088,8130.88
813183,8131.83
813284,8132.84
813386,8133.86
813487,8134.87
813583,8135.83
813677,8136.77
813778,8137.78
813881,8138.81
813981,8139.81
814079,8140.79
814175,8141.75
814274,8142.74
814378,8143.78
814475,8144.75
814572,8145.72
814672,8146.72
814776,8147.76
814873,8148.73
814973,8149.73
815079,8150.79
815188,8151.88
815290,8152.9
815394,8153.94
815493,8154.93
815582,8155.82
815668,8156.68
815754,8157.54
815842,8158.42
815936,8159.36
816048,8160.48
816161,8161.61
816269,8162.69
816374,8163.74
816481,8164.81
816584,8165.84
816678,8166.78
816777,8167.77
816872,8168.72
816962,8169.62
817050,8170.5
817137,8171.37
817221,8172.21
817300,8173.0
817380,8173.8
817461,8174.61
817551,8175.51
817655,8176.55
817752,8177.52
817850,8178.5
817956,8179.56
818057,8180.57
818150,8181.5
818242,8182.42
818332,8183.32
818419,8184.19
818501,8185.01
818581,8185.81
818660,8186.6
818740,8187.4
818832,8188.32
818948,8189.48
819066,8190.66
819179,8191.79
819285,8192.85
819384,8193.84
819483,8194.83
819579,8195.79
819678,8196.78
819781,8197.81
819888,8198.88
819989,8199.89
820086,8200.86
820185,8201.85
820286,8202.86
820385,8203.85
820478,8204.78
820574,8205.74
820672,8206.72
820770,8207.7
820872,8208.72
820980,8209.8
821086,8210.86
821189,8211.89
821288,8212.88
821388,8213.88
821491,8214.91
821586,8215.86
821676,8216.76
821768,8217.68
821861,8218.61
821958,8219.58
822061,8220.61
822172,8221.72
822280,8222.8
822380,8223.8
822479,8224.79
822579,8225.79
822678,8226.78
822774,8227.74
822864,8228.64
822956,8229.56
823053,8230.53
823146,8231.46
823240,8232.4
823339,8233.39
823443,8234.43
823541,8235.41
823638,8236.38
823736,8237.36
823838,8238.38
823948,8239.48
824055,8240.55
824162,8241.62
824274,8242.74
824389,8243.89
824514,8245.14
824638,8246.38
824763,8247.63
824877,8248.77
824991,8249.91
825108,8251.08
825209,8252.09
825310,8253.1
825420,8254.2
825515,8255.15
825607,8256.07
825699,8256.99
825791,8257.91
825877,8258.77
825960,8259.6
826044,8260.44
826129,8261.29
826214,8262.14
826296,8262.96
826377,8263.77
826459,8264.59
826543,8265.43
826627,8266.27
826708,8267.08
826787,8267.87
826866,8268.66
826942,8269.42
827017,8270.17
827092,8270.92
827166,8271.66
827239,8272.39
827314,8273.14
827394,8273.94
827483,8274.83
827575,8275.75
827669,8276.69
827772,8277.72
827875,8278.75
827977,8279.77
828075,8280.75
828166,8281.66
828251,8282.51
828336,8283.36
828423,8284.23
828513,8285.13
828601,8286.01
828688,8286.88
828781,8287.81
828875,8288.75
828967,8289.67
829057,8290.57
829143,8291.43
829227,8292.27
829312,8293.12
829399,8293.99
829487,8294.87
829574,8295.74
829667,8296.67
829762,8297.62
829859,8298.59
829950,8299.5
830039,8300.39
830128,8301.28
830216,8302.16
830301,8303.01
830388,8303.88
830478,8304.78
830571,8305.71
830662,8306.62
830749,8307.49
830834,8308.34
830920,8309.2
831005,8310.05
831085,8310.85
831164,8311.64
831241,8312.41
831319,8313.19
831399,8313.99
831478,8314.78
831555,8315.55
831636,8316.36
831729,8317.29
831829,8318.29
831930,8319.3
832022,8320.22
832118,8321.18
832216,8322.16
832312,8323.12
832405,8324.05
832494,8324.94
832585,8325.85
832677,8326.77
832769,8327.69
832860,8328.6
832950,8329.5
833040,8330.4
833131,8331.31
833221,8332.21
833308,8333.08
833395,8333.95
833483,8334.83
833573,8335.73
833663,8336.63
833755,8337.55
833849,8338.49
833944,8339.44
834042,8340.42
834141,8341.41
834233,8342.33
834323,8343.23
834410,8344.1
834498,8344.98
834597,8345.97
834694,8346.94
