rr_interval_sec
0.97
0.99
1.0
1.01
0.99
0.89
0.94
0.94
0.95
0.91
0.94
0.97
0.99
0.93
0.87
0.92
0.94
0.98
0.92
0.9
0.92
0.93
0.92
0.86
0.92
0.92
0.96
0.92
0.84
0.91
0.92
0.92
0.84
0.86
0.89
0.92
0.83
0.89
0.88
0.94
0.85
0.86
0.91
0.87
0.81
0.86
0.86
0.89
0.84
0.85
0.8
0.82
0.78
0.77
0.81
0.81
0.82
0.87
0.85
0.86
0.77
0.79
0.83
0.88
0.92
0.86
0.8
0.81
0.88
0.92
0.92
0.86
0.87
0.84
0.87
0.91
0.84
0.81
0.87
0.92
0.93
0.91
0.88
0.88
0.91
0.91
0.83
0.85
0.92
0.94
0.98
0.9
0.84
0.93
0.94
0.96
0.89
0.9
0.93
0.96
0.91
0.87
0.93
0.92
0.91
0.84
0.87
0.92
0.91
0.92
0.83
0.87
0.9
0.93
0.88
0.81
0.85
0.82
0.78
0.82
0.92
0.92
0.88
0.87
0.91
0.94
0.91
0.84
0.91
0.92
0.93
0.86
0.84
0.87
0.93
0.92
0.84
0.87
0.93
0.95
0.95
0.87
0.89
0.92
0.94
0.96
0.86
0.86
0.91
0.94
0.93
0.86
0.91
0.95
0.97
0.92
0.87
0.93
0.96
1.0
0.93
0.84
0.91
0.91
0.91
0.91
0.89
0.92
0.96
0.97
0.89
0.89
0.93
0.94
0.92
0.84
0.92
0.92
0.87
0.8
0.78
0.76
0.86
0.93
0.89
0.84
0.89
0.9
0.92
0.89
0.8
0.83
0.87
0.93
0.91
0.84
0.85
0.87
0.93
0.9
0.81
0.87
0.89
0.9
0.81
0.82
0.84
0.9
0.93
0.85
0.89
0.91
0.92
0.93
0.84
0.86
0.9
0.93
0.89
0.81
0.87
0.88
0.88
0.8
0.81
0.91
0.9
0.84
0.85
0.91
0.93
0.94
0.87
0.86
0.89
0.96
0.95
0.86
0.86
0.87
0.91
0.92
0.85
0.82
0.89
0.91
0.94
0.91
0.85
0.91
0.92
0.95
0.93
0.84
0.89
0.92
0.93
0.95
0.88
0.89
0.91
0.93
0.91
0.83
0.88
0.91
0.94
0.89
0.91
0.93
0.96
0.94
0.87
0.94
0.94
0.92
0.8
0.83
0.87
0.94
0.91
0.84
0.86
0.9
0.94
0.96
0.87
0.86
0.92
0.96
0.98
0.9
0.9
0.94
0.97
0.89
0.86
0.95
0.95
0.99
0.9
0.88
0.92
0.96
0.92
0.83
0.92
0.95
0.95
0.84
0.88
0.9
0.95
0.93
0.85
0.94
0.94
0.96
0.87
0.87
0.92
0.94
0.94
0.85
0.85
0.9
0.95
0.95
0.85
0.91
0.92
0.96
0.94
0.84
0.89
0.93
0.96
0.86
0.87
0.92
0.94
0.95
0.89
0.92
0.93
0.97
0.91
0.85
0.93
0.95
0.94
0.85
0.89
0.93
0.96
0.95
0.85
0.93
0.89
0.87
0.84
0.81
0.78
0.78
0.91
0.92
0.91
0.87
0.91
0.92
0.92
0.88
0.82
0.83
0.91
0.94
0.93
0.84
0.84
0.89
0.95
0.95
0.88
0.83
0.88
0.93
0.95
0.92
0.84
0.93
0.94
0.96
0.9
0.88
0.95
0.99
0.98
0.93
0.92
0.94
0.96
0.95
0.87
0.93
0.93
0.98
0.95
0.86
0.87
0.91
0.94
0.94
0.87
0.85
0.92
0.94
0.97
0.89
0.83
0.89
0.93
0.92
0.86
0.87
0.93
0.94
0.95
0.91
0.9
0.93
0.97
0.92
0.88
0.89
0.9
0.94
0.86
0.83
0.91
0.94
0.98
0.93
0.91
0.95
0.99
0.99
0.91
0.93
0.94
0.97
0.96
0.89
0.94
0.95
0.99
0.96
0.87
0.92
0.93
0.93
0.86
0.9
0.93
0.95
0.96
0.86
0.86
0.93
0.95
0.93
0.85
0.88
0.93
0.94
0.9
0.85
0.95
0.96
0.99
0.92
0.85
0.93
0.92
0.94
0.85
0.88
0.93
0.95
0.96
0.86
0.86
0.94
0.94
0.98
0.9
0.87
0.93
0.95
0.94
0.85
0.92
0.94
0.96
0.94
0.84
0.92
0.92
0.93
0.89
0.87
0.92
0.93
0.94
0.88
0.87
0.87
0.95
0.86
0.8
0.77
0.77
0.9
0.89
0.93
0.94
0.82
0.88
0.88
0.85
0.81
0.8
0.87
0.96
0.98
0.91
0.87
0.96
0.99
1.02
0.93
0.9
0.94
0.97
0.96
0.86
0.9
0.93
0.97
0.97
0.9
0.87
0.96
0.97
0.99
0.92
0.89
0.93
0.94
0.97
0.9
0.91
0.94
1.01
1.01
0.92
0.87
0.95
0.98
0.98
0.89
0.95
0.98
1.01
0.95
0.94
0.97
1.02
1.02
0.93
0.95
0.98
1.01
0.98
0.87
0.95
0.95
0.99
0.95
0.85
0.88
0.94
1.0
0.93
0.88
0.94
0.96
0.94
0.86
0.93
0.93
0.93
0.87
0.86
0.91
0.92
0.82
0.86
0.87
0.87
0.8
0.84
0.84
0.89
0.81
0.79
0.81
0.94
0.89
0.89
0.9
0.88
0.84
0.84
0.84
0.79
0.78
0.8
0.87
0.88
0.87
0.8
0.83
0.84
0.86
0.86
0.88
0.8
0.8
0.84
0.9
0.91
0.9
0.79
0.82
0.81
0.79
0.76
0.8
0.83
0.83
0.78
0.75
0.76
0.75
0.73
0.74
0.65
0.66
0.72
0.72
0.76
0.76
0.73
0.72
0.77
0.81
0.82
0.81
0.79
0.82
0.86
0.89
0.9
0.85
0.84
0.85
0.85
0.88
0.83
0.81
0.8
0.85
0.88
0.9
0.8
0.8
0.81
0.83
0.89
0.89
0.86
0.89
0.9
0.9
0.91
0.83
0.8
0.85
0.91
0.91
0.84
0.81
0.89
0.87
0.91
0.83
0.81
0.86
0.9
0.9
0.8
0.81
0.84
0.89
0.88
0.79
0.82
0.87
0.91
0.9
0.8
0.83
0.86
0.86
0.86
0.8
0.84
0.88
0.92
0.93
0.83
0.88
0.89
0.93
0.9
0.79
0.82
0.84
0.9
0.79
0.82
0.85
0.88
0.84
0.8
0.83
0.89
0.9
0.81
0.81
0.87
0.92
0.94
0.84
0.85
0.87
0.85
0.88
0.79
0.78
0.84
0.9
0.94
0.89
0.87
0.9
0.8
0.89
0.92
0.82
0.93
0.91
0.95
0.91
0.92
0.92
0.95
0.85
0.88
0.91
0.92
0.83
0.81
0.83
0.84
0.87
0.94
0.82
0.83
0.91
0.91
0.93
0.85
0.84
0.94
0.92
0.82
0.82
0.85
0.91
0.81
0.8
0.83
0.82
0.77
0.75
0.75
0.81
0.83
0.86
0.79
0.85
0.87
0.83
0.81
0.77
0.83
0.92
0.86
0.79
0.83
0.82
0.85
0.79
0.86
0.9
0.8
0.83
0.85
0.93
0.84
0.84
0.88
0.84
0.8
0.85
0.88
0.91
0.79
0.85
0.88
0.92
0.81
0.83
0.82
0.84
0.77
0.79
0.84
0.94
0.82
0.82
0.86
0.95
0.83
0.83
0.89
0.92
0.89
0.8
0.87
0.9
0.91
0.85
0.8
0.86
0.92
0.93
0.89
0.8
0.9
0.84
0.81
0.77
0.83
0.9
0.88
0.82
0.89
0.91
0.98
0.98
0.89
0.91
0.93
0.97
0.91
0.83
0.92
0.95
0.95
0.82
0.83
0.88
0.93
0.85
0.82
0.9
0.94
0.85
0.86
0.95
0.97
0.91
0.84
0.93
0.92
0.85
0.81
0.85
0.92
0.91
0.8
0.85
0.88
0.92
0.83
0.8
0.79
0.82
0.89
0.84
0.81
0.86
0.91
0.93
0.95
0.87
0.91
0.92
0.96
0.97
0.84
0.87
0.89
0.95
0.91
0.83
0.86
0.9
0.92
0.92
0.82
0.87
0.87
1.14
1.15
0.82
1.08
0.87
0.92
0.87
0.91
0.95
1.02
0.99
0.92
0.95
0.99
1.0
0.89
0.86
0.95
0.95
0.99
0.88
0.85
0.94
0.94
0.96
0.85
0.84
0.91
0.94
0.98
0.92
0.93
0.96
1.03
1.0
0.88
0.93
0.95
0.98
0.88
0.86
0.95
0.99
0.97
0.86
0.92
0.93
0.95
0.85
0.86
0.89
0.95
0.85
0.85
0.93
0.95
0.97
0.87
0.84
0.91
0.94
0.94
0.82
0.8
0.81
0.88
0.88
0.81
0.79
0.79
0.87
0.95
0.96
0.92
0.98
1.06
1.11
0.96
0.97
0.99
0.99
0.85
0.83
0.84
0.95
0.91
0.81
0.82
0.85
0.95
0.93
0.84
0.86
0.86
0.92
0.87
0.83
0.88
0.94
0.98
0.95
0.87
0.93
0.92
0.92
0.83
0.84
0.92
0.93
1.0
0.93
0.84
0.88
0.92
0.93
0.87
0.84
0.9
0.94
0.97
0.95
0.9
0.91
0.97
0.99
1.02
0.9
0.86
0.88
0.92
0.85
0.81
0.77
0.79
0.91
0.92
0.98
0.91
0.88
0.93
0.96
0.93
0.85
0.88
0.94
0.96
0.94
0.85
0.86
0.88
0.86
0.79
0.81
0.91
0.91
0.89
0.82
0.85
0.92
0.92
0.94
0.83
0.82
0.84
0.92
0.91
0.88
0.84
0.91
0.91
0.94
0.9
0.81
0.87
0.89
0.94
0.9
0.81
0.91
0.92
0.94
0.87
0.83
0.9
0.92
0.92
0.83
0.84
0.86
0.95
0.95
0.9
0.9
0.93
0.97
0.93
0.84
0.93
0.94
0.98
0.92
0.88
0.96
0.97
0.95
0.84
0.86
0.87
0.96
0.91
0.84
0.93
0.93
0.97
0.95
0.86
0.93
0.94
0.95
0.86
0.83
0.87
0.94
0.94
0.85
0.86
0.92
0.92
0.96
0.9
0.83
0.88
0.93
0.96
0.87
0.85
0.9
0.93
0.92
0.82
0.83
0.87
0.96
0.94
0.84
0.84
0.85
0.95
0.91
0.82
0.83
0.89
0.94
0.93
0.84
0.87
0.92
0.93
0.85
0.88
0.93
0.94
0.93
0.85
0.9
0.91
0.89
0.82
0.82
0.84
0.94
0.92
0.84
0.84
0.89
0.94
0.85
0.83
0.88
0.94
0.89
0.84
0.87
0.92
0.95
0.86
0.87
0.92
0.92
0.83
0.84
0.89
0.94
0.85
0.83
0.88
0.9
0.9
0.81
0.86
0.88
0.93
0.85
0.84
0.88
0.93
0.91
0.83
0.88
0.9
0.94
0.84
0.85
0.87
0.92
0.91
0.83
0.84
0.88
0.89
0.81
0.8
0.83
0.89
0.96
0.9
0.9
0.93
0.82
0.86
0.81
0.85
0.82
0.79
0.77
0.76
0.76
0.77
0.77
0.79
0.81
0.76
0.74
0.71
0.73
0.76
0.85
0.77
0.81
0.84
0.85
0.8
0.76
0.75
0.93
0.92
0.91
0.9
0.91
0.91
0.92
0.9
0.93
0.94
0.95
0.91
0.91
0.89
0.92
0.84
0.84
0.87
0.92
0.87
0.81
0.87
0.87
0.84
0.8
0.54
0.54
0.54
0.51
1.07
1.07
0.99
0.9
0.94
0.95
0.9
0.91
0.9
0.87
0.86
0.83
0.89
0.89
0.84
0.94
0.97
0.94
0.85
0.8
0.81
0.82
0.79
0.9
0.81
0.84
0.9
0.89
0.89
0.89
0.82
0.79
0.79
0.8
0.76
0.76
0.76
0.79
0.78
0.79
0.8
0.86
0.8
0.78
0.79
0.79
0.81
0.79
0.81
0.82
0.77
0.78
0.8
0.85
0.78
0.76
0.75
0.78
0.8
0.81
0.83
0.82
0.82
0.77
0.8
0.86
0.87
0.89
0.87
0.87
0.76
0.78
0.85
0.87
0.8
0.78
0.83
0.92
0.95
0.99
0.93
0.86
0.86
0.83
0.85
0.81
0.77
0.78
0.86
0.81
0.81
0.82
0.91
0.93
0.97
0.97
0.95
0.93
0.92
0.86
0.8
0.79
0.81
0.91
0.91
0.92
0.91
0.82
0.79
0.77
0.81
0.9
0.9
0.92
0.87
0.8
0.86
0.89
0.9
0.91
0.83
0.8
0.81
0.86
0.92
0.9
0.92
0.83
0.82
0.85
0.93
0.92
0.87
0.91
0.82
0.83
0.87
0.83
0.82
0.8
0.78
0.75
0.74
0.73
0.72
0.72
0.72
0.7
0.69
0.7
0.75
0.75
0.75
0.72
0.73
0.76
0.83
0.75
0.76
0.81
0.92
0.88
0.82
0.86
0.87
0.9
0.85
0.86
0.91
0.93
0.92
0.85
0.88
0.91
0.92
0.93
0.86
0.85
0.88
0.9
0.88
0.85
0.83
0.83
0.85
0.87
0.89
0.87
0.83
0.8
0.87
0.91
0.95
0.93
0.84
0.81
0.87
0.91
0.92
0.86
0.82
0.84
0.9
0.92
0.94
0.95
0.85
0.86
0.93
0.93
0.94
0.96
0.88
0.83
0.85
0.93
0.92
0.92
0.8
0.81
0.81
0.92
0.93
0.98
0.9
0.85
0.92
0.92
0.91
0.81
0.82
0.87
0.94
0.93
0.83
0.84
0.89
0.91
0.88
0.82
0.87
0.91
0.93
0.85
0.85
0.84
0.91
0.91
0.91
0.85
0.85
0.91
0.9
0.91
0.84
0.79
0.8
0.85
0.93
0.95
0.89
0.85
0.91
0.92
0.96
0.93
0.85
0.91
0.92
0.94
0.91
0.81
0.86
0.89
0.93
0.88
0.81
0.82
0.9
0.93
0.93
0.8
0.79
0.81
0.74
0.73
0.75
0.78
0.75
0.78
0.8
0.8
0.81
0.8
0.75
0.73
0.67
0.7
0.71
0.98
0.99
0.76
0.76
0.73
0.71
0.71
0.67
0.68
0.68
0.74
0.74
0.72
0.71
0.72
0.77
0.82
0.8
0.77
0.78
0.88
0.94
0.93
0.86
0.89
0.94
0.96
0.89
0.88
0.9
0.92
0.91
0.86
0.85
0.91
0.93
0.89
0.87
0.88
0.92
0.95
0.88
0.87
0.89
0.93
0.93
0.87
0.86
0.9
0.91
0.92
0.86
0.86
0.9
0.91
0.9
0.86
0.89
0.9
0.91
0.94
0.9
0.88
0.91
0.94
0.9
0.86
0.9
0.92
0.93
0.86
0.89
0.9
0.9
0.87
0.85
0.85
0.9
0.93
0.93
0.9
0.89
0.94
0.96
0.94
0.89
0.89
0.92
0.96
0.96
0.9
0.89
0.92
0.94
0.98
0.9
0.89
0.9
0.95
0.96
0.92
0.91
0.92
0.9
0.92
0.81
0.81
0.81
0.9
0.91
0.81
0.82
0.82
0.91
0.91
0.93
0.89
0.86
0.93
0.92
0.95
0.85
0.83
0.82
0.9
0.92
0.85
0.86
0.84
0.94
0.92
0.92
0.83
0.82
0.82
0.9
0.93
0.85
0.87
0.84
0.89
0.94
0.98
0.88
0.83
0.84
0.84
0.85
0.94
0.81
0.84
0.82
0.87
0.93
0.94
0.87
0.86
0.87
0.93
0.93
0.85
0.83
0.81
0.86
0.95
0.93
0.86
0.83
0.81
0.84
0.94
0.95
0.89
0.83
0.82
0.83
0.92
0.92
0.86
0.85
0.86
0.9
0.94
0.85
0.83
0.82
0.82
0.87
0.93
0.92
0.82
0.82
0.81
0.85
0.93
0.84
0.77
0.77
0.74
0.76
0.79
0.86
0.91
0.85
0.82
0.86
0.89
0.93
0.84
0.86
0.9
0.93
0.93
0.86
0.85
0.85
0.92
0.93
0.89
0.85
0.85
0.9
0.93
0.89
0.84
0.85
0.89
0.95
0.94
0.86
0.85
0.87
0.93
0.93
0.9
0.84
0.84
0.92
0.92
0.93
0.85
0.83
0.83
0.86
0.94
0.95
0.98
0.87
0.86
0.92
0.94
0.98
0.9
0.85
0.91
0.96
0.98
0.88
0.86
0.87
0.98
0.98
1.0
0.94
0.94
0.93
0.85
0.83
0.83
0.87
0.97
0.84
0.85
0.91
0.96
0.98
0.89
0.86
0.88
0.97
0.97
0.86
0.85
0.87
0.96
0.91
0.84
0.85
0.9
0.96
0.92
0.83
0.84
0.85
0.97
0.95
0.84
0.84
0.86
0.95
0.95
0.86
0.83
0.86
0.92
0.93
0.86
0.84
0.84
0.87
0.96
0.86
0.84
0.81
0.84
0.93
0.9
0.84
0.83
0.84
0.93
0.91
0.85
0.84
0.9
0.94
0.94
0.83
0.84
0.85
0.94
0.92
0.83
0.84
0.83
0.88
0.93
0.83
0.84
0.82
0.86
0.95
0.94
0.83
0.85
0.82
0.87
0.95
0.93
0.83
0.84
0.82
0.88
0.96
0.95
0.88
0.87
0.85
0.95
0.94
0.97
0.86
0.86
0.86
0.94
0.94
0.89
0.85
0.85
0.87
0.96
0.94
0.94
0.84
0.84
0.86
0.95
0.92
0.93
0.83
0.83
0.84
0.94
0.9
0.9
0.83
0.82
0.82
0.9
0.92
0.83
0.83
0.85
0.92
0.93
0.9
0.83
0.85
0.91
0.95
0.93
0.83
0.84
0.85
0.97
0.93
0.85
0.9
0.94
0.93
0.84
0.87
0.93
0.97
0.91
0.84
0.88
0.88
0.94
0.84
0.84
0.89
0.96
0.96
0.91
0.86
0.93
0.96
0.95
0.87
0.85
0.85
0.9
0.94
0.82
0.82
0.87
0.97
0.96
0.87
0.86
0.95
0.95
0.97
0.84
0.83
0.83
0.95
0.92
0.84
0.82
0.84
0.94
0.9
0.84
0.82
0.84
0.92
0.94
0.85
0.85
0.88
0.96
0.96
0.88
0.83
0.86
0.9
0.93
0.83
0.83
0.87
0.97
0.97
0.88
0.87
0.94
0.95
0.94
0.84
0.83
0.87
0.94
0.91
0.82
0.82
0.85
0.95
0.94
0.85
0.84
0.85
0.87
0.87
0.82
0.8
0.82
0.94
0.93
0.83
0.85
0.91
0.95
0.94
0.83
0.84
0.9
0.95
0.92
0.83
0.83
0.86
0.94
0.92
0.83
0.82
0.85
0.94
0.92
0.83
0.83
0.85
0.96
0.95
0.85
0.83
0.85
0.95
0.89
0.86
0.9
0.9
0.94
0.84
0.83
0.81
0.85
0.96
0.89
0.84
0.84
0.91
0.93
0.97
0.89
0.87
0.86
0.93
0.96
0.88
0.86
0.87
0.9
0.97
0.89
0.86
0.87
0.92
0.95
0.93
0.83
0.83
0.84
0.93
0.94
0.94
0.91
0.83
0.85
0.91
0.94
0.87
0.84
0.84
0.83
0.92
0.95
0.83
0.83
0.87
0.97
1.0
0.95
0.9
0.98
0.98
1.0
0.96
0.84
0.84
0.88
0.98
0.93
0.85
0.88
0.88
0.93
0.87
0.83
0.83
0.88
1.01
1.01
0.93
0.88
0.97
1.0
0.86
0.82
0.77
0.75
0.76
0.89
0.82
0.79
0.81
0.9
0.94
0.94
0.98
0.98
0.91
0.95
0.96
0.94
0.92
0.87
0.86
0.86
0.78
0.78
0.78
0.76
0.79
0.76
0.75
0.75
0.71
0.71
0.72
0.75
0.78
0.78
0.76
0.75
0.8
0.86
0.86
0.83
0.85
0.89
0.94
0.9
0.88
0.89
0.88
0.88
0.89
0.87
0.81
0.76
0.76
0.81
0.82
0.92
0.95
1.0
0.93
0.88
0.9
0.94
0.97
0.99
0.89
0.91
0.92
0.91
0.92
0.91
0.85
0.86
0.93
0.95
0.98
0.95
0.85
0.86
0.95
0.94
0.92
0.85
0.88
0.96
0.98
0.99
0.9
0.9
0.96
0.98
1.0
0.89
0.88
0.93
0.94
0.97
0.96
0.87
0.87
0.92
0.94
0.87
0.87
0.87
0.96
0.98
0.98
0.9
0.92
0.96
0.96
0.88
0.88
0.95
0.95
0.97
0.91
0.88
0.95
0.96
0.99
0.96
0.88
0.93
0.98
0.98
0.89
0.88
0.94
0.98
0.99
0.9
0.88
0.93
0.95
0.92
0.87
0.87
0.91
0.98
0.89
0.87
0.94
0.95
0.87
0.83
0.82
0.82
0.85
0.86
0.81
0.81
0.84
0.9
0.9
0.88
0.86
0.89
0.97
0.95
0.9
0.94
0.94
0.94
0.96
0.86
0.88
0.96
0.98
1.04
0.96
0.92
0.97
0.98
1.04
0.99
0.92
0.99
1.0
0.95
0.96
1.01
1.04
0.96
0.89
0.92
0.99
0.98
0.92
0.92
0.96
0.96
0.98
0.99
0.9
0.92
0.98
0.98
0.94
0.87
0.88
0.96
0.95
0.89
0.86
0.87
0.93
0.96
0.87
0.86
0.87
0.92
0.94
0.84
0.87
0.97
0.97
0.99
0.9
0.93
0.96
0.97
0.96
0.89
0.9
0.96
0.96
0.95
0.84
0.87
0.94
0.96
0.96
0.86
0.9
0.96
0.98
1.0
0.91
0.96
0.96
0.98
0.86
0.87
0.93
0.98
1.0
0.9
0.86
0.83
0.82
0.92
0.83
0.81
0.57
0.52
0.5
0.76
0.74
0.67
0.75
0.76
0.7
0.7
0.72
0.75
0.81
0.74
0.77
0.78
0.84
0.93
0.95
0.92
0.89
0.95
0.96
0.96
0.85
0.87
0.92
0.95
0.98
1.0
0.97
0.88
0.95
0.86
0.82
0.79
0.78
0.81
0.88
0.94
0.96
0.88
0.94
0.95
0.93
0.83
0.89
0.95
0.97
0.91
0.87
0.97
0.96
0.99
0.86
0.9
0.97
0.96
0.97
0.86
0.96
0.95
0.97
0.92
0.87
0.96
0.97
0.98
0.87
0.9
0.99
1.0
0.94
0.89
0.98
0.98
0.97
0.87
0.95
0.98
0.96
0.85
0.87
0.9
0.98
0.86
0.87
0.93
0.97
0.88
0.88
0.89
0.92
0.94
0.83
0.85
0.95
0.96
0.96
0.89
0.93
0.98
0.99
0.9
0.89
0.91
0.97
0.98
0.89
0.87
0.91
0.97
0.89
0.87
0.88
0.96
0.99
1.02
0.89
0.89
0.92
0.97
0.98
0.86
0.86
0.93
0.95
0.91
0.86
0.86
0.94
0.96
0.87
0.85
0.87
0.95
0.95
0.87
0.86
0.87
0.95
0.96
0.92
0.85
0.88
0.97
0.96
0.92
0.86
0.88
0.97
0.95
0.89
0.86
0.89
0.97
0.95
0.89
0.85
0.89
0.96
0.95
0.88
0.91
0.99
1.01
1.0
0.87
0.88
0.89
0.94
0.92
0.86
0.84
0.96
0.95
0.94
0.86
0.88
0.94
0.91
0.84
0.84
0.87
0.93
0.85
0.84
0.84
0.89
0.97
0.84
0.86
0.88
0.95
0.95
0.83
0.85
0.89
0.97
0.91
0.86
0.89
0.94
0.95
0.91
0.85
0.85
0.89
0.98
0.89
0.87
0.86
0.87
0.91
0.84
0.82
0.84
0.92
0.94
0.83
0.89
0.99
1.01
0.96
0.9
0.97
0.96
0.87
0.85
0.87
0.99
0.9
0.87
0.88
0.91
0.98
0.84
0.87
0.9
0.99
0.84
0.88
0.88
0.91
0.87
0.83
0.84
0.88
0.98
0.86
0.85
0.86
0.86
0.91
0.82
0.82
0.9
0.95
0.84
0.85
0.89
0.94
0.87
0.86
0.85
0.87
0.83
0.78
0.75
0.75
0.77
0.77
0.78
0.82
0.88
0.83
0.91
0.92
0.95
0.84
0.85
0.85
0.88
0.86
0.83
0.85
0.97
0.96
0.9
0.95
0.97
1.0
0.91
0.9
0.91
0.96
0.84
0.83
0.87
0.97
0.99
0.9
0.88
0.91
0.97
0.96
0.87
0.86
0.89
0.97
0.92
0.86
0.88
0.97
0.97
0.9
0.85
0.89
0.96
0.95
0.84
0.85
0.87
0.96
0.88
0.84
0.84
0.85
0.96
0.88
0.85
0.85
0.85
0.92
0.81
0.81
0.88
0.97
0.95
0.89
0.94
0.95
0.96
0.84
0.87
0.95
0.94
0.87
0.85
0.89
0.99
0.97
0.86
0.87
0.96
0.95
0.91
0.87
0.86
0.92
0.97
0.92
0.87
0.85
0.86
0.93
0.96
0.92
0.86
0.86
0.93
0.97
0.91
0.89
0.92
0.99
0.96
0.87
0.88
0.9
0.96
0.84
0.84
0.85
0.96
0.88
0.85
0.88
0.94
0.91
0.86
0.86
0.95
0.95
0.86
0.88
0.96
0.95
0.86
0.93
0.94
0.99
0.92
0.87
0.9
0.98
0.97
0.98
0.92
0.89
1.0
1.01
0.93
0.87
0.9
0.96
0.87
0.85
0.88
0.95
0.95
0.85
0.86
0.9
0.97
0.86
0.86
0.9
0.98
0.9
0.86
0.88
0.96
0.95
0.86
0.88
0.97
0.97
0.96
0.86
0.85
0.96
0.97
1.02
0.97
0.87
0.88
0.95
0.87
0.85
0.82
0.81
0.8
0.78
0.82
0.87
0.83
0.91
0.95
0.99
0.89
0.9
0.97
0.97
0.9
0.88
0.88
0.93
0.91
0.88
0.83
0.86
0.95
0.95
0.98
0.88
0.88
0.88
0.94
0.86
0.84
0.83
0.87
0.99
0.95
0.87
0.87
0.88
0.88
0.95
0.82
0.85
0.87
0.98
0.97
0.87
0.88
0.89
0.94
0.88
0.85
0.83
0.86
0.99
0.96
0.9
0.9
0.9
0.96
0.83
0.87
0.96
0.97
0.96
0.88
0.96
0.96
0.96
0.86
0.85
0.9
1.01
1.01
0.92
0.87
0.98
0.99
0.99
0.91
0.89
0.98
1.01
1.03
0.92
0.88
0.97
0.95
0.89
0.86
0.87
0.88
0.88
0.84
0.82
0.86
0.97
0.87
0.87
0.88
0.97
0.96
0.89
0.86
0.87
0.9
0.98
0.86
0.85
0.85
0.89
0.99
0.89
0.85
0.84
0.87
0.88
0.91
0.84
0.82
0.86
0.99
1.0
0.97
0.88
0.93
0.93
1.0
0.91
0.9
0.86
0.99
1.02
1.04
0.93
0.91
0.91
0.99
0.92
0.87
0.85
0.88
0.99
0.89
0.87
0.85
0.85
0.82
0.88
0.84
0.8
0.79
0.76
0.76
0.76
0.79
0.81
0.84
0.84
0.87
0.84
0.85
0.85
0.86
0.82
0.82
0.81
0.86
0.94
0.94
0.85
0.86
0.9
0.99
0.97
0.87
0.88
0.89
0.91
0.89
0.89
0.87
0.85
0.89
0.98
0.91
0.97
0.86
0.87
0.88
0.84
0.81
0.79
0.89
0.93
0.9
0.85
0.85
0.87
0.95
0.92
0.89
0.9
1.16
1.16
0.88
1.11
0.82
0.85
0.91
0.95
0.97
0.98
0.88
0.94
0.94
0.98
0.89
0.85
0.84
0.87
0.97
0.94
0.96
0.84
0.86
0.86
0.91
0.95
0.92
0.85
0.9
0.95
0.95
0.95
0.89
0.88
0.88
0.94
0.96
0.96
0.85
0.84
0.87
0.95
0.96
0.88
0.91
0.92
0.98
0.86
0.89
0.98
0.97
0.99
1.0
0.9
0.92
0.93
0.96
0.86
0.84
0.88
0.95
0.95
0.85
0.93
0.93
0.91
0.87
0.85
0.87
0.99
0.97
0.91
0.99
1.02
1.05
1.02
0.9
0.91
0.95
1.02
0.93
0.91
1.0
1.0
0.94
0.87
0.86
0.91
1.0
0.95
0.87
0.87
0.95
0.99
0.9
0.98
0.99
1.0
0.96
0.89
0.9
0.97
1.01
1.05
1.03
0.91
0.86
0.93
1.01
0.93
0.87
0.93
0.99
0.98
0.89
0.98
0.98
0.97
0.97
1.01
1.0
0.91
0.89
0.9
0.93
1.0
0.97
0.88
0.87
0.9
1.01
1.01
0.91
0.93
0.94
1.0
1.06
1.0
0.89
0.94
0.98
0.9
0.88
0.88
0.89
0.93
0.85
0.85
0.92
1.0
0.96
0.91
1.01
1.02
1.02
0.89
0.89
0.93
0.99
0.97
0.87
0.87
0.9
1.07
1.07
0.98
0.91
0.92
0.94
0.89
0.84
0.85
0.96
0.99
0.92
0.93
1.02
1.05
1.09
0.98
0.97
1.03
1.06
1.04
0.96
0.88
0.93
0.99
0.98
0.99
0.9
0.91
0.92
0.98
0.92
0.89
0.88
0.98
1.01
0.96
0.93
1.03
1.06
1.06
0.96
0.91
0.98
1.02
0.95
0.9
0.95
1.02
1.02
0.96
0.9
0.94
0.95
0.97
0.93
0.87
0.85
0.88
1.03
0.98
0.88
0.93
0.93
0.97
0.88
0.89
0.96
1.02
1.06
0.95
0.93
1.01
1.06
1.08
0.99
0.99
1.0
1.06
1.0
0.92
0.91
1.03
1.08
1.04
0.93
0.96
0.97
1.0
0.89
0.87
0.91
1.0
0.88
0.87
0.91
1.03
0.93
0.98
0.98
1.08
1.03
0.94
0.95
1.04
1.09
1.08
1.01
0.97
1.04
1.08
1.07
0.99
0.91
0.92
0.96
1.03
1.04
0.96
0.9
1.06
1.13
1.1
1.0
1.02
1.02
0.93
0.95
1.05
1.1
1.04
1.04
1.11
1.14
1.02
1.04
1.05
0.96
0.88
0.89
0.93
1.07
0.93
0.93
1.04
1.07
0.99
0.97
1.02
1.02
0.91
1.02
1.02
1.02
0.9
1.03
1.05
1.06
0.95
0.97
1.07
1.11
0.96
0.91
0.98
0.98
0.96
0.87
0.9
0.98
0.99
0.92
0.92
1.04
1.05
1.1
0.94
0.9
1.0
1.0
1.0
0.93
0.87
1.0
1.0
1.0
0.89
0.88
1.0
1.0
1.01
0.92
0.92
1.01
1.03
1.01
0.92
1.02
1.01
1.03
0.93
0.92
1.0
1.02
0.95
0.88
0.93
0.93
0.94
0.86
0.9
1.01
1.01
0.98
0.89
1.06
1.1
1.07
0.97
0.95
1.06
1.1
1.04
0.92
0.91
0.91
0.95
0.96
0.87
0.87
0.99
1.02
1.04
0.97
0.94
1.05
1.06
1.0
0.91
0.92
0.93
0.95
1.0
0.87
0.9
0.98
1.0
1.03
0.94
0.92
0.92
0.95
0.98
0.88
0.89
1.01
1.04
1.06
0.98
0.97
0.97
1.06
0.95
0.92
0.88
1.01
1.02
1.04
0.98
1.01
1.05
1.13
1.05
0.95
0.96
1.04
1.0
0.92
0.88
0.92
0.98
0.98
0.89
0.9
0.91
0.96
0.97
0.87
0.89
0.97
1.01
1.03
0.96
0.9
0.99
0.99
1.03
0.87
0.88
0.89
1.01
1.0
0.91
0.92
0.92
0.95
0.9
0.91
0.91
1.06
1.09
1.04
0.94
0.95
0.95
1.01
0.87
0.86
0.91
1.01
1.0
0.97
0.91
0.92
1.03
1.05
1.03
0.91
0.91
0.94
1.02
1.0
0.9
0.88
1.0
1.01
1.03
0.91
0.91
0.92
0.99
0.98
0.86
0.88
0.99
0.98
1.0
0.9
1.0
1.01
1.05
0.89
0.94
1.02
1.04
0.98
0.91
0.95
0.95
0.98
0.87
0.85
0.89
0.96
0.95
0.95
0.9
1.11
1.18
1.12
1.01
0.96
0.96
1.0
0.97
0.88
0.91
1.02
1.02
1.02
0.95
0.94
0.94
1.03
1.0
0.89
0.87
0.91
1.02
1.04
0.99
0.94
1.02
1.07
1.12
1.03
0.94
0.95
1.02
0.98
0.91
0.89
0.99
1.01
1.0
0.89
0.88
0.88
0.88
0.88
0.91
0.83
0.85
0.88
0.98
0.99
0.9
0.96
0.96
0.93
0.87
0.84
0.91
0.98
0.98
0.91
0.92
0.92
1.01
0.93
0.9
0.88
1.02
1.05
1.06
0.98
0.94
0.94
0.97
0.89
0.87
0.91
1.0
0.99
0.88
0.96
0.97
1.0
0.92
0.89
0.86
0.91
1.01
0.98
0.88
0.88
0.88
0.92
0.98
0.88
0.87
0.86
0.97
0.99
1.0
0.89
0.9
0.89
0.96
1.0
0.84
0.86
0.94
1.01
1.09
1.01
0.92
0.92
0.97
0.98
0.86
0.88
0.98
0.99
1.01
0.89
0.92
0.93
0.88
0.82
0.8
0.78
0.78
0.82
0.82
0.76
0.77
0.76
0.75
0.79
0.85
0.86
0.81
0.87
0.88
0.98
0.98
1.0
0.9
0.95
0.95
1.1
1.08
1.03
0.92
0.97
0.97
1.04
1.0
0.89
0.87
0.89
0.98
0.96
0.88
1.0
1.0
1.1
1.05
0.94
0.95
1.04
1.06
1.06
0.94
0.98
0.99
1.03
0.94
0.89
0.88
0.99
1.01
0.99
0.88
0.93
0.94
0.98
0.91
0.87
0.92
1.03
1.05
0.98
1.01
1.05
1.11
1.02
0.97
0.98
1.06
1.04
0.92
0.9
1.03
1.06
1.05
0.94
0.97
0.98
1.03
0.96
0.89
0.92
1.02
1.04
1.0
0.93
0.95
0.95
1.0
0.94
0.88
0.87
0.91
0.98
0.97
0.86
0.91
0.91
1.01
0.93
0.9
0.89
1.02
1.05
1.04
0.95
0.97
0.97
0.96
0.88
0.88
1.02
1.06
1.07
0.99
1.02
1.02
1.07
0.97
0.9
0.99
1.05
1.09
1.04
0.92
0.94
0.95
0.98
0.95
0.89
0.86
0.9
1.03
1.02
0.97
0.91
0.92
0.95
0.98
0.93
0.88
0.88
1.0
1.0
0.98
0.88
0.9
0.91
0.93
0.92
0.86
0.85
0.92
1.03
1.01
0.91
0.87
0.87
0.91
0.99
0.87
0.88
0.86
1.01
1.04
1.04
0.93
0.95
0.96
1.02
0.91
0.88
0.9
1.0
1.03
0.97
0.91
0.94
0.94
1.02
0.95
0.9
0.84
0.89
1.0
1.0
0.97
0.93
1.01
1.05
0.97
0.91
0.93
0.99
1.02
0.91
0.89
0.89
0.99
1.0
0.91
0.88
0.89
0.93
1.0
0.92
0.87
0.87
0.89
0.93
1.01
0.9
0.89
0.88
0.95
1.02
0.97
0.91
0.94
0.94
1.02
0.96
0.9
0.87
0.94
1.04
1.06
0.97
0.92
0.93
0.97
0.98
0.9
0.88
1.01
1.01
1.01
0.91
0.91
0.92
1.04
0.97
0.92
0.87
0.92
1.02
0.99
0.9
0.89
0.9
0.97
0.96
0.9
0.86
0.93
1.02
1.02
0.92
0.9
0.9
0.97
1.0
0.94
0.88
0.84
0.9
1.01
1.0
0.91
0.91
0.92
1.01
0.92
0.89
0.85
0.88
0.96
0.98
0.88
0.87
0.88
0.92
1.0
0.9
0.87
0.89
0.99
0.98
0.94
0.91
0.98
0.98
0.96
0.89
0.85
0.93
1.0
1.01
0.9
0.9
0.9
0.96
0.99
0.91
0.86
0.87
0.93
0.91
0.94
0.87
0.86
0.9
0.99
0.89
0.89
0.85
0.94
0.95
0.91
0.87
0.86
0.92
1.05
1.01
0.91
0.91
0.91
0.99
0.93
0.93
0.85
0.87
0.91
0.99
0.87
0.9
0.9
1.0
0.98
0.9
0.92
0.92
1.03
1.01
0.93
0.91
0.9
1.02
1.03
0.95
0.91
1.01
1.06
1.05
0.93
0.91
0.92
1.02
0.98
0.96
0.88
0.96
1.33
1.33
1.36
1.37
0.89
0.91
0.85
0.84
0.89
1.0
0.99
0.9
0.9
0.99
1.04
1.07
0.99
0.92
0.93
0.97
1.01
0.92
0.89
0.99
1.0
1.0
0.91
0.92
0.92
1.02
1.01
0.92
0.9
0.97
1.01
1.0
0.91
0.88
0.88
0.92
0.94
0.96
0.88
0.87
0.92
1.03
1.0
0.91
0.96
0.97
1.01
0.97
0.9
0.86
0.95
1.02
1.02
0.9
0.91
0.92
0.98
0.96
0.93
0.86
0.94
0.99
0.99
0.9
0.94
0.94
1.03
1.0
0.91
0.88
0.9
0.99
1.02
0.94
0.91
0.91
0.96
0.97
0.88
0.87
0.88
0.93
0.94
0.89
0.9
1.02
1.05
1.01
0.91
0.93
1.02
1.02
1.0
0.95
0.94
0.95
1.0
0.98
0.92
0.89
1.01
1.07
1.05
0.94
0.99
1.0
1.0
0.97
0.91
0.88
0.99
1.0
1.02
0.93
0.92
0.92
0.99
1.0
0.91
0.89
1.01
1.01
1.03
0.94
0.94
0.94
0.98
0.97
0.9
0.86
0.89
1.0
0.98
0.9
0.87
0.88
0.93
0.95
0.92
0.88
0.91
1.01
1.02
0.94
0.9
0.92
1.01
1.03
1.0
0.89
0.9
0.93
0.96
1.01
0.89
0.88
1.0
1.01
1.0
0.92
0.96
0.96
1.0
0.92
0.9
0.89
1.02
1.03
1.04
0.92
0.92
0.93
0.96
0.94
0.89
0.86
0.93
0.99
1.03
0.93
0.92
0.92
1.03
0.97
0.88
0.88
0.98
1.01
1.07
0.98
0.91
0.92
0.99
0.99
0.88
0.87
0.93
1.04
1.02
0.93
0.9
0.91
0.98
1.0
0.89
0.87
0.92
1.0
1.03
0.96
0.93
0.94
1.03
0.98
0.9
0.9
0.95
0.99
0.96
0.9
0.91
0.91
1.04
0.99
0.92
0.89
1.01
1.0
0.95
0.89
0.87
0.87
0.97
0.95
0.88
0.86
0.97
0.99
1.02
0.94
0.87
0.87
0.85
0.86
0.91
0.92
0.86
0.9
1.01
1.02
0.93
0.96
0.97
1.06
0.98
0.92
0.91
0.98
1.01
0.96
0.87
0.88
0.93
0.96
0.92
0.9
0.86
0.91
0.99
0.94
0.88
0.91
0.92
0.96
0.92
0.87
0.87
0.91
0.99
0.93
0.91
0.89
0.91
0.96
0.92
0.9
0.9
0.97
0.99
0.91
0.9
0.99
0.99
0.94
0.9
0.96
0.97
0.98
0.89
0.86
0.9
0.98
0.99
0.89
0.93
0.94
0.97
0.91
0.88
0.96
1.03
1.03
0.93
0.92
0.92
0.99
0.97
0.89
0.87
0.9
0.97
1.0
0.88
0.89
0.89
0.94
1.0
0.85
0.87
0.9
1.0
1.0
0.89
0.91
0.91
0.96
0.99
0.89
0.88
0.97
1.01
1.01
0.91
0.91
0.92
0.99
1.01
0.89
0.87
0.91
1.0
0.99
0.91
0.88
0.88
0.92
0.9
0.87
0.84
0.92
0.99
0.98
0.88
0.92
0.93
0.99
0.98
0.88
0.87
0.89
0.98
0.91
0.88
0.89
0.92
0.97
0.99
0.88
0.88
0.97
1.0
1.03
0.93
0.95
0.96
1.0
0.95
0.89
0.89
0.95
1.04
1.03
0.91
0.91
0.91
0.99
0.94
0.9
0.88
0.9
1.0
0.95
0.9
0.91
0.92
0.97
0.93
0.88
0.89
0.94
0.99
0.91
0.89
0.89
0.96
0.99
0.92
1.84
1.84
0.91
0.85
0.86
0.89
0.99
0.97
0.89
0.93
0.93
0.97
0.94
0.88
0.86
0.9
1.0
1.01
0.94
0.89
0.98
0.99
1.02
0.88
0.88
0.96
1.02
1.01
0.91
0.91
0.92
0.95
0.98
0.89
0.88
0.94
1.02
1.01
0.93
0.93
0.94
1.03
0.98
0.9
0.89
0.97
0.98
0.97
0.92
0.88
0.89
1.38
1.38
0.86
0.83
0.95
0.95
0.99
0.9
0.88
0.98
0.97
1.01
0.94
0.9
0.91
1.0
0.94
0.9
0.87
0.91
1.01
0.99
0.94
0.89
0.94
0.98
0.97
0.92
0.87
0.9
0.92
1.0
0.92
0.9
0.92
0.92
0.99
0.92
0.86
0.88
0.94
0.98
0.95
0.9
0.9
0.9
1.0
0.97
0.91
0.87
0.93
0.98
0.99
0.9
0.89
0.95
1.05
1.06
0.94
0.91
0.96
1.01
0.99
0.9
0.89
0.9
1.0
0.96
0.92
0.86
0.88
0.95
1.01
0.93
0.9
0.91
0.95
0.98
0.95
0.91
0.88
0.99
1.0
1.01
0.9
0.9
0.91
0.97
0.94
0.92
0.87
0.88
0.93
0.95
0.95
1.17
1.17
1.08
1.09
0.87
0.87
0.98
1.02
1.06
0.96
0.98
0.98
1.03
0.95
0.89
0.91
1.0
1.01
0.98
0.91
0.94
0.94
0.97
0.93
0.89
0.87
0.93
1.0
0.96
0.89
0.94
0.94
1.01
0.92
0.89
0.88
0.94
0.99
0.89
0.89
0.89
0.96
0.95
0.92
0.87
0.88
0.94
1.01
0.99
0.92
0.89
0.89
0.95
0.97
0.89
0.85
0.89
0.97
0.96
0.89
0.91
0.91
1.01
0.96
0.89
0.88
0.97
1.01
0.99
0.92
0.9
0.9
1.0
0.95
0.9
0.87
0.88
0.95
0.98
0.89
0.94
0.95
1.01
0.97
0.9
0.88
0.95
1.03
1.03
0.96
0.89
0.9
0.95
0.95
0.9
0.86
0.89
0.97
0.98
0.89
0.9
0.91
0.97
0.99
0.92
0.88
0.92
0.99
1.0
0.92
0.89
0.9
0.93
1.0
0.9
0.89
0.89
1.0
1.01
0.98
0.92
0.88
0.92
1.01
1.03
0.92
0.89
1.01
1.01
0.98
0.88
0.89
0.89
0.95
0.97
0.92
0.89
0.99
1.01
1.03
0.95
0.9
0.91
0.93
0.98
0.96
0.9
0.85
0.94
1.01
1.0
0.93
0.94
0.94
0.98
0.95
0.9
0.88
0.98
1.01
1.04
0.93
0.9
0.91
0.98
0.94
0.88
0.85
0.89
1.0
0.99
0.89
0.9
0.9
0.97
0.98
0.91
0.87
0.91
1.0
1.0
0.92
0.92
0.92
1.0
0.96
0.9
0.86
0.91
1.03
1.03
0.93
0.94
0.94
1.03
0.96
0.92
0.88
0.88
0.99
0.99
0.97
0.89
0.92
0.93
1.02
0.94
0.88
0.85
0.89
0.98
0.98
0.9
0.91
0.92
0.96
0.93
0.88
0.9
0.99
1.02
0.99
0.89
0.95
0.95
0.96
0.9
0.87
0.87
0.95
1.0
0.96
0.91
0.9
0.91
0.96
0.95
0.91
0.87
0.95
1.04
1.05
0.96
0.92
0.92
1.0
1.01
0.94
0.89
0.89
0.96
1.01
1.0
0.91
0.94
0.95
0.96
0.91
0.88
0.87
0.93
1.02
0.98
0.9
0.89
0.9
0.96
1.0
0.88
0.86
0.89
0.98
1.0
0.95
0.9
0.91
0.96
1.02
0.97
0.91
0.89
0.98
1.01
1.02
0.91
0.9
0.91
0.99
0.93
0.91
0.86
0.87
0.83
0.85
0.88
0.95
0.86
0.9
1.01
1.07
1.07
0.99
1.07
1.07
1.01
0.92
0.92
1.18
1.12
1.04
0.92
0.93
0.93
0.99
0.92
0.88
0.89
0.95
1.0
0.94
0.88
0.9
0.93
0.97
0.9
0.89
0.97
1.02
1.01
0.91
0.9
0.95
1.04
0.98
0.89
0.9
0.93
0.95
0.97
0.89
0.87
0.93
1.01
1.02
0.92
0.94
0.95
1.0
0.98
0.89
0.9
0.96
1.0
0.94
0.89
0.92
0.92
0.97
0.93
0.91
0.88
0.95
1.01
0.98
0.9
0.92
0.99
1.03
0.97
0.9
0.94
0.99
1.01
0.98
0.89
0.9
0.91
0.95
0.96
0.89
0.85
0.91
1.0
1.01
0.92
0.95
0.96
0.98
0.94
0.89
0.87
0.98
1.0
0.92
0.9
0.97
0.97
0.99
0.9
0.87
0.91
1.02
0.99
0.9
0.94
0.94
1.0
0.93
0.91
0.9
1.0
1.03
0.99
0.93
0.91
0.91
1.02
1.02
0.9
0.9
1.0
1.02
1.01
0.93
0.94
0.95
1.01
0.92
0.89
0.88
0.95
1.02
0.97
0.9
0.92
0.93
0.96
0.91
0.86
0.88
0.96
1.0
0.95
0.89
0.88
0.89
0.94
0.97
0.92
0.88
0.91
0.99
1.03
0.98
0.9
0.94
0.95
1.0
0.97
0.89
0.87
0.94
1.01
1.0
0.92
0.91
0.91
0.99
0.94
0.88
0.85
0.92
0.99
1.0
0.96
0.89
0.96
0.96
0.93
0.86
0.84
0.87
0.94
1.0
0.92
0.9
0.97
1.02
1.04
0.94
0.91
0.92
0.99
1.01
0.94
0.91
0.91
1.02
1.08
1.0
0.9
0.99
1.0
0.97
0.9
0.86
1.0
1.01
0.99
0.92
0.91
0.91
0.97
0.95
0.89
0.84
0.91
1.01
0.99
0.91
0.89
0.9
0.97
0.96
0.88
0.87
0.9
0.99
0.95
0.93
0.94
0.94
0.98
0.94
0.9
0.88
1.0
1.02
1.01
0.92
0.94
0.94
0.99
0.95
0.91
0.9
0.97
1.03
0.96
0.9
0.97
0.98
1.01
0.92
0.87
0.93
1.03
1.03
0.95
0.94
0.94
0.99
0.98
0.9
0.88
0.9
0.99
1.0
0.91
0.91
0.91
0.97
0.97
0.9
0.9
0.93
1.04
1.02
0.9
0.96
0.97
1.01
0.98
0.93
0.88
0.95
1.0
0.94
0.91
0.91
1.01
1.05
0.97
0.9
0.9
0.95
1.02
0.92
0.89
0.91
0.97
1.05
1.01
0.92
0.92
0.92
0.98
0.96
0.88
0.85
0.88
0.98
0.96
0.9
0.92
0.92
0.97
0.97
0.9
0.87
0.98
0.98
0.99
0.9
0.9
0.91
0.98
0.96
0.89
0.88
0.94
1.01
1.04
0.91
0.9
0.9
0.94
0.94
0.88
0.85
0.85
0.89
1.0
0.94
0.89
0.9
0.93
0.98
0.9
1.74
1.74
0.9
0.85
0.83
0.89
1.0
0.98
0.91
0.97
0.97
0.99
0.89
0.91
0.92
1.02
1.02
0.94
0.89
0.89
0.92
0.93
0.94
0.88
0.87
0.93
0.99
1.0
0.89
0.89
0.89
0.94
0.96
0.9
0.86
0.91
0.99
1.01
0.93
0.89
0.9
0.93
0.89
0.88
0.85
0.86
0.92
0.96
0.89
1.3
1.3
1.04
0.97
0.9
0.86
0.9
0.97
0.92
0.9
0.91
0.93
0.99
0.91
0.89
0.87
0.96
0.96
0.94
0.91
0.92
1.02
1.01
0.96
0.91
0.9
0.93
1.02
0.95
0.89
0.9
0.92
0.95
0.94
0.87
0.85
0.9
1.0
1.01
0.94
0.9
0.91
0.97
1.0
0.89
0.87
0.87
0.92
1.0
0.96
0.9
0.91
0.92
0.95
0.93
0.88
0.87
0.91
1.01
1.01
0.92
0.9
0.91
0.93
0.93
0.9
0.88
0.89
0.98
1.0
0.99
0.9
0.94
0.94
0.98
0.88
0.86
0.91
0.98
1.01
0.93
0.94
0.95
1.03
0.99
0.9
0.9
0.92
1.01
1.02
0.91
0.91
0.91
0.96
0.89
0.87
0.9
0.99
1.01
0.95
0.93
0.93
0.96
1.0
0.93
0.89
0.87
0.95
1.02
0.97
0.93
0.93
1.0
1.0
0.94
0.89
0.88
0.91
0.98
0.9
0.87
0.87
0.89
0.95
1.01
0.89
0.88
0.91
0.99
0.99
0.92
0.9
0.91
0.94
0.94
0.93
0.88
0.87
0.93
1.01
1.0
0.9
0.91
0.92
0.92
0.87
0.88
1.33
1.33
0.97
0.87
0.86
0.98
1.0
1.02
0.97
0.98
1.0
1.0
0.93
0.93
0.88
0.89
0.95
0.94
0.87
0.86
0.91
0.99
1.01
0.93
0.93
0.93
0.98
0.91
0.87
0.85
0.91
0.99
0.96
0.88
0.97
0.98
1.0
0.92
0.89
0.95
1.01
0.93
0.91
0.93
0.98
0.99
0.95
0.88
0.89
0.88
0.9
0.91
0.86
0.84
0.89
1.0
1.0
0.9
0.94
0.95
0.95
0.89
0.88
0.91
1.03
1.03
0.95
0.95
0.95
1.0
0.94
0.9
0.86
0.99
1.02
1.03
0.94
0.98
0.99
1.02
0.96
0.91
0.88
0.93
1.05
0.99
0.91
0.91
0.92
0.96
0.94
0.88
0.86
0.89
0.99
0.99
0.93
0.91
0.92
0.92
0.94
0.92
0.88
0.86
0.89
0.97
0.91
0.87
0.89
0.89
0.97
0.91
0.9
0.88
0.99
1.0
0.96
0.91
0.92
1.03
1.05
0.95
0.91
0.91
0.96
0.97
0.91
0.87
0.86
0.97
0.99
1.01
0.94
0.92
0.92
1.0
0.97
0.91
0.88
0.9
0.94
0.99
0.89
0.91
0.91
0.91
0.89
0.91
0.88
0.85
0.97
0.99
1.0
0.91
0.95
0.96
0.99
0.91
0.86
0.89
0.99
0.97
0.9
0.88
0.89
0.94
0.96
0.92
0.88
0.87
0.94
0.96
1.01
0.92
0.9
0.9
0.91
0.92
0.97
0.89
0.88
0.91
0.99
0.9
0.89
0.89
0.96
0.93
0.89
0.85
0.88
0.94
0.94
0.88
0.9
0.91
0.94
0.91
0.87
0.89
0.94
1.01
1.01
0.92
0.95
0.96
0.96
0.92
0.91
0.88
0.92
1.02
0.98
0.92
0.91
0.97
1.03
0.96
0.89
0.89
0.93
0.94
0.97
0.91
0.87
0.9
0.99
0.98
0.9
0.87
0.88
0.91
0.96
0.95
0.89
0.86
0.92
1.0
0.96
0.9
0.88
0.89
0.92
1.01
0.88
0.86
0.89
0.98
0.99
0.9
0.89
0.9
0.98
0.96
0.91
0.89
0.92
0.97
1.02
0.94
0.91
0.92
0.98
0.94
0.87
0.87
0.93
0.99
0.95
0.9
0.88
0.89
0.93
0.93
0.88
0.87
0.89
1.0
0.95
0.91
0.89
0.89
0.93
0.97
0.9
0.88
0.93
0.98
0.97
0.9
0.91
0.91
0.94
0.88
0.85
0.87
0.95
1.0
0.96
0.89
0.91
0.92
0.95
0.92
0.87
0.87
0.88
0.91
0.98
0.91
0.88
0.88
0.91
0.98
0.89
0.87
0.98
0.98
1.0
0.91
0.89
0.88
0.93
1.01
1.0
0.91
0.96
0.97
1.03
0.92
0.89
1.0
1.01
1.01
0.9
0.93
0.93
0.97
0.94
0.89
0.89
1.03
1.0
0.97
0.9
0.91
0.91
0.94
0.91
0.85
0.83
0.92
0.93
1.0
0.93
0.88
0.88
0.91
1.0
0.88
0.88
0.98
1.0
1.03
0.93
0.91
0.92
0.99
0.98
0.91
0.86
0.93
0.96
0.95
0.89
0.92
0.93
0.88
0.87
0.87
0.9
0.94
0.9
0.89
0.88
0.98
1.0
0.96
0.95
0.91
1.03
1.01
0.94
0.93
0.93
0.94
0.93
0.89
0.89
0.95
1.03
1.02
0.92
0.96
0.97
0.9
0.87
0.84
0.89
1.01
0.95
0.92
0.9
1.0
1.02
0.95
0.9
0.91
0.96
0.96
0.94
0.88
0.88
0.94
1.0
0.95
0.89
0.88
0.88
0.91
0.93
0.9
0.85
0.84
0.9
0.98
0.91
0.89
0.91
0.91
0.95
0.96
0.88
0.87
0.95
0.99
0.96
0.91
0.95
0.95
0.95
0.9
0.88
0.88
0.98
1.01
1.03
0.96
0.95
0.95
1.0
0.94
0.91
0.89
0.99
1.02
0.98
0.95
0.94
0.94
0.95
0.87
0.86
0.89
0.99
0.88
0.87
0.88
0.93
1.02
1.0
0.9
0.91
0.92
0.95
0.98
0.93
0.89
0.92
1.02
1.02
0.97
0.93
0.93
0.95
0.87
0.86
0.93
0.99
0.95
0.89
0.94
0.95
0.93
0.88
0.87
0.93
1.0
0.94
0.92
1.01
1.03
0.99
0.9
0.87
0.92
0.99
0.88
0.96
1.0
0.93
0.97
0.95
0.87
0.85
0.87
0.95
1.0
0.91
0.89
0.9
0.93
1.0
0.89
0.89
1.01
1.03
1.0
0.93
0.97
0.97
0.98
0.93
0.87
0.86
0.93
0.99
0.98
0.89
0.9
0.91
1.0
1.0
0.9
0.89
0.91
0.96
1.0
0.92
0.89
0.89
0.97
0.96
0.91
0.88
0.89
0.94
1.03
0.95
0.89
0.9
0.93
0.96
0.93
0.87
0.9
0.98
1.01
1.05
0.94
0.91
0.92
0.94
0.88
0.87
0.98
1.01
1.01
0.99
1.05
1.09
1.01
0.92
0.93
0.97
0.99
0.91
0.88
0.92
0.96
1.03
0.96
0.91
0.92
0.95
0.93
0.9
0.86
0.9
0.95
1.01
0.94
0.89
0.9
0.93
0.91
0.89
0.85
0.89
0.95
1.01
0.98
0.9
0.89
1.01
1.03
1.03
0.91
0.93
0.93
0.95
0.93
0.86
0.87
0.97
1.03
0.97
0.9
0.96
0.96
0.94
0.9
0.86
0.84
0.91
1.02
1.04
0.97
0.95
0.95
1.04
1.0
0.92
0.89
0.95
1.05
1.05
1.22
1.22
0.98
0.98
0.98
0.9
0.89
0.9
0.99
0.93
0.89
0.93
1.0
1.02
0.97
0.91
0.98
0.98
1.06
0.96
0.9
0.87
0.94
1.03
1.03
0.99
0.91
0.92
0.98
0.97
0.98
0.94
0.88
0.94
1.03
1.01
0.95
0.89
0.89
0.9
1.01
0.94
0.88
0.89
0.94
0.97
0.9
0.87
0.88
0.9
0.95
0.95
0.88
0.88
0.93
1.0
1.0
0.92
0.94
0.95
1.0
0.94
0.9
0.88
1.01
1.04
1.05
0.94
0.93
0.94
1.03
1.01
0.98
0.91
0.95
0.98
1.03
0.93
0.91
0.92
0.97
0.95
0.9
0.88
0.92
1.02
1.01
0.92
0.94
0.95
0.95
0.9
0.87
0.94
1.01
0.94
0.89
0.9
0.91
0.92
0.87
0.83
0.84
0.88
1.0
1.01
0.93
0.94
0.94
0.95
0.91
0.88
0.93
1.01
0.96
0.92
0.9
1.0
1.01
1.03
0.91
0.91
0.92
0.99
0.95
0.91
0.89
0.95
1.04
1.02
0.93
0.91
0.91
0.96
0.93
0.89
0.84
0.87
0.92
0.94
0.87
0.87
0.87
0.9
0.93
0.92
0.87
0.9
1.0
1.03
1.02
0.94
0.98
0.98
1.0
0.93
0.88
0.92
1.02
1.02
1.01
0.9
0.94
0.95
0.94
0.93
0.89
0.87
0.97
1.0
1.02
0.91
0.93
0.94
0.97
0.99
0.91
0.89
0.97
1.03
1.04
0.92
0.92
0.93
0.95
0.96
0.9
0.9
1.03
1.01
0.97
0.89
0.89
0.96
1.0
0.93
0.9
0.93
1.02
1.01
0.97
0.91
0.91
1.03
0.99
0.92
0.89
0.92
0.92
0.99
0.93
0.87
0.88
0.92
0.95
0.95
0.9
0.9
0.96
1.0
0.93
0.89
0.89
0.94
0.91
0.89
0.84
0.82
0.85
0.93
0.94
0.88
0.91
0.92
0.98
0.97
0.89
0.88
0.92
0.98
1.01
0.9
0.91
0.92
0.97
0.97
0.92
0.9
0.93
0.97
0.99
0.91
0.92
0.92
1.0
0.97
0.92
0.89
0.87
0.9
0.95
0.93
0.91
0.91
0.91
0.95
0.91
0.88
0.93
0.99
0.99
0.92
0.91
0.91
0.94
0.88
0.86
0.87
0.92
0.99
0.93
0.88
0.92
0.93
0.99
0.95
0.88
0.85
0.87
0.93
0.92
0.89
0.86
0.87
0.88
0.93
0.88
0.86
0.92
1.01
1.02
0.95
0.92
0.92
0.97
0.95
0.9
0.87
0.84
0.88
0.94
0.93
0.87
0.88
0.89
0.94
1.0
0.93
0.93
0.92
0.97
1.04
1.01
0.91
0.91
0.97
0.95
0.9
0.87
0.92
0.98
0.97
0.9
0.88
0.89
0.91
0.92
0.86
0.86
0.9
0.98
0.98
0.95
0.87
0.88
0.88
0.87
0.88
0.84
0.84
0.91
0.98
0.92
0.91
0.91
0.91
0.93
0.89
0.83
0.84
0.83
0.81
0.8
0.8
0.77
0.76
0.73
0.74
0.74
0.72
0.72
0.71
0.72
0.71
0.7
0.64
0.65
0.74
0.75
0.68
0.68
0.68
0.67
0.67
0.65
0.67
0.66
0.67
0.66
0.67
0.66
0.68
0.69
0.69
0.69
0.72
0.75
0.78
0.75
0.75
0.77
0.79
0.8
0.79
0.79
0.77
0.78
0.77
0.78
0.83
0.77
0.77
0.76
0.76
0.79
0.8
0.77
0.77
0.77
0.88
0.89
0.81
0.83
0.82
0.81
0.82
1.19
1.19
0.75
0.78
0.77
0.77
0.79
0.86
0.85
0.92
0.93
0.96
0.86
0.8
0.79
0.79
0.82
0.82
0.76
0.77
0.74
0.73
0.76
0.79
0.77
0.75
0.75
0.79
0.82
0.78
0.79
0.77
0.78
0.73
0.72
0.71
0.7
0.7
0.71
0.65
0.82
0.82
0.76
0.77
0.79
0.55
0.55
0.57
0.52
0.77
0.77
0.66
0.66
0.62
0.63
0.51
0.51
0.64
0.69
0.7
0.67
0.68
0.69
0.72
0.75
0.71
0.78
0.79
0.79
0.76
0.75
0.8
0.77
0.78
0.81
0.84
0.85
0.86
0.82
0.86
0.8
0.81
0.85
0.88
0.85
0.81
0.82
0.82
0.79
0.78
0.77
0.77
0.79
0.86
0.79
0.81
0.81
0.81
0.83
0.81
0.8
0.8
0.81
0.84
0.82
0.8
0.81
0.8
0.78
0.76
0.75
0.79
0.86
0.81
0.83
0.91
0.92
0.87
0.87
0.82
0.8
0.82
0.91
0.92
0.88
0.85
0.85
0.91
0.95
0.92
0.89
0.85
0.83
0.84
0.88
0.88
0.84
0.86
0.85
0.87
0.9
0.91
0.86
0.84
0.85
0.9
0.91
0.89
0.87
0.87
0.87
0.88
0.91
0.87
0.85
0.87
0.96
0.9
0.89
0.87
0.88
0.87
0.85
0.79
0.8
0.81
0.83
0.82
0.81
0.81
0.86
0.84
0.83
0.82
0.83
0.82
0.83
0.83
0.8
0.82
0.83
0.87
0.9
0.89
0.87
0.91
0.91
0.79
0.79
1.18
1.23
0.87
0.87
0.92
0.9
0.91
0.96
0.96
0.9
0.86
0.88
0.88
0.88
0.88
0.86
0.88
0.99
0.99
1.0
0.97
0.97
1.02
1.02
0.98
0.98
0.86
0.84
0.93
0.98
0.93
0.89
0.89
0.91
1.02
1.02
0.96
0.96
0.95
0.92
0.9
0.87
0.86
0.9
0.99
0.97
0.89
0.86
0.86
0.84
0.83
0.81
0.81
0.83
0.89
0.98
0.97
0.92
0.99
1.0
1.0
0.91
0.91
0.88
0.87
0.93
0.91
0.87
0.85
0.86
0.89
0.93
0.9
0.91
0.9
0.9
0.86
0.8
0.8
0.77
0.76
0.75
0.73
0.76
0.77
0.79
0.77
0.77
0.81
0.85
0.85
0.83
0.81
0.8
0.77
0.77
0.84
0.87
0.87
0.87
0.81
0.8
0.82
0.9
0.92
0.97
0.91
0.88
0.96
0.99
1.07
1.04
0.95
0.95
0.99
0.97
1.01
1.0
0.94
1.01
1.07
1.12
1.03
0.96
0.92
0.97
0.96
0.92
0.86
0.88
0.99
0.89
0.9
0.9
0.98
0.97
0.97
0.91
0.92
1.04
1.09
1.09
1.0
0.95
1.02
1.08
1.12
1.02
0.96
1.03
1.11
1.14
1.01
1.01
0.98
1.02
1.01
0.94
0.94
0.99
1.03
0.97
0.97
0.92
0.96
0.99
0.95
0.95
0.99
1.02
1.05
0.97
0.94
1.05
1.07
0.99
0.92
0.91
0.99
1.01
0.97
0.95
1.02
1.08
1.12
1.04
1.03
1.06
1.08
1.0
0.94
0.97
1.08
1.12
1.04
0.97
0.98
1.01
0.99
0.91
0.92
0.87
0.86
0.87
0.82
0.81
0.84
0.86
0.87
0.83
0.85
0.85
0.82
0.82
0.86
0.92
0.96
0.92
0.94
1.07
1.17
1.19
1.1
1.0
0.97
0.97
0.93
0.89
0.84
0.81
0.83
0.84
0.85
0.9
0.89
0.89
0.98
0.94
0.94
0.93
0.93
1.03
1.06
1.09
1.05
1.05
0.98
1.04
1.05
1.03
0.92
0.87
0.88
0.85
0.89
1.04
1.04
1.02
1.07
1.13
1.17
1.15
1.06
1.07
1.08
1.05
1.0
0.89
0.85
0.81
0.85
0.97
1.0
1.0
1.06
1.15
1.17
1.15
1.08
1.12
1.2
1.22
1.13
1.07
1.16
1.16
1.12
1.01
0.93
0.94
0.89
0.86
0.84
0.85
0.84
0.86
0.92
0.95
0.98
0.96
1.05
1.06
1.14
1.12
1.06
1.07
1.11
1.11
1.1
1.02
1.0
1.0
1.07
1.1
1.05
1.04
1.1
1.15
1.1
1.04
1.05
1.08
1.03
0.96
0.98
1.04
1.07
1.0
1.02
1.02
1.06
1.0
0.96
1.03
1.08
1.07
1.01
1.01
1.09
1.12
1.05
1.01
1.05
1.07
1.05
0.93
0.91
0.93
0.94
0.91
0.9
0.91
1.01
1.11
1.09
1.04
1.12
1.13
1.08
1.01
1.03
1.05
1.06
0.98
0.93
0.98
1.01
1.02
0.94
0.92
0.94
0.98
1.01
0.97
0.96
1.03
1.07
1.05
0.98
0.98
1.0
1.02
0.97
0.95
0.96
1.06
1.12
1.07
1.0
1.01
1.0
1.0
0.95
0.92
0.92
0.95
1.0
0.94
0.96
0.97
1.04
1.03
0.96
0.92
1.02
1.07
1.09
1.01
1.01
0.98
0.96
0.95
0.93
0.94
0.97
1.08
1.11
1.02
1.02
1.04
1.07
1.04
0.98
0.95
1.03
1.03
0.99
0.95
0.94
1.01
1.1
1.05
1.02
1.03
1.03
0.98
0.92
0.9
0.93
1.01
1.04
0.95
0.95
0.98
1.03
1.01
0.95
0.94
1.05
1.05
1.05
0.92
0.93
0.95
1.03
1.01
0.96
0.99
1.12
1.18
1.1
1.03
1.03
1.11
1.03
0.98
0.96
1.06
1.09
1.01
0.97
0.98
1.08
1.0
0.96
0.95
1.09
1.12
1.09
1.0
0.97
1.03
1.06
0.97
0.97
1.0
1.05
1.05
0.99
1.03
1.12
1.23
1.09
0.98
0.98
1.01
1.0
0.95
0.95
1.06
1.14
1.13
1.0
1.0
1.08
1.06
1.03
0.95
0.98
1.05
1.05
0.98
1.0
1.0
1.05
0.98
0.97
1.07
1.09
1.12
1.03
1.01
1.01
1.11
1.06
0.96
0.91
0.97
1.06
1.0
0.9
0.91
0.91
0.92
0.95
0.93
0.92
1.03
1.11
1.11
0.96
0.96
0.9
0.9
0.93
0.89
0.91
1.02
1.08
1.08
1.01
1.01
1.02
1.08
1.02
0.97
1.06
1.06
1.07
0.99
0.99
0.99
1.08
1.01
0.96
0.92
0.96
1.0
0.99
0.93
0.98
0.95
0.93
0.92
0.92
0.96
0.96
0.9
0.89
0.93
0.99
0.94
0.94
0.94
0.98
0.97
0.98
0.97
0.95
1.03
1.05
1.05
0.98
0.98
1.02
1.03
1.0
0.98
1.01
1.04
0.96
0.93
0.93
0.96
0.9
0.86
0.84
0.85
0.9
0.9
0.86
0.88
0.88
0.87
0.87
0.88
0.9
0.95
0.95
0.94
0.98
0.98
1.01
0.93
0.92
0.96
0.99
0.92
0.94
0.94
0.93
0.86
0.85
0.81
0.83
0.86
0.85
0.86
0.87
0.84
0.86
0.88
0.89
0.89
0.93
1.02
1.05
1.08
1.05
1.05
1.04
0.97
0.92
0.89
0.95
0.98
0.95
0.88
0.89
0.92
0.9
0.92
0.91
0.93
0.91
0.93
0.93
0.97
1.0
0.97
0.98
1.02
1.02
0.95
0.92
0.92
0.92
0.86
0.84
0.81
0.81
0.83
0.81
0.8
0.8
0.8
0.79
0.78
0.78
0.8
0.8
0.82
0.85
0.86
0.89
0.9
0.96
0.98
0.96
0.93
0.96
1.0
1.03
1.02
0.96
0.96
0.96
0.95
0.96
0.93
0.9
0.91
0.97
1.01
1.04
1.03
0.99
0.99
0.99
1.0
1.03
0.95
0.94
1.0
1.03
1.05
1.0
1.0
0.99
0.98
0.97
0.91
0.9
0.92
1.0
0.98
0.96
0.97
0.92
0.93
0.92
0.94
1.03
1.09
1.13
1.14
0.81
0.82
1.33
1.34
1.08
1.0
1.05
1.11
1.02
1.01
1.01
0.99
0.91
0.9
0.94
0.94
1.09
1.1
0.84
0.84
1.45
1.26
1.01
0.81
0.76
0.78
0.8
0.83
0.85
0.84
0.9
0.9
0.85
0.85
0.85
0.86
0.87
0.84
0.87
0.87
0.85
0.83
0.83
0.85
0.87
0.85
0.85
0.86
0.83
0.8
0.79
0.78
0.78
0.78
0.76
0.77
0.76
0.76
0.76
0.76
0.75
0.75
0.78
0.78
0.79
0.81
0.82
0.79
0.76
0.73
0.7
0.69
0.69
0.69
0.67
0.66
0.67
0.67
0.67
0.66
0.67
0.68
0.69
0.72
0.71
0.71
0.72
0.74
0.76
0.77
0.77
0.75
0.75
0.75
0.75
0.75
0.77
0.77
0.76
0.76
0.77
0.78
0.82
0.84
0.81
0.81
0.82
0.9
0.89
0.9
0.85
0.86
0.84
0.84
0.86
0.85
0.85
0.87
0.86
0.89
0.89
0.83
0.84
0.82
0.83
0.86
0.86
0.86
0.84
0.88
0.88
0.89
0.85
0.86
0.85
0.84
0.81
0.8
0.79
0.8
0.84
0.82
0.82
0.83
0.82
0.84
0.8
0.79
0.78
0.82
0.82
0.8
0.8
0.79
0.81
0.77
0.76
0.76
0.74
0.73
0.73
0.72
0.72
0.71
0.71
0.69
0.62
0.63
0.75
0.75
0.67
0.66
0.67
0.65
0.65
0.64
0.65
0.65
0.64
0.66
0.66
0.66
0.67
0.68
0.7
0.72
0.73
0.73
0.74
0.76
0.77
0.79
0.79
0.79
0.79
0.78
0.75
0.72
0.72
0.74
0.76
0.75
0.74
0.74
0.75
0.76
0.8
0.8
0.78
0.8
0.81
0.88
0.9
0.9
0.87
0.88
0.93
0.88
0.88
0.93
0.87
0.86
0.87
0.92
0.93
0.95
0.88
0.88
0.84
0.84
0.86
0.8
0.82
0.84
0.9
0.82
0.84
0.85
0.84
0.87
0.85
0.81
0.82
0.85
0.91
0.87
0.87
0.85
0.88
0.95
0.92
0.87
0.86
0.9
0.96
0.94
0.9
0.87
0.88
0.87
0.86
0.89
0.83
0.84
0.85
0.91
0.88
0.84
0.87
0.88
0.95
0.86
0.87
0.9
0.91
0.88
0.86
0.84
0.84
1.05
1.05
1.03
1.04
0.9
0.97
1.01
0.94
0.95
0.95
0.97
0.93
0.89
0.89
0.88
0.87
0.85
0.83
0.86
0.93
0.94
0.95
0.88
0.89
0.88
0.89
0.88
0.84
0.83
0.85
0.92
0.94
0.93
0.87
0.87
0.88
0.94
0.93
0.84
0.84
0.89
0.95
0.96
0.89
0.87
0.88
0.87
0.88
0.86
0.82
0.82
0.84
0.92
0.91
0.87
0.88
0.89
0.95
0.89
0.87
0.9
0.95
0.95
0.97
1.36
1.37
0.96
0.92
0.87
0.88
0.95
0.96
0.81
0.82
1.22
1.23
0.91
0.91
0.87
0.85
0.94
0.95
0.81
0.82
1.26
1.26
0.89
0.73
0.69
0.7
0.7
0.7
0.69
0.68
0.69
0.67
0.68
0.67
0.67
0.7
0.72
0.76
0.8
0.77
0.79
0.8
0.8
0.79
0.76
0.73
0.72
0.74
0.81
0.89
0.88
0.9
0.9
0.88
0.83
0.84
0.85
0.84
0.86
0.81
0.86
0.86
0.89
0.88
0.89
0.85
0.82
0.84
0.95
0.98
0.96
0.88
0.87
0.9
0.95
0.94
0.84
0.85
0.85
0.87
0.92
0.84
0.86
0.94
0.95
1.01
1.04
0.98
0.89
0.89
0.92
0.93
0.84
0.84
0.84
0.93
0.92
0.92
0.84
0.85
0.86
0.94
0.92
0.84
0.83
0.84
0.96
0.96
0.98
0.85
0.85
0.83
0.86
0.93
0.91
0.83
0.83
0.83
0.96
0.94
0.93
0.84
0.84
0.84
0.93
0.89
0.85
0.85
0.79
0.8
0.92
0.91
0.91
0.81
0.83
0.9
0.93
0.96
0.96
0.83
0.83
0.81
0.78
0.8
0.79
0.78
0.86
0.86
0.63
0.64
0.77
0.75
0.74
0.75
0.8
0.86
0.87
0.8
0.81
0.85
0.91
0.9
0.84
0.81
0.81
0.85
0.88
0.81
0.82
0.82
0.83
0.89
0.9
0.83
0.84
0.84
0.92
0.91
0.93
0.83
0.83
0.82
0.86
0.9
0.86
0.82
0.81
0.83
0.95
0.93
0.85
0.79
0.8
0.78
0.78
0.78
0.79
0.78
0.78
0.76
0.71
0.72
0.72
0.77
0.79
0.79
0.76
0.76
0.8
0.86
0.91
0.9
0.93
0.94
0.91
0.86
0.86
0.87
0.89
0.94
0.94
0.94
0.93
0.87
0.88
0.83
0.82
0.85
0.9
0.9
0.88
0.89
0.82
0.81
0.83
0.87
0.9
0.86
0.85
0.87
0.92
0.96
0.96
0.98
0.91
0.92
0.89
0.89
0.87
0.87
0.83
0.83
0.86
0.87
0.88
0.92
0.92
0.86
0.88
0.91
0.94
0.95
0.95
0.86
0.87
0.87
0.9
0.84
0.84
0.86
0.93
0.98
1.05
1.01
0.88
0.89
0.88
0.94
0.93
0.88
0.85
0.85
0.85
0.87
0.93
0.88
0.83
0.82
0.83
0.91
0.91
0.91
0.84
0.84
0.84
0.87
0.88
0.86
0.81
0.81
0.82
0.91
0.9
0.88
0.82
0.83
0.83
0.86
0.88
0.85
0.81
0.8
0.83
0.91
0.9
0.87
0.82
0.83
0.83
0.86
0.9
0.81
0.81
0.82
0.92
0.91
0.9
0.83
0.83
0.85
0.87
0.9
0.86
0.83
0.84
0.84
0.9
0.88
0.85
0.85
0.94
0.96
0.93
0.87
0.87
0.94
0.85
0.84
0.85
0.94
0.98
1.01
0.88
0.88
0.89
0.91
0.91
0.84
0.82
0.85
0.86
0.85
0.87
0.81
0.8
0.8
0.88
0.89
0.91
0.81
0.82
0.82
0.86
0.88
0.87
0.8
0.8
0.8
0.9
0.9
0.83
0.82
0.83
0.84
0.91
0.83
0.81
0.82
0.87
0.93
0.94
0.86
0.86
0.87
0.94
0.91
0.89
0.83
0.82
0.89
0.9
0.85
0.93
0.8
0.83
0.86
0.94
0.95
0.9
0.85
0.86
0.88
0.95
0.89
0.85
0.84
0.87
0.99
0.99
1.02
0.9
0.91
0.82
0.79
0.77
0.79
0.8
0.76
0.77
0.77
0.75
0.75
0.78
0.8
0.84
0.89
0.69
1.0
0.84
0.85
0.78
0.77
0.77
0.81
0.81
0.86
0.83
0.85
0.82
0.82
0.83
0.8
1.59
0.96
1.27
0.72
1.38
0.7
0.71
0.73
0.72
0.72
0.6
0.74
0.91
0.5
1.0
2.53
0.96
0.41
0.98
0.71
1.31
1.17
0.63
0.59
1.42
1.43
0.61
0.34
0.65
0.73
1.86
0.88
0.83
0.86
1.7
1.54
1.04
1.72
0.85
1.75
1.75
3.5
1.19
1.2
1.04
0.75
1.17
0.8
1.21
0.69
1.54
2.95
0.39
0.53
2.36
0.64
1.99
2.0
0.65
2.25
0.38
2.05
3.35
0.82
0.84
0.5
0.43
1.44
0.93
0.98
0.93
0.33
0.54
0.33
0.77
0.97
1.02
0.74
2.66
2.11
1.04
0.56
0.44
0.51
1.66
1.66
3.33
0.84
0.81
1.61
0.82
0.87
0.89
0.9
0.92
0.93
0.88
1.81
0.91
0.93
0.92
0.94
0.91
0.88
0.85
0.82
0.86
0.86
0.86
0.9
0.95
0.97
0.98
0.89
0.9
0.91
0.93
0.94
0.96
0.91
0.91
0.89
0.89
0.89
0.92
0.92
0.86
0.89
0.89
0.89
0.92
0.93
0.87
0.85
0.86
0.9
0.95
0.97
0.91
0.92
0.91
0.92
0.91
0.84
0.85
0.88
0.92
0.95
0.92
1.8
0.91
0.88
0.85
0.81
0.81
0.83
0.91
0.88
1.69
0.87
0.91
0.86
0.83
0.81
0.84
0.92
0.88
1.65
0.81
0.84
0.84
0.8
0.78
0.79
0.85
0.9
0.85
0.82
0.82
0.82
0.87
0.85
0.8
0.78
0.81
0.91
1.73
1.28
0.83
1.3
0.83
0.82
2.51
0.91
0.83
0.84
0.85
0.9
0.93
0.85
1.79
0.91
0.92
0.84
0.84
0.91
0.96
1.01
1.34
1.34
0.95
0.85
0.83
0.85
0.92
0.92
0.88
1.25
1.26
0.88
0.9
0.83
0.82
0.86
0.94
0.94
0.84
0.84
0.85
0.9
0.91
0.82
0.83
0.86
0.96
0.95
0.86
0.87
0.85
0.94
0.92
0.86
0.83
0.83
0.86
0.93
0.88
0.83
0.84
0.85
0.92
0.9
0.81
0.83
0.84
0.96
0.96
0.85
0.86
0.85
0.91
0.87
0.83
0.81
0.83
0.93
0.92
0.83
0.83
0.84
0.89
0.93
0.84
0.83
0.86
0.93
0.94
0.87
0.86
0.87
0.91
0.91
0.86
0.81
0.81
0.81
0.93
0.91
0.83
0.84
0.83
0.86
0.89
0.82
0.8
0.42
0.38
0.8
1.19
0.72
0.73
1.79
1.79
0.74
0.75
0.78
0.78
1.45
0.72
0.73
0.74
0.74
0.75
0.75
0.75
0.77
0.75
0.78
0.74
0.78
0.75
0.74
0.76
0.79
1.47
0.74
0.78
0.78
0.75
0.74
0.75
0.81
0.79
1.42
1.57
1.49
0.75
0.77
0.79
1.5
0.77
0.79
0.74
0.82
0.78
0.8
0.81
0.78
1.61
0.82
0.4
0.43
0.78
0.8
0.82
0.82
0.85
0.93
0.85
1.77
0.89
0.93
0.86
0.82
0.68
0.74
0.54
2.7
2.7
1.09
0.8
0.82
1.74
0.9
1.66
0.79
0.78
0.81
0.81
0.82
0.89
0.84
0.83
0.89
0.92
0.94
0.95
1.87
0.97
0.99
1.0
1.01
1.0
0.94
1.88
0.91
0.92
0.95
0.95
0.9
0.89
0.93
0.98
0.98
1.01
0.92
1.84
0.93
0.95
0.95
0.88
0.86
0.9
0.94
1.0
0.99
0.93
0.92
0.92
0.92
0.91
0.93
0.84
0.85
0.89
0.93
0.94
0.93
1.83
0.92
0.91
0.95
0.85
0.84
0.86
0.93
0.93
0.89
1.7
0.83
0.88
0.87
0.86
1.54
0.88
0.82
0.81
1.56
0.79
0.81
0.81
0.79
0.8
0.8
0.79
0.81
0.78
1.49
0.77
0.73
0.73
0.76
0.74
0.74
1.33
0.66
1.1
0.77
0.77
0.78
0.77
0.76
0.35
0.91
2.08
2.23
0.71
0.76
0.79
0.79
0.8
0.85
0.49
1.28
0.42
1.37
1.09
0.61
0.75
2.6
0.5
0.69
2.31
1.96
0.8
2.11
2.12
4.24
2.07
2.07
1.81
2.38
0.49
1.61
0.46
0.66
0.49
0.68
0.98
0.52
0.41
2.63
1.89
1.04
0.77
1.08
0.81
1.77
0.85
2.31
0.85
0.86
1.16
1.36
0.44
0.42
1.89
0.99
1.92
0.88
0.69
0.91
1.71
1.09
0.7
0.96
0.99
0.93
0.85
0.89
0.89
0.38
0.58
0.95
1.43
1.11
0.68
1.8
0.94
0.89
0.95
1.02
0.62
0.96
2.74
1.74
0.88
0.33
0.54
1.98
0.88
1.87
0.82
1.53
1.04
0.54
2.45
1.68
0.62
0.53
1.45
0.84
1.72
1.73
0.84
0.87
0.92
1.42
0.94
0.88
2.21
2.22
1.57
1.45
1.45
0.89
0.58
1.23
2.51
1.86
0.94
2.63
0.87
1.66
0.7
0.75
0.75
0.47
0.86
0.96
0.88
1.81
0.91
1.67
0.44
0.55
1.73
0.65
2.09
1.53
1.08
1.73
1.69
0.96
0.77
1.08
0.87
1.59
1.05
1.26
1.26
0.87
0.88
0.59
0.87
0.96
1.05
0.84
1.42
1.13
0.92
0.93
0.7
0.84
0.87
0.49
0.58
0.83
1.12
0.46
1.56
0.53
0.87
0.94
0.75
1.7
0.88
1.05
0.7
0.91
0.67
1.95
0.95
1.5
0.47
0.91
0.59
0.86
1.07
0.57
1.04
0.92
0.87
0.96
0.77
1.2
0.63
0.86
0.88
0.84
0.6
0.71
1.29
0.76
0.95
1.93
0.89
0.79
1.01
0.97
1.58
2.9
0.77
0.96
0.93
0.81
1.8
1.76
2.83
1.79
3.09
0.43
0.43
1.24
0.91
0.78
1.06
1.78
1.59
1.18
1.54
1.56
0.41
0.76
1.9
0.71
0.71
1.23
1.72
0.84
2.63
1.3
0.6
1.21
0.56
0.78
1.13
0.88
2.53
1.14
0.9
0.63
1.76
0.45
0.69
0.82
0.76
1.3
0.93
0.44
1.35
0.76
1.63
1.15
2.36
2.36
1.52
0.92
0.76
1.02
0.49
1.43
0.75
1.47
2.37
0.69
0.95
1.19
1.03
0.7
0.8
0.78
1.26
1.17
0.64
1.75
0.76
1.37
0.51
0.87
1.04
0.83
1.23
0.56
0.48
0.68
0.82
0.76
1.47
1.48
0.71
0.37
0.53
0.94
0.4
0.53
0.53
1.16
0.88
1.76
1.76
0.94
0.95
2.89
1.58
0.86
1.09
0.75
0.96
4.17
4.18
2.9
0.99
1.0
0.9
0.9
0.99
1.01
2.25
1.68
1.9
1.41
0.47
0.9
0.91
0.99
3.67
0.57
0.4
1.19
2.52
0.97
3.91
0.98
1.18
0.65
0.88
0.94
0.96
3.81
0.92
3.57
0.97
0.97
3.64
0.94
3.54
0.93
0.95
0.96
2.62
0.94
1.78
0.85
0.88
0.98
2.74
1.8
0.98
2.7
0.89
0.95
1.88
2.69
0.96
0.96
0.77
0.96
0.94
0.96
2.11
1.58
0.93
3.66
0.96
1.0
2.83
0.97
0.97
0.79
1.02
0.96
0.95
0.97
0.66
2.07
0.94
0.88
1.77
0.97
0.95
1.52
1.21
0.97
2.71
0.95
0.95
3.52
0.89
2.58
0.87
0.95
0.95
0.95
1.72
0.89
0.94
2.64
0.94
0.95
0.99
0.98
2.63
0.96
1.8
1.86
0.97
1.78
2.07
0.93
4.58
0.93
2.68
0.93
1.01
3.8
0.95
0.96
2.59
0.93
0.98
0.97
2.63
0.92
0.92
2.58
0.96
0.97
2.74
0.96
3.54
0.91
0.95
3.57
0.89
0.96
0.94
2.66
0.95
0.95
2.76
1.01
2.07
1.9
1.0
2.72
0.94
0.97
1.03
0.98
1.85
0.99
3.73
0.97
1.01
3.73
0.94
2.42
1.18
0.97
0.97
3.42
1.9
0.9
0.98
0.99
1.02
1.03
3.83
0.58
0.42
1.0
1.01
1.05
2.04
2.12
0.83
1.98
2.94
4.64
1.16
0.75
1.18
0.69
2.41
2.41
5.43
1.89
2.85
0.96
0.96
2.66
0.93
0.95
0.96
2.72
1.84
4.53
0.96
0.98
2.71
0.9
1.49
1.24
2.75
0.58
1.41
1.83
0.98
1.82
0.88
0.91
0.58
0.4
1.23
0.65
1.79
0.92
2.77
0.88
1.49
3.23
1.8
0.95
2.67
0.96
1.85
1.84
0.97
0.91
1.73
0.9
0.95
0.96
2.76
0.95
1.77
0.87
0.88
0.58
0.37
0.96
0.94
1.72
0.9
0.88
1.78
0.86
0.92
0.95
1.87
1.83
0.95
0.5
0.41
1.75
0.95
0.97
1.0
0.95
1.84
1.91
1.75
1.87
3.61
1.75
1.75
0.87
0.91
1.84
1.74
0.92
1.78
1.81
0.95
1.83
1.82
0.92
2.48
1.8
0.78
0.96
2.07
2.31
1.12
0.49
0.87
0.61
2.35
2.36
2.35
2.36
0.71
0.72
0.76
0.8
0.85
0.87
0.91
1.81
0.89
0.91
0.93
0.87
0.86
0.89
0.9
0.89
0.92
0.87
0.84
0.87
0.9
0.95
0.97
0.91
0.89
0.9
0.9
0.91
0.93
0.93
0.85
0.86
0.87
0.87
0.9
0.89
0.84
0.84
0.9
0.94
0.98
0.98
0.92
0.93
0.92
0.94
0.94
0.94
0.87
0.87
0.88
0.87
0.91
0.93
0.86
0.85
0.89
0.94
0.99
1.0
0.91
0.91
0.91
0.95
0.93
0.9
0.84
0.86
0.86
0.93
0.91
0.9
0.83
0.84
0.89
0.94
0.98
0.98
0.87
0.88
0.94
0.93
0.96
0.84
0.85
0.88
1.0
1.0
1.0
0.87
0.87
0.89
0.96
0.93
0.92
0.84
0.84
0.86
0.97
0.96
0.92
0.86
0.86
0.87
0.94
0.87
0.84
0.85
0.91
0.98
0.99
0.9
0.89
0.9
0.96
0.94
0.9
0.85
0.84
0.92
0.96
0.98
0.88
0.88
0.89
0.97
0.95
0.87
0.84
0.86
0.93
0.95
0.96
0.85
0.85
0.84
0.89
0.9
0.86
0.82
0.82
0.89
0.89
0.86
0.89
0.81
0.81
0.83
0.92
0.93
0.91
0.84
0.85
0.85
0.88
0.89
0.86
0.81
0.8
0.83
0.84
0.84
0.86
0.8
0.8
0.84
0.92
0.91
0.85
0.84
0.84
0.87
0.89
0.88
0.81
0.81
0.84
0.94
0.93
0.9
0.84
0.85
0.86
0.93
0.87
0.84
0.83
0.84
0.94
0.94
0.89
0.84
0.85
0.93
0.92
0.93
0.84
0.83
0.86
0.96
0.94
0.94
0.85
0.85
0.87
0.92
0.88
0.86
0.87
0.94
0.96
0.91
0.87
0.87
0.9
0.92
0.86
0.84
0.83
0.89
0.95
0.96
0.87
0.87
0.87
0.94
0.92
0.85
0.83
0.84
0.88
0.96
0.93
0.84
0.84
0.86
0.97
0.98
0.98
0.89
0.87
0.94
0.98
1.01
0.99
0.88
0.89
0.94
0.95
0.97
0.86
0.85
0.89
0.99
1.01
0.98
0.85
0.86
0.86
0.94
0.96
0.93
0.85
0.85
0.92
0.97
1.0
0.98
0.86
0.86
0.88
0.95
0.93
0.85
0.85
0.88
0.96
0.99
1.02
0.9
0.87
0.87
0.91
0.92
0.87
0.82
0.81
0.83
0.94
0.92
0.9
0.83
0.84
0.86
0.91
0.88
0.83
0.81
0.83
0.91
0.93
0.91
0.83
0.84
0.84
0.9
0.9
0.85
0.83
0.84
0.87
0.95
0.95
0.9
0.84
0.84
0.86
0.9
0.91
0.82
0.83
0.82
0.89
0.96
0.99
0.88
0.85
0.86
0.89
0.93
0.87
0.85
0.84
0.92
0.94
0.95
0.9
0.86
0.87
0.91
0.93
0.94
0.87
0.85
0.85
0.94
0.96
0.99
0.92
0.85
0.86
0.87
0.91
0.93
0.83
0.83
0.84
0.91
0.96
0.96
0.87
0.88
0.88
0.94
0.92
0.84
0.84
0.83
0.89
0.96
0.94
0.88
0.86
0.86
0.9
0.89
0.89
0.83
0.82
0.83
0.89
0.9
0.86
0.82
0.83
0.82
0.85
0.89
0.88
0.82
0.81
0.86
0.87
0.85
0.84
0.82
0.83
0.9
0.93
0.89
0.84
0.85
0.87
0.92
0.89
0.82
0.83
0.86
0.96
0.96
0.93
0.85
0.86
0.87
0.92
0.91
0.84
0.83
0.84
0.91
0.95
0.95
0.85
0.85
0.87
0.93
0.92
0.88
0.82
0.83
0.85
0.95
0.96
0.98
0.88
0.88
0.95
0.94
0.89
0.86
0.85
0.9
0.96
0.95
0.85
0.85
0.86
0.9
0.91
0.84
0.84
0.84
0.88
0.96
0.94
0.85
0.85
0.88
0.93
0.92
0.86
0.87
0.79
0.77
0.78
0.89
0.93
0.97
1.02
0.92
0.92
0.93
0.96
1.0
1.01
1.0
0.99
0.95
0.93
0.93
0.87
0.9
1.02
1.04
1.02
1.02
0.97
0.88
0.89
0.89
0.94
0.95
0.95
0.95
0.94
0.92
0.91
0.84
0.85
0.85
0.9
0.93
0.93
0.84
0.86
0.88
0.95
0.96
0.92
0.86
0.86
0.87
0.91
0.88
0.83
0.84
0.84
0.92
0.94
0.94
0.91
0.85
0.86
0.86
0.88
0.92
0.88
0.84
0.82
0.85
0.91
0.94
0.95
0.88
0.85
0.85
0.86
0.91
0.88
0.91
0.83
0.85
0.87
0.96
0.97
1.01
0.89
0.89
0.89
0.95
0.92
0.92
0.85
0.85
0.9
0.94
0.96
0.97
0.88
0.88
0.86
0.91
0.91
0.9
0.83
0.83
0.84
0.92
0.93
0.92
0.85
0.85
0.86
0.91
0.9
0.84
0.83
0.87
0.94
0.92
0.95
0.84
0.85
0.84
0.9
0.87
0.86
0.82
0.82
0.83
0.91
0.93
0.85
0.85
0.85
0.87
0.91
0.85
0.84
0.83
0.88
0.93
0.93
0.84
0.86
0.87
0.9
0.88
0.84
0.83
0.84
0.91
0.95
0.89
0.85
0.86
1.31
1.32
0.87
0.82
0.82
0.9
0.92
0.95
1.72
0.87
0.93
0.82
0.89
1.34
0.43
0.66
0.53
0.36
0.65
1.63
2.11
3.05
3.05
0.72
1.44
0.73
0.76
0.84
0.82
0.81
0.85
0.89
0.91
0.89
1.81
0.91
0.9
1.24
1.25
0.86
0.83
0.81
0.83
0.84
0.89
0.93
0.89
0.95
0.96
0.94
0.95
0.94
0.9
0.88
0.89
0.93
0.95
0.95
0.94
0.95
0.93
0.94
0.89
0.87
0.88
0.94
0.95
0.88
0.91
0.91
0.9
0.98
0.84
0.86
0.88
0.98
0.96
0.9
0.91
0.92
0.92
0.98
0.85
0.86
0.9
0.99
0.98
0.91
0.93
0.93
0.94
0.93
0.88
0.87
0.93
1.0
1.01
0.95
0.92
0.93
0.94
0.98
0.93
0.9
0.92
1.02
1.04
1.06
0.99
0.94
0.95
0.97
1.0
0.91
0.88
0.92
0.99
1.01
1.0
0.91
0.93
0.94
0.93
0.87
0.87
1.3
1.31
0.86
0.91
0.84
0.86
0.95
0.97
0.98
0.93
0.96
0.96
0.96
0.87
0.87
0.9
0.97
0.96
0.92
0.95
0.99
0.98
1.0
0.91
0.89
0.89
0.87
0.91
0.9
0.85
0.84
0.87
0.9
0.95
0.86
0.86
0.86
0.86
0.89
0.85
0.84
0.86
0.91
0.98
0.88
0.89
0.91
0.9
0.91
0.84
0.84
0.87
0.96
0.9
0.88
0.9
0.9
0.88
0.87
0.84
0.83
0.86
0.96
0.95
0.91
0.88
0.89
0.88
0.88
0.87
0.85
0.86
0.94
0.97
0.97
0.89
0.9
0.91
0.9
0.92
0.87
0.85
0.89
0.97
0.96
0.9
0.9
0.91
0.89
0.91
0.89
0.84
0.84
0.87
0.95
0.95
0.86
0.88
0.88
0.88
0.88
0.85
0.83
0.84
0.89
0.95
0.87
0.88
0.9
0.9
0.9
0.87
0.85
0.87
0.92
0.94
0.88
0.91
0.91
0.92
0.92
0.88
0.87
0.9
0.97
0.91
0.89
0.87
0.88
0.89
0.89
0.84
0.84
0.86
0.91
0.9
0.88
0.88
0.95
0.91
0.9
0.86
0.87
0.89
0.92
0.86
0.87
0.85
0.89
0.92
0.85
0.86
0.87
0.84
0.87
0.85
0.84
0.83
0.87
0.9
0.91
0.88
0.88
0.87
0.88
0.84
0.84
0.87
0.9
0.91
0.87
0.88
0.88
0.87
0.86
0.84
0.85
0.92
0.89
0.86
0.88
0.89
0.89
0.84
0.84
0.84
0.86
0.91
0.85
0.84
0.84
0.84
0.83
0.83
0.82
0.85
0.88
0.89
0.86
0.86
0.85
0.88
0.9
0.84
0.82
0.83
0.88
0.91
0.88
0.86
0.86
0.85
0.86
0.87
0.82
0.81
0.84
0.89
0.89
0.84
0.85
0.85
0.85
0.86
0.83
0.83
0.87
0.91
0.91
0.88
0.89
0.97
0.94
0.89
0.87
0.87
0.86
0.87
0.85
0.83
0.82
0.85
0.94
0.87
0.86
0.86
0.85
0.86
0.86
0.83
0.82
0.84
0.89
0.92
0.87
0.85
0.86
0.86
0.86
0.86
0.81
0.82
1.23
1.23
0.81
0.8
0.8
0.84
0.91
0.89
0.84
0.85
0.88
0.95
0.93
0.85
0.85
0.87
0.89
0.9
0.85
0.84
0.85
0.85
0.85
0.86
0.82
0.81
0.87
0.96
0.96
0.93
0.88
0.88
0.88
0.9
0.92
0.86
0.85
0.91
0.95
0.89
0.87
0.86
0.87
0.88
0.89
0.96
0.85
0.86
0.92
0.88
0.86
0.86
0.83
0.86
0.86
0.82
0.82
0.81
0.84
0.94
0.86
0.9
0.96
0.97
0.99
1.0
0.88
0.89
0.78
0.79
0.88
0.88
0.89
0.93
0.95
0.96
0.96
0.9
0.9
0.91
0.91
0.92
0.95
0.98
0.95
0.93
0.91
0.91
0.92
0.93
0.98
0.92
0.87
0.85
0.9
0.91
0.89
0.97
0.97
0.93
0.88
0.9
0.97
0.96
0.98
0.93
0.88
0.88
0.88
0.91
0.94
0.89
0.87
0.86
0.89
0.93
0.96
0.89
0.86
0.87
0.87
0.87
0.88
0.9
0.86
0.87
0.9
0.97
0.94
0.89
0.87
0.87
0.87
0.88
0.86
0.84
0.82
0.85
0.88
0.9
0.91
0.86
0.87
0.87
0.9
0.9
0.87
0.85
0.88
0.96
0.91
0.89
0.86
0.9
0.91
0.88
0.85
0.82
0.82
0.84
0.87
0.91
0.86
0.85
0.88
0.89
0.87
0.87
0.84
0.83
0.86
0.88
0.91
0.87
0.86
0.87
0.88
0.93
0.9
0.87
0.87
0.9
0.9
0.89
0.85
0.85
0.86
0.86
0.87
0.85
0.83
0.83
0.85
0.91
0.86
0.85
0.86
0.87
0.86
0.86
0.82
0.81
0.83
0.9
0.88
0.84
0.87
0.87
0.87
0.89
0.83
0.82
0.84
0.9
0.91
0.83
0.85
0.85
0.85
0.89
0.85
0.83
0.85
0.87
0.91
0.92
0.85
0.85
0.85
0.85
0.85
0.82
0.8
0.82
0.84
0.88
0.89
0.86
0.87
0.86
0.86
0.89
0.83
0.82
0.85
0.93
0.93
0.84
0.88
0.88
0.87
0.85
0.84
0.85
0.9
0.94
0.86
0.87
0.89
0.89
0.86
0.86
0.88
0.92
0.93
0.89
0.88
0.95
0.91
0.89
0.9
0.9
0.92
0.84
0.86
0.87
0.91
0.91
0.88
0.88
0.96
0.91
0.87
0.85
0.85
0.84
0.86
0.85
0.81
0.81
0.83
0.91
0.87
0.85
0.83
0.84
0.84
0.86
0.86
0.82
0.81
0.83
0.88
0.94
0.84
0.83
0.83
0.81
0.81
0.81
0.8
0.8
0.85
0.92
0.93
0.85
0.89
0.9
0.88
0.89
0.86
0.83
0.84
0.86
0.93
0.88
0.86
0.88
0.88
0.89
0.88
0.84
0.82
0.85
0.93
0.93
0.84
0.9
0.9
0.9
0.96
0.86
0.84
0.85
0.88
0.95
0.9
0.87
0.86
0.89
0.92
0.9
0.85
0.86
0.86
0.87
0.88
0.85
0.83
0.85
0.92
0.93
0.87
0.85
0.86
0.85
0.87
0.89
0.84
0.83
0.86
0.92
0.89
0.87
0.86
0.86
0.85
0.85
0.86
0.82
0.8
0.82
0.92
0.89
0.85
0.87
0.88
0.86
0.88
0.88
0.83
0.82
0.85
0.94
0.9
0.85
0.87
0.87
0.89
0.92
0.86
0.84
0.83
0.84
0.87
0.91
0.83
0.86
0.87
0.87
0.9
0.86
0.84
0.84
0.87
0.9
0.88
0.87
0.82
0.72
0.85
0.85
0.77
1.05
1.06
1.71
1.65
1.96
1.51
3.46
1.39
1.4
1.91
0.67
0.61
0.74
1.1
1.12
0.76
0.78
0.78
0.78
0.74
0.73
0.72
0.73
0.7
1.43
0.73
0.73
0.71
0.74
0.72
0.7
0.69
1.37
0.71
0.76
0.82
0.75
1.56
0.84
0.84
1.81
0.67
0.82
0.84
0.84
0.52
1.06
0.77
0.79
0.67
0.96
0.85
0.89
0.89
0.89
0.8
0.68
0.95
0.87
0.91
0.95
0.92
0.84
0.86
0.93
0.93
0.94
0.69
0.93
0.93
0.9
1.05
1.06
1.03
1.03
2.07
0.66
0.72
0.72
0.73
0.74
0.9
0.84
0.84
0.92
0.95
1.0
0.99
0.68
1.1
0.9
0.94
0.94
0.94
1.04
0.75
0.95
1.01
1.05
0.98
0.67
1.08
0.88
0.94
0.93
0.94
0.85
0.87
0.93
0.94
0.98
0.96
0.86
0.86
0.88
0.92
0.75
0.76
1.35
1.36
0.83
0.85
0.82
0.8
0.8
0.85
0.89
0.92
0.87
0.86
0.86
0.89
0.91
0.92
0.84
0.86
0.92
0.93
0.96
0.96
0.86
0.67
1.0
1.01
0.92
0.94
0.84
0.85
0.94
0.94
1.0
0.97
0.89
0.9
0.95
0.93
1.12
0.77
0.77
0.93
0.94
0.96
0.85
0.66
1.02
1.03
0.95
0.85
0.86
0.9
0.96
0.98
0.98
0.82
0.83
0.98
0.93
0.93
0.85
0.84
0.86
0.94
0.95
0.98
0.87
0.67
0.99
0.99
0.92
0.84
0.83
0.83
0.85
0.94
0.88
0.83
0.83
0.99
0.92
0.9
0.84
0.84
0.92
0.94
0.97
0.91
0.88
0.88
0.89
0.92
0.93
0.83
0.84
0.88
0.96
0.95
0.91
0.82
0.83
0.97
0.89
0.87
0.82
0.83
0.85
0.93
0.94
0.92
0.85
0.86
0.89
0.91
0.82
0.84
0.84
0.91
0.95
0.99
0.91
0.89
0.9
0.95
0.96
0.94
0.86
0.86
0.94
0.92
0.96
0.94
0.81
0.82
0.96
0.94
0.93
0.87
0.85
0.88
0.96
1.0
0.97
0.83
0.83
0.98
0.93
0.91
0.83
0.85
0.95
0.95
0.97
0.89
0.89
0.9
0.95
0.94
0.85
0.85
0.89
0.99
1.01
0.99
0.9
0.91
1.82
0.94
0.87
0.87
0.88
0.98
0.97
2.26
2.27
1.08
1.08
1.29
0.91
0.94
0.95
0.86
0.87
0.85
0.92
0.93
0.85
0.86
0.88
0.95
0.96
0.96
0.67
1.0
1.0
0.92
0.93
0.83
0.83
0.86
0.95
0.95
0.93
1.29
1.29
0.92
0.94
0.85
0.85
0.86
0.95
0.96
0.99
0.68
1.19
0.98
0.95
0.9
1.73
0.95
0.98
2.43
2.44
0.97
0.9
1.71
0.95
0.98
1.04
2.76
0.89
0.94
0.93
0.84
0.85
0.87
0.97
0.97
1.77
0.89
0.94
0.91
0.84
0.86
0.91
0.95
0.98
0.98
1.72
0.84
0.86
0.93
0.83
0.83
0.83
0.91
0.93
0.97
0.89
0.66
1.14
0.95
0.93
0.86
1.69
0.9
0.95
0.94
0.9
0.91
0.97
0.9
0.86
0.84
0.84
0.9
0.95
0.97
0.88
0.66
1.07
0.88
0.92
0.84
0.93
0.75
0.9
0.93
0.91
0.67
1.05
0.9
0.92
0.94
0.83
3.13
3.13
0.98
0.96
1.77
1.78
0.91
0.94
0.95
0.99
1.0
1.94
1.92
0.93
0.86
0.87
1.69
0.92
0.94
0.99
0.93
0.66
1.08
0.89
0.92
0.92
0.85
0.86
0.91
0.93
0.97
1.0
0.9
0.9
0.96
0.93
0.93
0.85
0.86
0.86
0.95
0.95
0.95
0.68
1.04
0.86
0.9
0.91
0.86
0.87
0.88
0.93
0.94
0.97
0.91
0.91
0.92
0.91
0.95
0.95
0.87
0.66
1.08
0.91
0.9
0.9
0.84
0.83
0.87
0.93
0.96
0.91
0.89
0.89
0.93
0.92
0.84
0.86
0.89
0.94
0.96
0.88
0.89
0.9
0.96
0.93
0.87
0.86
0.88
0.95
0.94
0.95
0.86
0.87
0.87
0.88
0.92
0.91
0.84
0.67
1.08
0.91
0.93
0.83
0.86
0.91
0.94
0.99
1.83
1.83
0.9
0.91
0.83
0.85
0.88
0.94
0.95
0.92
0.86
0.87
0.93
0.93
0.9
0.85
0.86
0.94
0.95
0.96
0.69
1.07
0.9
0.93
0.93
0.83
0.84
0.89
0.94
0.93
0.67
1.09
0.94
0.92
0.85
0.88
0.88
0.94
0.96
0.93
0.66
1.04
1.04
0.94
0.91
0.85
0.87
0.93
0.94
0.9
0.66
1.05
0.89
0.89
0.88
0.82
0.83
0.88
0.95
0.93
0.67
1.04
0.87
0.89
0.9
0.85
0.87
0.91
0.93
0.94
0.68
1.06
0.88
0.89
0.93
0.84
0.84
0.87
0.94
0.94
0.92
0.66
1.06
0.91
0.91
0.92
0.84
0.87
0.92
0.95
0.97
0.92
0.93
0.92
0.92
0.97
0.98
0.96
0.87
0.94
0.95
1.35
1.35
1.44
2.35
2.35
0.84
0.53
0.54
0.72
4.39
4.46
4.47
0.88
1.58
0.89
1.7
0.9
0.68
0.39
1.13
1.36
0.85
0.74
2.09
0.7
1.0
2.21
1.42
1.25
0.79
0.89
2.46
1.62
0.38
2.23
0.98
0.79
2.76
0.89
0.93
0.96
0.95
0.96
0.95
0.59
3.26
0.54
1.43
2.0
1.94
3.17
3.17
1.19
0.92
0.72
1.17
3.04
2.24
0.65
0.31
2.63
1.15
0.91
1.9
0.89
0.86
0.91
0.98
0.63
1.98
3.01
3.2
1.79
1.8
3.18
1.21
1.21
1.09
1.64
1.3
0.99
0.88
0.37
0.5
0.89
0.95
0.99
0.99
0.89
1.91
0.89
0.94
0.93
0.37
0.6
0.98
1.03
0.94
1.01
1.03
1.06
1.04
1.79
0.95
0.95
0.89
0.88
0.94
0.95
0.98
0.98
0.87
0.96
0.96
0.94
0.88
0.85
0.86
0.97
0.98
1.03
0.91
0.94
0.94
0.92
0.96
0.83
0.86
0.96
0.96
0.99
0.88
0.94
0.94
0.94
0.89
0.86
0.95
0.98
1.01
1.01
0.9
0.96
0.96
0.97
0.96
0.85
0.87
0.97
0.96
0.99
0.88
0.9
0.9
0.98
0.96
0.85
0.86
0.91
0.98
1.01
0.57
0.36
0.91
0.92
0.43
0.55
0.95
0.85
0.86
0.9
0.89
0.76
1.28
0.64
0.59
0.65
0.59
0.85
0.48
0.91
0.55
0.59
0.38
0.99
1.34
0.62
1.02
1.79
1.89
1.9
0.62
0.62
0.61
0.7
0.46
0.66
1.45
2.08
0.93
0.92
1.22
2.12
1.22
0.97
1.0
1.42
0.93
2.2
2.21
0.52
1.08
1.99
1.01
2.11
1.81
1.03
0.82
1.14
2.04
0.52
0.4
0.72
2.02
2.71
2.72
2.72
2.72
1.1
0.97
0.94
1.04
1.59
1.6
1.02
1.04
1.04
0.92
0.66
1.33
1.91
0.91
1.03
1.12
1.53
1.54
1.0
1.03
1.62
1.2
0.99
0.91
0.88
0.89
0.99
1.01
1.0
0.38
0.49
0.66
1.17
0.95
0.89
0.84
0.83
0.84
0.98
0.89
0.85
0.66
1.03
1.03
0.89
0.84
0.85
0.87
0.82
0.8
0.87
0.83
0.86
0.87
0.9
0.94
0.87
0.84
0.85
0.94
0.95
0.98
0.88
0.67
1.03
1.04
0.94
0.95
0.83
0.85
0.87
1.0
0.99
0.91
0.91
0.91
0.91
0.94
0.84
0.84
0.86
0.93
0.96
0.97
0.9
0.67
1.12
1.12
0.91
0.86
0.86
0.94
0.97
1.02
1.03
0.91
0.87
0.88
0.98
0.99
0.87
0.85
0.93
0.96
1.0
0.9
0.67
0.99
1.0
0.95
0.83
0.84
0.87
0.95
0.98
0.93
0.85
0.86
1.06
0.94
0.83
0.85
0.91
0.97
0.96
0.89
0.88
0.88
1.0
1.0
0.86
0.89
0.95
0.97
0.91
0.9
0.91
0.97
0.95
0.87
0.86
0.9
0.98
0.99
0.9
0.86
0.87
0.98
0.99
0.86
0.87
0.93
0.96
0.98
0.88
0.88
0.89
1.02
1.02
0.88
0.9
0.96
0.94
0.9
0.86
0.86
0.87
0.93
0.89
0.83
0.84
0.89
0.96
0.99
0.97
0.87
0.89
0.95
0.95
0.97
0.85
0.85
0.9
0.97
0.98
0.88
0.84
0.84
1.02
0.92
0.85
0.84
0.86
0.96
0.99
1.01
0.91
0.89
0.89
1.12
0.99
0.87
0.87
0.97
0.96
0.99
0.93
0.83
0.84
1.01
0.9
0.88
0.84
0.84
0.92
0.96
0.98
0.87
0.66
1.03
1.03
0.86
0.84
0.84
0.9
0.98
1.04
1.01
0.93
0.87
0.88
1.09
0.85
0.93
0.97
1.03
1.85
2.07
1.9
1.9
1.65
1.66
2.79
2.79
2.7
0.99
0.89
0.94
0.94
0.88
0.85
0.87
0.95
0.83
0.62
0.96
1.08
0.84
0.95
0.95
0.96
0.95
0.86
0.83
0.85
0.9
0.98
0.96
0.85
0.89
0.9
0.96
0.92
0.84
0.86
0.93
0.48
0.49
0.7
0.7
0.75
0.75
0.97
1.0
1.05
1.02
0.89
0.89
0.9
0.98
0.96
0.86
0.85
0.82
0.83
0.97
0.97
1.02
1.06
1.08
0.94
0.9
0.9
0.97
0.97
1.0
1.03
1.03
1.02
1.02
1.02
0.87
0.9
0.9
0.98
0.98
1.01
1.0
0.9
0.66
0.66
0.66
0.66
0.95
0.96
0.95
0.93
0.86
0.87
0.95
0.97
1.04
1.07
0.98
0.88
0.89
0.9
0.95
0.93
0.9
0.86
0.86
0.89
0.98
0.99
1.01
0.9
0.89
0.89
0.93
0.94
0.86
0.86
1.27
1.28
0.92
0.96
0.96
0.87
0.91
0.96
0.99
1.02
1.02
0.93
0.96
0.96
0.97
0.98
0.92
0.89
0.88
0.93
0.94
0.96
0.88
0.9
0.91
0.96
0.94
0.85
0.85
0.88
0.97
0.95
0.98
0.86
0.88
0.88
0.93
0.93
0.91
0.85
0.85
0.9
0.94
0.96
0.87
0.9
0.91
0.93
0.86
0.86
0.86
0.93
0.95
0.98
0.97
0.89
0.95
0.96
0.85
0.82
0.84
0.83
0.82
0.89
0.94
1.01
1.02
0.91
0.91
0.91
0.9
0.94
0.87
0.84
0.87
0.95
0.96
0.97
0.87
0.88
0.89
0.95
0.94
0.91
0.84
0.88
0.95
0.96
1.0
1.02
0.9
0.91
0.92
0.95
0.91
0.94
0.83
0.85
0.89
0.96
0.99
1.02
0.9
0.87
0.88
0.9
0.89
0.84
0.83
0.87
0.95
0.96
0.88
0.93
0.93
0.94
0.93
0.84
0.84
0.86
0.95
0.95
0.95
0.84
0.92
0.92
0.92
0.89
0.84
0.82
0.88
0.94
1.01
1.0
0.93
0.96
0.97
0.94
0.84
0.83
0.86
0.98
1.02
0.94
0.86
0.93
0.94
0.92
0.85
0.84
0.87
0.94
0.97
0.9
0.87
0.96
0.96
0.97
0.88
0.86
0.88
0.95
0.96
0.86
0.89
0.89
0.94
0.94
0.87
0.86
0.9
0.94
0.96
0.97
0.86
0.91
0.92
0.91
0.88
0.84
0.84
0.9
0.96
0.99
0.9
0.93
0.94
0.93
0.95
0.82
0.85
0.89
0.95
0.93
0.82
0.87
0.88
0.91
0.9
0.84
0.84
0.87
0.96
0.98
0.92
0.86
0.93
0.94
0.93
0.84
0.83
0.87
0.95
0.95
0.87
0.86
0.87
0.95
0.93
0.89
0.84
0.87
0.93
0.92
0.84
0.85
0.86
0.93
0.94
0.96
0.84
0.9
0.9
0.93
0.93
0.84
0.86
0.87
0.89
0.94
0.94
0.84
0.85
0.95
0.96
1.01
1.0
0.89
0.93
0.94
0.9
0.85
0.84
0.87
0.95
0.96
0.94
0.86
0.95
0.95
0.94
0.86
0.84
0.83
0.88
0.97
0.98
0.92
0.86
0.95
0.95
0.95
0.88
0.85
0.85
0.91
0.92
0.94
0.83
0.83
0.88
0.97
0.99
1.03
0.91
0.88
0.95
0.96
0.99
0.89
0.88
0.88
0.94
0.91
0.93
0.83
0.84
0.9
0.96
1.0
0.94
0.86
0.91
0.92
0.94
0.89
0.84
0.8
0.78
0.77
0.78
0.88
0.89
0.95
1.07
0.96
0.97
1.03
1.05
0.97
0.96
0.99
0.99
0.99
0.94
0.93
0.94
0.95
0.97
0.95
0.89
0.88
0.93
0.98
0.99
0.95
0.9
0.93
0.93
0.95
0.94
0.87
0.88
0.86
0.92
0.96
0.99
0.98
0.86
0.86
0.86
0.85
0.89
0.92
0.88
0.83
0.84
0.86
0.96
0.97
0.99
0.9
0.87
0.87
0.88
0.92
0.93
0.84
0.85
0.87
0.96
0.97
1.03
0.94
0.89
0.96
0.97
0.96
0.84
0.84
0.85
0.94
0.95
0.88
0.87
0.97
0.97
1.03
1.01
0.89
0.92
0.92
0.96
0.95
0.95
0.84
0.89
0.95
0.95
0.96
0.86
0.89
0.89
0.95
0.96
0.98
0.89
0.9
0.96
0.95
0.97
0.86
0.88
0.88
0.97
0.98
0.99
0.89
0.9
0.98
1.01
1.08
0.97
0.89
0.98
0.99
0.99
1.02
0.91
0.88
0.92
0.99
1.01
1.02
0.88
0.96
0.97
0.9
0.9
0.98
1.01
1.03
0.97
0.99
1.04
1.06
1.06
0.92
0.86
0.87
0.85
0.81
0.78
0.78
0.86
0.81
0.81
0.82
0.82
0.92
0.92
0.65
0.66
0.75
0.76
0.75
0.75
0.89
0.9
0.63
0.63
1.26
0.7
0.72
0.74
0.77
0.81
0.82
0.83
0.83
0.86
0.87
0.88
0.86
0.84
0.82
0.83
0.82
0.83
0.84
0.87
0.88
0.89
0.84
0.8
0.79
0.81
0.81
0.83
0.88
0.95
0.99
1.02
0.94
0.95
0.96
0.93
0.94
0.9
0.83
0.84
0.92
0.92
0.96
0.99
0.94
0.93
0.94
0.94
0.9
0.93
0.86
0.86
0.96
0.95
0.99
1.02
0.95
0.94
0.94
0.94
0.88
0.87
0.89
0.95
0.94
0.89
0.91
0.98
0.99
1.02
0.93
0.9
0.9
0.89
0.9
0.87
0.87
0.94
0.94
0.99
0.97
0.93
0.98
0.97
1.0
0.95
0.96
0.97
0.94
0.97
0.9
0.91
0.89
0.99
0.98
0.87
0.86
0.87
0.86
0.87
0.94
0.94
0.99
0.98
0.92
1.0
1.01
1.01
0.94
0.98
0.98
0.99
0.98
0.91
0.92
0.97
0.99
1.04
1.07
0.99
0.99
0.99
1.0
0.99
0.94
0.91
0.94
0.97
0.97
0.93
0.93
0.93
0.92
0.95
0.93
0.89
0.88
0.91
0.97
0.95
0.97
0.92
0.94
0.94
0.95
0.91
0.88
0.87
0.91
0.98
1.0
0.95
0.94
0.99
0.97
0.98
0.91
0.96
0.96
0.96
0.92
0.89
0.88
0.96
0.95
0.98
0.93
0.98
0.99
1.01
1.03
0.98
1.0
0.99
1.0
1.0
0.9
0.93
0.94
0.95
0.91
0.92
0.89
0.9
0.97
0.94
0.95
0.9
0.92
0.92
0.92
0.91
0.89
0.87
0.88
0.91
0.95
0.89
0.9
0.89
0.92
0.96
0.89
0.93
0.9
0.97
0.98
0.91
0.93
0.93
0.98
0.96
0.93
0.89
0.92
0.93
0.9
0.89
0.89
0.89
0.96
0.96
0.96
0.96
0.97
1.0
1.0
0.98
0.93
0.94
0.92
0.94
0.89
0.9
0.97
0.97
1.01
1.0
0.99
1.0
1.03
1.04
0.93
0.94
0.9
0.9
0.97
0.89
0.9
0.9
0.97
0.98
0.97
0.93
0.93
0.92
0.93
0.91
0.9
0.91
0.97
0.96
0.98
0.96
0.93
0.94
0.95
0.94
0.9
0.89
0.9
0.94
0.97
0.94
0.91
0.92
0.88
0.9
0.9
0.89
0.9
0.97
0.96
0.99
0.97
0.95
0.96
0.93
0.9
0.88
0.88
0.97
0.97
0.98
0.94
0.94
0.95
0.86
0.87
0.83
0.83
0.9
0.84
0.83
0.87
0.92
0.87
0.84
0.83
0.95
1.0
1.12
1.09
1.05
1.04
1.04
1.02
1.03
0.98
0.92
0.93
0.93
0.96
0.98
0.99
0.99
0.94
0.94
0.95
0.93
0.94
0.96
0.92
0.91
0.9
0.95
0.96
0.97
0.99
0.95
0.95
0.95
0.94
0.98
0.92
0.87
0.9
0.95
0.95
0.95
0.89
0.91
0.92
0.9
0.9
0.88
0.88
0.95
0.96
0.98
0.97
0.96
0.99
1.0
1.03
0.98
0.96
0.96
0.98
0.96
0.94
0.93
0.98
1.0
1.03
1.02
1.0
0.95
0.94
0.94
0.97
0.93
0.89
0.88
0.96
0.94
0.96
0.91
0.9
0.96
0.95
0.94
0.92
0.92
0.9
0.9
0.89
0.87
0.89
0.94
0.96
0.94
0.92
0.96
0.96
0.96
0.95
0.93
0.94
0.92
0.95
0.91
0.9
0.9
0.97
0.96
0.99
0.97
0.95
0.95
0.94
0.94
0.92
0.9
0.89
0.97
0.95
0.96
0.97
0.98
0.98
0.98
0.93
0.93
0.97
0.98
0.98
0.97
0.95
0.97
0.98
0.98
0.94
0.94
0.92
0.92
0.9
0.89
0.91
0.97
0.95
0.95
0.91
0.93
0.94
0.91
0.93
0.88
0.87
0.9
0.96
0.93
0.91
0.92
0.93
0.94
0.93
0.89
0.9
0.94
0.97
0.99
0.98
0.97
1.02
1.05
1.08
1.06
0.98
0.99
1.0
0.98
1.0
0.99
0.93
0.98
0.98
0.99
1.01
0.96
0.96
0.96
0.95
0.9
0.9
0.98
0.96
1.0
0.98
0.95
0.99
0.99
0.99
0.96
0.96
0.96
0.92
0.93
0.89
0.92
0.97
0.99
1.04
1.04
0.97
0.98
1.0
0.99
0.99
0.93
0.92
0.93
0.98
0.98
0.98
0.91
0.94
0.95
0.93
0.9
0.89
0.87
0.93
0.95
0.96
0.96
0.92
0.99
0.98
0.95
0.92
0.97
0.96
0.95
0.93
0.91
0.93
0.96
0.95
0.92
0.89
0.9
0.89
0.9
0.9
0.89
0.91
0.95
0.95
0.95
0.91
0.95
0.95
0.97
0.91
0.91
0.9
0.96
0.94
0.95
0.91
0.93
0.94
0.93
0.89
0.89
0.87
0.93
0.94
0.95
0.92
0.93
0.93
0.98
0.96
0.95
0.9
0.9
0.96
0.95
0.96
0.93
0.93
0.92
0.91
0.9
0.89
0.89
0.96
0.94
0.96
0.94
0.95
0.95
0.9
0.92
0.89
0.89
0.94
0.95
0.96
0.94
0.94
0.94
0.95
0.91
0.91
0.92
0.97
0.98
0.96
0.96
0.97
0.97
0.98
0.95
0.95
0.97
0.96
0.95
0.94
0.91
0.94
0.96
0.92
0.89
0.89
0.88
0.87
0.88
0.88
0.87
0.91
0.94
0.95
0.95
0.98
0.98
0.92
0.9
0.88
0.9
0.93
0.95
0.97
0.97
0.98
0.98
0.98
0.9
0.9
0.91
0.97
0.96
0.96
0.95
0.97
0.97
0.95
0.9
0.89
0.92
0.97
0.92
0.97
0.95
0.96
0.97
0.96
0.94
0.95
0.99
0.99
1.0
0.93
0.91
0.95
0.95
0.96
0.96
0.94
0.95
0.93
0.92
0.9
0.89
0.9
0.94
0.89
0.9
0.91
0.9
0.89
0.88
0.86
0.94
0.91
0.94
0.94
0.95
0.98
1.01
1.01
0.97
0.93
0.93
0.91
0.89
0.87
0.87
0.95
0.95
0.95
0.96
0.98
0.99
0.96
0.9
0.91
0.91
0.96
0.96
0.99
0.98
0.95
0.96
0.94
0.88
0.83
0.82
0.83
0.87
0.91
0.94
1.02
1.07
1.02
1.02
1.02
1.03
1.01
0.95
0.92
0.98
0.98
1.02
1.05
1.0
0.97
0.97
0.97
0.96
0.91
0.91
0.97
0.96
1.0
1.02
0.98
0.99
0.99
0.98
0.98
0.91
0.92
0.98
0.97
0.98
0.94
0.96
0.97
0.95
0.94
0.9
0.91
0.95
0.96
0.97
0.94
0.93
0.94
0.92
0.91
0.89
0.88
0.94
0.94
0.95
0.95
0.93
0.97
0.97
0.95
0.92
0.98
0.93
0.97
0.9
0.9
0.92
0.94
0.92
0.92
0.93
0.92
0.92
0.95
0.9
0.91
0.96
0.96
0.97
0.93
0.92
0.92
0.93
0.88
0.87
0.86
0.89
0.91
0.91
0.88
0.96
0.96
0.92
0.88
0.89
0.91
0.92
0.9
0.88
0.94
0.95
0.93
0.89
0.9
0.88
0.92
0.88
0.87
0.94
0.94
0.95
0.96
0.94
0.78
0.85
0.78
0.76
1.52
1.52
1.51
1.51
0.71
0.7
0.68
0.68
0.67
0.66
0.66
0.65
0.64
0.64
0.64
0.63
0.66
0.69
0.67
0.69
0.71
0.77
0.85
0.88
0.86
0.86
0.9
0.96
0.97
0.9
0.89
0.97
1.01
1.02
1.03
0.96
0.97
0.97
0.96
0.88
0.81
0.8
0.85
0.95
1.01
0.93
0.85
0.86
0.9
0.9
0.91
0.83
0.92
0.96
1.1
1.02
0.92
0.93
0.9
0.91
0.86
0.82
0.84
0.92
0.96
1.0
0.87
0.88
0.93
0.9
0.91
0.82
0.86
0.93
0.99
1.01
0.9
0.91
0.96
0.92
0.9
0.83
0.85
0.93
0.94
0.93
0.91
0.91
0.91
0.92
0.81
0.9
0.92
1.03
1.04
0.93
0.93
0.92
0.93
0.82
0.85
0.91
0.96
1.04
0.96
0.92
0.93
0.94
0.95
0.84
0.84
0.92
0.94
0.98
0.87
0.87
0.87
0.89
0.85
0.81
0.84
0.91
0.94
0.9
0.88
0.88
0.88
0.87
0.82
0.88
0.95
1.01
0.93
0.91
0.92
0.91
0.92
0.81
0.86
0.91
0.93
0.82
0.92
0.92
0.94
0.98
0.88
0.93
0.94
1.04
1.03
0.91
0.92
0.96
0.91
0.82
0.83
0.88
0.98
0.96
0.87
0.88
0.87
0.91
0.84
0.83
0.88
0.94
0.99
0.96
0.95
0.96
0.96
0.84
0.85
0.94
0.98
1.05
0.96
0.98
0.98
1.01
1.0
0.92
0.93
0.97
0.98
0.96
0.85
0.85
0.89
0.95
0.95
0.87
0.95
0.96
1.02
1.09
0.98
0.98
0.99
0.99
0.95
0.85
0.88
0.96
1.02
1.01
0.87
0.88
0.94
0.92
0.87
0.86
0.87
0.96
0.98
0.93
0.91
0.92
0.91
0.96
0.83
0.87
0.94
0.96
0.99
0.89
0.89
0.96
0.93
0.86
0.85
0.89
0.97
0.96
0.88
0.91
0.92
0.96
0.95
0.85
0.85
0.93
0.96
0.98
0.88
0.92
0.92
0.95
0.87
0.84
0.85
0.9
0.99
1.01
0.92
0.93
0.93
0.95
0.92
0.83
0.85
0.92
0.96
0.96
0.84
0.89
0.9
0.9
0.87
0.83
0.86
0.91
0.94
0.9
0.78
0.79
0.85
0.86
0.91
0.79
0.8
0.84
0.92
0.86
0.85
0.86
0.94
0.92
0.86
0.87
0.94
0.98
1.01
1.0
0.87
0.88
0.86
0.88
0.95
0.84
0.85
0.9
0.94
0.97
0.97
0.87
0.87
0.96
0.94
0.97
0.92
0.85
0.92
0.99
1.05
1.02
0.88
0.89
0.88
0.93
0.92
0.82
0.85
0.91
0.99
1.03
0.93
0.93
0.93
0.96
0.83
0.86
0.93
0.97
1.0
0.89
0.92
0.92
0.96
0.94
0.85
0.84
0.85
0.95
0.97
0.99
0.9
0.91
0.91
0.89
0.84
0.82
0.84
0.95
1.0
1.0
0.9
0.96
0.97
0.95
0.83
0.88
0.96
0.98
1.03
0.9
0.88
0.89
0.89
0.85
0.82
0.81
0.86
0.93
0.85
0.8
0.81
0.77
0.76
0.89
0.97
1.02
0.9
0.92
0.98
1.01
1.04
0.98
0.95
0.95
0.96
0.96
0.93
0.87
0.85
0.89
0.97
0.95
0.89
0.89
0.94
0.87
0.87
0.94
0.94
1.01
0.95
0.94
0.95
0.96
0.85
0.87
0.86
0.95
0.96
0.89
0.91
0.92
0.94
0.96
0.86
0.87
0.94
0.95
1.0
0.88
0.86
0.87
0.91
0.94
0.86
0.85
0.93
0.95
1.0
0.93
0.91
0.92
0.94
0.97
0.87
0.86
0.93
0.94
0.99
0.89
0.91
0.91
0.97
0.95
0.86
0.86
0.9
0.97
0.99
0.93
0.89
0.9
0.95
0.93
0.86
0.84
0.88
0.95
0.97
0.94
0.94
0.94
0.95
0.94
0.84
0.88
0.94
0.95
0.87
0.85
0.86
0.87
0.91
0.87
0.82
0.84
0.93
0.95
0.96
1.7
1.71
0.82
0.82
0.82
0.88
0.91
0.84
0.91
0.91
0.93
0.93
0.84
0.89
0.91
0.95
0.92
0.84
0.91
0.92
0.89
0.87
0.86
0.95
1.04
1.09
1.03
0.94
0.95
0.96
0.97
0.89
0.83
0.84
0.92
0.95
0.92
0.86
0.86
0.92
0.94
0.94
0.83
0.87
0.94
0.96
0.92
0.92
0.83
0.84
0.82
0.83
0.81
0.81
0.79
0.79
0.75
0.73
0.73
0.75
0.72
0.66
0.77
0.71
0.74
0.71
0.72
0.73
0.77
0.81
0.77
0.78
0.82
0.84
0.87
0.84
0.84
0.9
0.9
0.9
0.85
0.84
0.86
0.89
0.94
0.88
0.9
0.9
0.89
0.91
0.88
0.85
0.88
0.94
0.98
1.03
0.93
0.96
0.97
0.99
1.0
0.93
0.9
0.93
0.97
1.01
0.97
0.96
0.96
1.01
1.0
0.95
0.91
0.96
1.02
1.07
0.99
0.98
0.99
1.03
1.02
1.0
0.92
0.91
0.99
1.04
1.06
0.95
0.96
0.97
1.0
1.01
0.93
0.91
0.95
1.0
1.0
0.95
0.86
0.87
0.81
0.8
0.83
0.95
0.99
0.94
0.94
1.0
1.07
0.98
0.93
0.94
0.98
0.96
0.87
0.88
0.94
0.94
1.0
0.9
0.96
0.96
0.96
0.97
0.87
0.89
0.97
1.0
1.08
1.02
0.94
0.97
0.98
1.0
0.85
0.86
0.96
0.97
1.05
0.96
0.9
0.91
0.96
0.9
0.87
0.85
0.95
0.97
0.98
0.89
0.9
0.9
0.95
0.92
0.86
0.87
0.96
0.97
0.98
0.88
0.89
0.9
0.95
0.97
0.88
0.86
0.88
0.95
0.98
0.95
0.88
0.88
0.93
0.95
0.92
0.85
0.87
0.95
0.95
1.01
0.9
0.9
0.91
0.98
0.96
0.85
0.86
0.94
0.96
1.01
0.9
0.89
0.9
0.94
0.92
0.85
0.86
0.9
0.98
0.98
0.92
0.86
0.87
0.86
0.88
0.91
0.83
0.83
0.89
0.94
0.97
0.93
0.9
0.91
0.95
0.92
0.85
0.85
0.89
0.93
0.87
0.82
0.8
0.8
0.83
0.79
0.79
0.81
0.92
0.98
1.01
0.89
0.95
0.95
0.95
0.93
0.85
0.89
0.96
0.96
0.97
0.86
0.9
0.91
0.93
0.9
0.82
0.82
0.85
0.92
0.94
0.88
0.84
0.84
0.85
0.9
0.89
0.83
0.86
0.93
0.94
0.99
0.93
0.87
0.87
0.97
0.91
0.87
0.84
0.86
0.95
0.93
0.95
0.86
0.9
0.9
0.95
0.94
0.85
0.84
0.87
0.95
0.95
0.94
0.86
0.9
0.9
0.93
0.95
0.85
0.85
0.83
0.85
0.84
0.8
0.79
0.88
0.91
0.84
0.89
0.93
0.99
1.0
0.91
0.92
0.92
0.94
0.92
0.84
0.84
0.88
0.96
0.96
0.95
0.86
0.92
0.92
0.94
0.94
0.84
0.85
0.86
0.98
0.99
0.99
0.91
0.93
0.93
0.99
0.96
0.87
0.85
0.86
0.93
0.96
0.9
0.87
0.87
0.9
0.91
0.95
0.86
0.87
0.92
0.95
0.99
1.0
0.87
0.88
0.88
0.93
0.91
0.86
0.85
0.86
0.96
0.95
0.96
0.86
0.89
0.89
0.88
0.88
0.82
0.81
0.85
0.96
1.02
0.99
0.92
0.95
0.95
0.96
0.83
0.85
0.95
0.96
1.06
1.05
0.95
0.94
0.95
0.98
0.92
0.86
0.86
0.95
0.95
1.0
0.9
0.92
0.92
0.95
0.94
0.84
0.84
0.89
0.95
0.96
0.89
0.89
0.89
0.93
0.93
0.9
0.84
0.85
0.94
0.95
0.98
0.88
0.89
0.9
0.94
0.88
0.84
0.82
0.86
0.96
0.94
0.86
0.87
0.87
0.88
0.93
0.82
0.82
0.86
0.95
0.96
0.93
0.85
0.93
0.93
0.92
0.82
0.83
0.87
0.95
0.93
0.85
0.96
0.96
0.99
1.0
0.88
0.89
0.98
0.98
1.02
0.97
0.92
0.92
0.98
0.98
0.87
0.86
0.82
0.82
0.95
0.94
0.83
0.8
0.81
0.83
0.87
0.8
0.82
0.92
0.92
0.95
0.95
0.95
0.87
0.87
0.92
0.95
0.98
1.03
1.02
0.92
0.87
0.92
0.94
0.95
0.98
0.88
0.88
0.91
0.93
0.96
0.96
0.88
0.95
0.96
1.02
1.04
0.92
0.94
0.95
0.96
0.94
0.85
0.87
0.95
0.97
1.02
1.02
0.9
0.93
0.93
0.95
0.86
0.87
0.94
0.95
1.03
1.04
0.96
0.98
1.02
1.05
1.02
0.91
0.92
0.98
0.94
0.94
1.72
1.72
0.91
0.82
0.85
0.91
0.94
0.98
0.89
0.92
0.93
0.94
0.93
0.84
0.87
0.92
0.94
0.97
0.96
0.88
0.91
0.91
0.95
0.9
0.85
0.81
0.8
0.78
0.8
0.83
0.83
0.79
0.79
0.8
0.79
0.78
0.78
0.75
0.72
0.71
0.7
0.75
0.75
0.78
0.76
0.78
0.82
0.86
0.88
0.84
0.87
0.9
0.91
0.91
0.87
0.92
0.92
0.95
0.96
0.89
0.88
0.9
0.93
0.96
0.98
0.89
0.92
0.92
0.94
0.96
0.89
0.87
0.89
0.95
0.98
0.99
0.92
0.94
0.95
0.96
0.94
0.84
0.85
0.95
0.95
1.02
0.96
0.96
0.96
0.97
0.98
0.87
0.88
0.95
0.94
0.98
0.87
0.9
0.9
0.97
0.88
0.86
0.88
0.97
0.97
0.96
0.87
0.94
0.94
0.97
0.9
0.86
0.87
0.96
0.97
1.02
0.92
0.92
0.92
1.0
0.96
0.85
0.87
0.92
0.97
0.97
0.9
0.89
0.9
0.95
0.93
0.92
0.84
0.89
0.96
0.97
0.98
0.89
0.93
0.94
0.96
0.92
0.86
0.85
0.9
0.96
0.95
0.91
0.86
0.87
0.92
0.92
0.96
0.84
0.87
0.92
0.92
0.94
0.84
0.86
0.86
0.91
0.9
0.91
0.83
0.85
0.89
0.96
1.01
0.97
0.9
0.97
0.97
0.98
0.88
0.87
0.87
0.91
0.92
0.86
0.83
0.85
0.93
0.96
0.99
0.96
0.89
0.9
0.96
0.94
0.88
0.84
0.83
0.89
0.96
0.97
0.93
0.88
0.88
0.93
0.94
0.9
0.84
0.84
0.89
0.97
0.98
0.88
0.89
0.9
0.96
0.92
0.89
0.84
0.86
0.92
0.94
0.92
0.85
0.9
0.91
0.92
0.82
0.84
0.86
0.94
0.94
0.9
0.89
0.96
0.96
0.98
0.84
0.86
0.86
0.97
0.95
0.94
0.86
0.91
0.91
0.92
0.91
0.84
0.83
0.84
0.93
0.94
0.97
0.92
0.89
0.9
0.94
0.95
0.84
0.85
0.84
0.91
0.94
0.91
0.85
0.86
0.86
0.84
0.88
0.81
0.79
0.83
0.94
0.96
0.95
0.88
0.87
0.88
0.88
0.84
0.81
0.83
0.87
0.96
0.92
0.85
0.91
0.92
0.95
0.84
0.81
0.78
0.76
0.8
0.95
0.98
0.94
0.93
0.94
0.96
0.89
0.85
0.87
0.97
1.01
1.06
0.93
0.96
0.96
1.0
0.99
0.89
0.89
0.99
1.02
1.07
0.99
0.93
0.93
1.0
0.97
0.96
0.87
0.89
0.97
1.01
1.01
0.91
0.91
0.93
0.94
0.88
0.86
0.87
0.95
0.95
0.97
0.87
0.88
0.88
0.95
0.93
0.84
0.85
0.91
0.97
0.98
0.87
0.83
0.84
0.83
0.79
0.79
0.81
0.88
0.81
0.82
0.87
0.92
0.93
0.85
0.87
0.87
0.94
0.96
0.98
0.9
0.89
0.96
0.99
1.08
0.99
0.95
0.95
0.98
0.96
0.96
0.89
0.92
0.98
1.07
1.09
0.96
0.96
0.96
0.97
0.98
0.88
0.88
0.97
0.98
1.02
0.96
0.9
0.91
0.97
0.95
0.86
0.86
0.89
0.97
0.95
0.89
0.86
0.87
0.87
0.94
0.85
0.85
0.84
0.91
0.95
0.93
0.87
0.9
0.91
0.94
0.89
0.87
0.83
0.87
0.94
0.94
0.88
0.85
0.86
0.88
0.91
0.85
0.82
0.86
0.91
0.95
0.95
0.84
0.87
0.87
0.9
0.91
0.83
0.83
0.89
0.96
0.96
0.89
0.82
0.82
0.81
0.8
0.81
0.8
0.84
0.89
0.9
0.86
0.82
0.83
0.82
0.81
0.81
0.78
0.73
0.73
0.94
0.94
0.47
0.5
0.81
0.34
0.64
1.05
0.68
0.68
0.69
1.24
0.79
0.7
0.64
0.79
0.69
0.66
0.7
0.7
0.66
0.66
0.68
0.66
0.64
0.65
0.65
0.65
0.65
0.64
0.64
0.63
0.64
0.65
0.7
0.77
0.76
0.73
0.76
0.77
0.79
0.8
0.81
0.79
0.8
0.82
0.85
0.85
0.81
0.83
0.84
0.84
0.85
0.8
0.8
0.78
0.86
0.86
0.81
0.84
0.85
0.84
0.91
0.79
0.81
0.89
0.91
0.95
0.85
0.86
0.86
0.92
0.81
0.82
0.82
0.92
0.91
0.83
0.83
0.86
0.93
0.97
0.91
0.89
0.96
1.01
1.0
0.9
0.88
0.89
0.94
0.95
0.86
0.85
0.92
0.96
1.06
0.93
0.93
0.93
0.95
0.88
0.84
0.86
0.98
1.03
1.02
0.91
0.94
0.94
0.96
0.91
0.85
0.81
0.84
0.93
0.95
0.86
0.86
0.87
1.22
1.22
0.93
0.94
1.02
0.92
0.86
0.94
0.95
0.98
0.9
0.89
0.94
0.97
1.03
0.99
0.91
0.96
0.96
1.0
0.95
0.86
0.84
0.87
0.98
1.0
0.9
0.86
0.87
0.91
0.93
0.89
0.84
0.84
0.89
0.96
0.97
0.85
0.85
0.85
0.9
0.92
0.82
0.83
0.86
0.96
0.97
0.96
0.84
0.88
0.89
0.94
0.88
0.85
0.83
0.92
0.95
1.02
0.99
0.86
0.88
0.89
0.95
0.95
0.85
0.85
0.92
0.96
0.99
1.0
0.89
0.92
0.93
0.97
0.9
0.86
0.84
0.88
0.98
0.98
0.96
0.86
0.89
0.9
0.95
0.91
0.87
0.83
0.86
0.95
0.96
0.93
0.87
0.9
0.91
1.28
1.28
0.83
0.83
0.87
0.91
0.83
0.84
0.84
1.27
1.27
0.81
0.81
0.85
0.94
0.94
0.93
0.85
0.9
0.91
0.9
0.84
0.81
0.77
0.76
0.83
0.93
0.96
0.88
0.9
0.91
0.94
0.96
0.84
0.86
0.92
0.97
0.99
0.89
0.91
0.91
0.97
0.9
0.87
0.85
0.89
0.98
0.99
0.96
0.87
0.93
0.93
0.95
0.9
0.86
0.84
0.89
0.96
0.96
0.92
0.85
0.85
0.88
0.94
0.88
0.85
0.87
0.95
0.97
0.98
0.88
0.92
0.93
0.96
0.85
0.84
0.86
0.95
0.96
0.95
0.88
0.94
0.94
0.96
0.92
0.86
0.85
0.89
0.97
0.99
0.91
0.89
0.89
0.95
0.94
0.87
0.85
0.88
0.96
0.96
0.96
0.87
0.92
0.92
0.97
0.93
0.87
0.86
0.88
0.96
0.97
0.88
0.91
0.91
0.94
0.96
0.89
0.86
0.89
0.96
0.99
0.92
0.89
0.9
0.94
0.92
0.88
0.85
0.86
0.92
0.94
0.94
0.85
0.93
0.93
0.95
0.93
0.85
0.85
0.88
0.97
0.97
0.89
0.91
0.92
0.87
0.84
0.93
0.95
1.0
0.96
0.88
0.97
0.97
0.97
0.84
0.84
0.85
0.96
0.96
0.86
0.88
0.88
0.91
0.93
0.84
0.83
0.86
0.93
0.91
0.85
0.94
0.94
0.94
0.87
0.83
0.84
0.88
0.93
0.87
0.84
0.84
0.86
0.9
0.86
0.82
0.82
0.87
0.93
0.75
0.76
0.74
0.83
0.76
0.78
0.76
0.75
0.72
0.72
0.73
0.72
0.72
0.7
0.72
0.72
0.71
0.71
0.7
0.68
0.68
0.67
0.67
0.67
0.66
0.66
0.66
0.67
0.66
0.67
0.67
0.7
0.7
0.7
0.69
0.71
0.71
0.7
0.69
0.69
0.72
0.73
0.73
0.73
0.73
0.74
0.71
0.69
0.69
0.72
0.72
0.69
0.7
0.72
0.76
0.75
0.73
0.73
0.72
0.72
0.75
0.87
0.83
0.85
0.87
0.83
0.84
0.85
0.86
0.88
0.84
0.82
0.82
0.85
0.9
0.95
0.89
0.89
0.92
0.95
0.95
0.87
0.88
0.93
0.96
0.96
0.89
0.93
0.93
0.93
0.99
0.94
0.89
0.96
0.97
0.93
0.9
0.97
0.97
0.97
0.88
0.88
0.94
0.97
0.95
0.9
0.94
0.98
0.99
0.93
0.94
0.94
0.95
0.94
0.88
0.87
0.91
0.95
1.03
0.96
0.93
0.94
0.96
0.96
0.88
0.86
0.87
0.95
0.98
0.96
0.88
0.91
0.95
0.98
0.99
0.89
0.95
0.94
1.0
0.98
0.89
0.95
0.96
0.95
0.87
0.85
0.87
0.98
1.0
0.98
0.87
0.88
0.89
0.91
0.87
0.82
0.83
0.86
0.96
0.96
0.88
0.88
0.89
0.97
0.95
0.85
0.85
0.9
0.96
0.97
0.97
0.85
0.92
0.92
0.93
0.94
0.86
0.83
0.84
0.93
0.94
0.95
0.85
0.87
0.87
0.93
0.91
0.86
0.84
0.92
0.95
1.0
0.98
0.92
0.95
0.95
0.94
0.85
0.83
0.86
0.97
0.97
0.94
0.84
0.91
0.92
0.94
0.9
0.84
0.84
0.93
0.95
1.0
0.97
0.86
0.92
0.93
0.94
0.87
0.84
0.85
0.91
0.96
0.99
0.86
0.86
0.87
0.93
0.91
0.83
0.82
0.84
0.91
0.94
0.86
0.86
0.87
0.9
0.93
0.87
0.83
0.82
0.88
0.96
0.96
0.88
0.86
0.87
0.92
0.9
0.82
0.83
0.86
0.95
0.96
0.87
0.86
0.87
0.9
0.87
0.85
0.81
0.85
0.89
0.9
0.88
0.81
0.82
0.85
0.88
0.91
0.8
0.81
0.89
0.93
0.98
0.9
0.87
0.88
0.9
0.92
0.82
0.81
0.78
0.75
0.8
0.79
0.83
3.08
1.9
1.91
0.74
0.74
0.77
0.79
0.78
0.76
0.76
0.76
0.79
0.8
0.78
0.78
0.82
0.85
0.82
0.79
0.77
0.79
0.82
0.8
0.81
0.85
0.89
0.9
0.81
0.82
0.82
0.79
0.79
0.76
0.76
0.79
0.88
0.92
0.91
0.87
0.87
0.92
0.96
0.99
0.98
0.96
0.97
0.97
0.98
0.94
0.91
0.93
0.97
0.98
1.0
0.92
0.95
0.95
0.96
0.98
0.95
0.91
0.95
0.99
1.03
1.04
1.03
0.99
1.0
0.99
0.97
0.97
0.91
0.91
0.96
0.99
0.96
0.95
0.95
0.95
0.96
0.88
0.9
0.89
0.97
0.98
1.01
0.94
0.92
0.93
0.9
0.89
0.85
0.86
0.87
1.27
1.28
0.81
0.83
0.93
0.96
0.94
0.9
0.99
1.0
0.98
0.97
0.9
0.89
0.97
0.97
0.98
0.91
0.92
0.93
0.95
0.95
0.87
0.86
0.89
0.97
0.98
0.98
0.9
0.92
0.93
0.93
0.92
0.87
0.86
0.89
0.98
0.98
0.96
0.89
0.94
0.94
0.94
0.96
0.87
0.86
0.87
0.93
0.95
0.9
0.88
0.87
0.91
0.96
0.9
0.88
0.88
0.86
0.87
0.88
0.83
0.83
0.87
0.97
0.95
0.9
0.92
0.92
0.9
0.89
0.85
0.83
0.86
0.94
0.95
0.94
0.87
0.9
0.91
0.9
0.88
0.85
0.84
0.88
0.93
0.93
0.86
0.88
0.9
0.95
0.93
0.87
0.88
0.84
0.87
0.88
0.87
0.85
0.87
0.95
0.95
0.92
0.88
0.89
0.89
0.89
0.88
0.89
0.86
0.85
0.87
0.92
0.97
0.99
0.97
0.9
0.88
0.88
0.88
0.87
0.87
0.84
0.83
0.86
0.91
0.9
0.87
0.87
0.88
0.88
0.88
0.83
0.84
0.86
0.89
0.91
0.86
0.87
0.9
0.95
0.87
0.88
0.88
0.9
0.96
0.97
0.91
0.88
0.92
0.92
0.92
0.92
0.88
0.87
0.9
0.96
0.93
0.88
0.89
0.9
0.88
0.89
0.85
0.84
0.87
0.96
0.89
0.9
0.89
0.94
0.95
0.93
0.89
0.87
0.91
0.91
0.93
0.87
0.86
0.86
0.89
0.91
0.9
0.87
0.88
0.85
0.87
0.86
0.85
0.85
0.89
0.93
0.9
0.88
0.91
0.91
0.88
0.91
0.86
0.85
0.95
0.92
0.97
0.96
0.89
0.9
0.91
0.89
0.86
0.86
0.88
0.97
0.97
0.95
0.92
0.98
0.98
0.98
0.89
0.88
0.88
0.97
0.96
0.96
0.9
0.93
0.93
0.98
0.93
0.9
0.9
0.97
0.96
0.98
1.01
0.92
0.93
0.91
0.92
0.91
0.9
0.9
0.96
0.95
0.96
0.92
0.94
0.98
0.99
1.01
0.94
0.91
0.91
0.91
0.9
0.89
0.88
0.89
0.96
0.94
0.95
0.89
0.9
0.91
0.89
0.91
0.88
0.86
0.88
0.89
0.93
0.9
0.87
0.88
0.87
0.86
0.89
0.86
0.85
0.88
0.96
0.95
0.95
0.92
0.92
0.9
0.9
0.89
0.86
0.85
0.91
0.96
0.97
0.89
0.84
0.85
0.82
0.81
0.81
0.78
0.79
0.83
0.93
0.97
1.05
1.06
0.97
1.02
1.02
1.03
1.02
0.95
0.94
0.97
0.99
0.99
0.98
0.96
0.97
0.99
0.98
0.99
1.01
0.98
1.0
1.02
1.06
1.02
0.94
0.94
0.94
0.97
0.97
0.91
0.91
0.98
0.99
1.04
1.0
0.92
0.97
0.97
0.99
0.92
0.92
0.9
0.98
1.03
1.11
1.12
1.04
1.05
1.09
1.1
1.11
1.0
1.01
1.02
1.01
1.05
1.07
1.0
0.95
1.01
1.06
1.1
1.08
1.02
1.03
1.04
1.03
0.95
0.94
0.97
1.01
1.04
1.01
0.96
0.99
1.0
1.02
0.97
0.92
0.93
0.92
0.98
0.9
0.9
0.9
0.97
0.95
0.95
0.91
0.92
0.92
0.9
0.88
0.86
0.86
0.91
0.94
0.93
0.89
0.9
0.94
0.95
0.92
0.91
0.9
0.95
0.95
0.94
0.89
0.88
0.94
0.98
0.98
1.02
0.98
0.94
0.95
1.01
0.96
0.98
0.93
0.9
0.93
0.98
0.97
0.93
0.9
0.88
0.95
0.97
0.92
0.91
0.92
0.91
0.92
0.97
0.9
0.89
0.99
1.02
1.06
1.01
1.01
1.03
1.07
1.06
1.03
0.97
0.96
1.0
1.04
1.05
1.05
0.97
0.94
1.0
1.03
1.07
1.01
0.94
0.94
0.95
1.02
1.02
0.98
0.93
1.04
1.13
1.15
1.08
1.0
0.99
1.0
1.0
0.98
1.01
0.98
0.95
1.02
1.12
1.16
1.04
1.0
1.01
1.02
1.01
1.02
0.96
0.97
1.04
1.11
1.17
1.15
1.03
1.04
1.05
1.03
0.95
1.03
1.06
1.09
1.08
1.02
0.94
1.0
1.01
0.98
0.98
0.92
0.92
1.0
1.06
1.04
1.0
1.02
1.05
0.99
0.94
0.95
0.97
0.98
0.91
0.89
0.89
0.91
0.93
0.92
0.89
0.87
0.91
0.97
0.93
0.88
0.89
0.91
0.93
0.92
0.89
0.88
0.88
0.91
0.95
0.89
0.9
0.87
0.91
0.95
0.9
0.89
0.87
0.89
0.9
0.94
0.87
0.87
0.9
0.91
0.92
0.86
0.85
0.88
0.91
0.91
0.86
0.87
0.88
0.91
0.93
0.87
0.88
0.86
0.9
0.91
0.92
0.87
0.9
0.96
0.96
0.96
0.93
0.93
0.98
0.98
1.02
1.0
0.93
0.91
0.97
0.95
1.0
0.98
0.92
0.97
0.98
0.98
0.97
0.91
0.97
0.96
0.96
0.94
0.92
0.96
0.95
0.97
0.92
0.94
0.97
1.01
0.99
0.98
0.98
1.02
0.99
0.95
0.98
0.98
1.02
1.01
0.94
0.98
0.98
0.99
1.03
0.98
0.92
0.99
1.01
1.04
1.05
0.99
0.97
0.99
1.01
1.05
1.0
0.96
0.97
0.98
0.89
0.89
0.89
0.95
0.94
0.91
0.95
0.96
0.98
0.99
0.95
0.93
0.97
0.95
0.9
0.91
0.96
0.94
0.94
0.94
0.93
0.96
0.95
0.91
0.92
0.95
0.96
0.98
0.96
0.93
0.97
0.97
0.95
0.89
0.94
0.96
0.94
0.93
0.9
0.96
0.95
0.93
0.91
0.91
0.94
0.95
0.89
0.89
0.89
0.88
0.89
0.9
0.87
0.88
0.94
0.94
0.91
0.9
0.95
0.95
0.97
0.96
0.87
0.93
0.95
0.95
0.93
0.89
0.96
0.96
0.99
1.07
1.0
0.92
0.93
0.99
1.02
1.07
0.99
0.92
0.98
0.99
1.01
0.99
0.91
0.94
1.0
1.01
1.05
1.01
0.94
0.95
0.99
1.0
1.03
0.99
0.95
0.95
0.96
1.0
1.0
1.04
1.08
1.12
1.09
1.0
0.98
0.98
1.02
1.09
1.05
0.96
0.97
0.98
0.98
0.92
0.94
0.95
0.93
0.88
0.85
0.81
0.91
0.96
0.95
0.98
1.02
1.06
1.07
1.05
1.0
0.98
0.99
1.02
1.03
1.03
1.01
0.96
0.99
0.98
0.99
0.95
0.9
0.91
0.96
0.94
0.91
0.88
0.86
0.87
0.89
0.92
0.87
0.88
0.88
0.92
0.94
0.89
0.9
0.96
0.93
0.95
0.92
0.92
0.97
0.95
0.97
0.92
0.89
0.87
0.89
0.92
0.88
0.86
0.85
0.88
0.9
0.89
0.88
0.9
0.9
0.91
0.92
0.87
0.87
0.91
0.94
0.94
0.91
0.89
0.92
0.92
0.89
0.85
0.85
0.87
0.94
0.9
0.9
0.88
0.96
0.96
0.98
0.94
0.92
0.96
0.96
0.98
0.96
0.92
0.97
0.98
0.99
0.95
0.91
0.95
0.96
0.97
0.89
0.9
0.9
0.97
0.99
1.01
1.02
0.97
1.0
1.01
0.99
0.94
0.91
0.96
0.97
0.98
0.96
0.93
0.96
0.98
0.95
0.9
0.93
0.96
0.95
0.96
0.92
0.97
0.98
1.01
1.01
0.94
0.96
0.98
1.0
1.01
0.95
0.95
0.96
0.97
0.97
0.96
0.92
0.93
0.97
0.99
0.99
0.94
0.95
0.91
0.91
0.89
0.88
0.88
0.95
0.95
0.97
0.97
0.98
1.01
1.0
0.96
0.97
0.99
0.97
0.97
0.92
0.91
0.97
0.99
1.02
0.99
0.94
0.94
0.95
0.98
0.92
0.88
0.88
0.89
0.9
0.89
0.88
0.86
0.9
0.91
0.89
0.89
0.91
0.94
0.93
0.91
0.9
0.91
0.95
0.93
0.9
0.9
0.9
0.94
0.92
0.91
0.89
0.88
0.88
0.88
0.88
0.86
0.83
0.86
0.89
0.9
0.85
0.85
0.87
0.87
0.88
0.86
0.87
0.91
0.91
0.85
0.85
0.84
0.87
0.91
0.86
0.86
0.87
0.89
0.9
0.88
0.88
0.85
0.86
0.87
0.85
0.87
0.92
0.94
0.92
0.9
0.9
0.87
0.86
0.83
0.84
0.87
0.94
0.93
0.92
0.88
0.93
0.93
0.89
0.86
0.85
0.89
0.92
0.91
0.89
0.87
0.9
0.9
0.94
0.9
0.88
0.9
0.94
0.92
0.93
0.86
0.9
0.89
0.87
0.86
0.86
0.91
0.75
0.76
0.95
0.78
0.72
0.73
2.21
2.21
0.67
0.67
0.67
0.66
0.64
0.65
0.63
0.63
0.62
0.62
0.62
0.61
0.61
0.6
0.6
0.61
0.61
0.61
0.61
0.61
0.63
0.61
0.63
0.66
0.71
0.82
0.79
0.78
0.77
0.8
0.81
0.82
0.84
0.85
0.83
0.83
0.87
0.89
0.9
0.88
0.89
0.88
0.9
0.88
0.85
0.85
0.84
0.88
0.91
0.9
0.83
0.83
0.85
0.91
0.94
0.91
0.84
0.92
0.95
1.02
0.97
0.93
0.93
0.93
0.92
0.89
0.81
0.8
0.84
0.93
0.97
0.93
0.89
0.89
0.9
0.88
0.82
0.91
0.92
0.98
0.93
0.9
0.9
0.92
0.96
0.91
0.86
0.97
1.03
0.99
0.95
0.96
0.99
0.99
0.9
0.89
0.93
0.96
0.95
0.89
0.9
0.87
0.87
0.83
0.82
0.85
0.93
0.99
0.91
0.92
0.93
0.94
0.84
0.85
0.87
0.95
0.97
0.87
0.83
0.84
0.79
0.76
0.76
0.77
0.76
0.75
0.77
0.78
0.78
0.74
0.75
0.73
0.75
0.71
0.71
0.71
0.74
0.75
0.73
0.73
0.73
0.7
0.71
0.71
0.72
0.7
0.7
0.71
0.73
0.7
0.71
0.72
0.72
0.71
0.74
1.62
1.62
0.63
0.69
0.7
0.66
0.64
0.64
0.65
0.64
0.64
0.63
0.66
0.66
0.66
0.66
0.68
0.69
0.67
0.66
0.64
0.65
0.62
0.64
0.63
0.74
2.1
1.68
3.04
1.6
1.92
1.06
0.53
0.53
0.53
0.51
0.51
0.52
0.51
0.5
0.51
0.5
0.51
0.51
0.51
0.51
0.5
0.49
0.51
0.51
0.51
0.51
0.52
0.52
0.52
0.52
0.52
0.52
0.52
0.51
0.53
0.54
0.55
0.55
0.56
0.54
0.54
0.54
0.55
0.51
0.52
0.6
0.54
0.55
0.54
0.54
0.53
0.55
0.54
0.5
0.51
0.57
0.57
0.53
0.54
0.54
0.55
0.55
0.55
0.54
0.55
0.51
0.51
0.58
0.59
0.55
0.56
0.55
0.54
0.54
0.55
0.55
0.54
0.54
0.77
0.76
0.72
0.56
0.55
0.54
0.55
0.55
0.55
0.56
0.54
0.56
0.57
0.56
0.57
0.56
0.57
0.56
0.56
0.56
0.57
0.57
0.56
0.56
0.55
0.56
0.55
0.54
0.56
0.55
0.55
0.55
0.55
0.56
0.55
0.54
0.55
0.56
0.56
0.56
0.55
0.56
0.56
0.55
0.55
0.56
0.57
0.57
0.56
0.57
0.57
0.58
0.57
0.57
0.57
0.58
0.56
0.56
0.55
0.56
0.56
0.57
0.56
0.55
0.55
0.55
0.54
0.54
0.54
0.54
0.55
0.55
0.56
0.57
0.58
0.58
0.58
0.61
0.61
0.62
0.6
0.62
0.62
0.6
0.59
0.59
0.6
0.58
0.58
0.58
0.58
0.57
0.57
0.58
0.57
0.57
0.58
0.59
0.59
0.55
0.55
0.57
0.58
0.56
0.54
0.56
0.56
0.54
0.55
0.55
0.56
0.55
0.54
0.53
0.53
0.61
0.62
0.53
0.53
0.54
0.55
0.55
0.53
0.54
0.55
0.54
0.55
0.56
0.57
0.56
0.57
0.57
0.56
0.55
0.56
0.56
0.55
0.55
0.56
0.56
0.55
0.55
0.54
0.53
0.54
0.53
0.55
0.55
0.55
0.54
0.54
0.54
0.55
0.55
0.54
0.54
0.55
0.55
0.56
0.56
0.55
0.57
0.56
0.55
0.56
0.56
0.57
0.56
0.55
0.57
0.57
0.57
0.56
0.56
0.57
0.55
0.55
0.56
0.56
0.55
0.55
0.56
0.58
0.58
0.58
0.57
0.59
0.6
0.61
0.6
0.6
0.61
0.63
0.65
0.63
0.61
0.62
0.63
0.65
0.66
0.63
0.64
0.66
0.66
0.65
0.64
0.66
0.64
0.62
0.62
0.63
0.65
0.66
0.63
0.63
0.61
0.6
0.6
0.61
0.6
0.58
0.57
0.57
0.58
0.6
0.61
0.56
0.63
0.64
0.59
0.61
0.6
0.58
0.6
0.61
0.63
0.62
0.61
0.63
0.65
0.68
0.66
0.65
0.66
0.7
0.75
0.71
0.68
0.68
0.72
0.79
0.76
0.7
0.71
0.72
0.76
0.78
0.73
0.72
0.71
0.81
0.74
0.71
0.67
0.68
0.68
0.67
0.71
0.81
0.74
0.75
0.78
0.87
0.82
0.79
0.81
0.79
0.85
0.74
0.75
0.74
0.85
0.86
0.77
0.75
0.75
0.85
0.83
0.79
0.77
0.77
0.88
0.83
0.78
0.75
0.75
0.81
0.87
0.79
0.77
0.76
0.78
0.88
0.82
0.79
0.75
0.77
0.84
0.84
0.77
0.74
0.72
0.77
0.72
0.7
0.72
0.8
0.75
0.73
0.74
0.78
0.87
0.8
0.77
0.75
0.75
0.89
0.82
0.77
0.75
0.75
0.85
0.88
0.82
0.77
0.76
0.78
0.88
0.85
0.79
0.78
0.82
0.93
0.92
0.81
0.78
0.78
0.9
0.84
0.82
0.77
0.77
0.83
0.85
0.83
0.78
0.77
0.8
0.92
0.92
0.78
0.78
0.78
0.87
0.82
0.78
0.78
0.79
0.9
0.89
0.8
0.78
0.79
0.86
0.91
0.9
0.8
0.79
0.81
0.93
0.96
0.85
0.81
0.81
0.89
0.9
0.83
0.8
0.78
0.82
0.91
0.82
0.78
0.79
0.79
0.79
0.85
0.76
0.76
0.76
0.84
0.89
0.81
0.79
0.78
0.79
0.93
0.94
0.8
0.78
0.79
0.9
0.86
0.82
0.79
0.8
0.91
0.87
0.83
0.79
0.79
0.82
0.93
0.83
0.81
0.8
0.83
0.95
0.88
0.82
0.81
0.82
0.95
0.89
0.82
0.82
0.84
0.94
0.87
0.82
0.83
0.85
0.93
0.79
0.82
0.85
0.91
0.8
0.81
0.83
0.95
0.96
0.85
0.83
0.84
0.93
0.94
0.96
0.82
0.82
0.82
0.92
0.83
0.84
0.92
0.95
0.91
0.85
0.85
0.86
0.88
0.88
0.83
0.81
0.83
0.92
0.93
0.87
0.84
0.85
0.94
0.89
0.86
0.84
0.87
0.95
0.91
0.87
0.83
0.85
0.92
0.94
0.85
0.82
0.83
0.92
0.94
0.9
0.81
0.77
0.75
0.81
0.84
0.81
0.8
0.85
0.92
0.94
0.94
0.82
0.81
0.85
0.92
0.94
0.86
0.83
0.84
0.91
0.91
0.84
0.82
0.82
0.84
0.94
0.95
0.94
0.84
0.82
0.86
0.94
0.95
0.92
0.85
0.81
0.81
0.87
0.95
0.96
0.85
0.83
0.83
0.92
0.93
0.85
0.83
0.86
0.93
0.96
0.94
0.84
0.84
0.85
0.94
0.94
0.82
0.81
0.81
0.8
0.8
0.8
0.81
0.79
0.8
0.74
0.7
0.71
0.74
1.1
0.7
0.85
0.44
1.49
2.92
2.93
2.92
2.93
1.11
0.69
0.94
2.48
0.59
1.74
0.83
1.52
1.67
1.27
3.78
3.51
2.41
1.08
1.04
2.91
0.52
3.01
0.71
0.72
0.67
2.19
0.52
1.57
1.62
2.72
0.46
0.37
0.63
1.09
2.83
3.99
9.18
6.48
5.28
2.57
1.28
0.59
1.75
0.93
1.17
1.59
0.89
0.86
1.98
3.6
0.66
0.45
1.78
3.98
4.67
1.79
0.86
1.07
1.04
0.9
1.53
2.05
2.65
2.7
0.9
0.93
0.95
2.81
1.82
0.77
0.94
0.75
2.77
3.97
0.66
0.93
2.8
1.18
0.66
0.94
2.87
1.01
3.74
4.71
1.9
1.79
3.79
2.14
0.7
1.01
0.89
2.01
1.9
0.64
1.34
0.84
5.01
1.81
1.82
0.83
0.88
1.11
2.49
0.94
3.13
3.13
4.5
0.99
5.44
0.82
2.02
4.97
0.88
2.61
1.03
0.55
0.94
1.79
0.89
3.06
0.86
0.66
0.93
0.84
1.41
5.08
0.9
2.68
2.06
1.6
0.94
0.93
1.11
3.42
2.65
1.92
1.02
1.61
0.86
4.83
0.66
3.64
4.93
1.8
0.93
3.75
4.81
0.96
3.81
0.93
2.34
1.27
0.99
5.37
2.23
2.24
1.76
1.79
1.03
1.13
0.52
1.67
2.54
0.82
1.84
0.94
1.94
2.84
0.83
0.89
0.96
3.56
1.01
1.6
0.93
1.0
0.92
0.9
0.8
0.98
0.88
0.94
0.89
0.99
0.77
0.88
0.91
0.98
0.9
2.64
1.03
1.04
1.63
0.93
2.1
1.64
1.03
0.85
1.9
1.3
0.65
2.81
2.92
0.81
0.92
1.01
0.86
0.95
0.49
2.49
2.49
0.83
0.93
0.93
0.52
0.42
0.91
0.93
0.94
0.96
0.97
2.48
1.3
3.8
0.9
1.01
1.76
0.9
1.93
0.84
3.86
6.56
1.05
1.88
1.12
0.98
3.7
1.12
1.68
0.43
0.51
0.94
0.87
1.31
1.73
0.99
0.98
5.07
4.86
2.25
0.85
1.87
1.87
3.76
2.28
2.02
1.77
3.29
3.04
3.4
0.94
3.98
1.8
4.63
5.36
5.37
2.99
2.13
6.41
1.39
0.79
2.98
0.88
1.11
0.87
1.08
1.19
0.64
3.09
3.12
1.95
3.64
3.64
1.75
1.76
0.9
2.65
4.27
0.93
1.04
1.66
1.05
3.82
1.56
3.83
3.84
0.89
1.53
3.06
4.55
4.54
1.81
2.68
1.63
1.73
2.11
1.65
0.82
2.12
1.66
0.86
0.92
3.83
0.33
0.76
0.98
1.78
0.53
2.4
0.32
0.95
2.52
5.48
1.21
0.9
1.66
3.62
2.04
0.34
0.77
2.0
2.97
0.67
0.75
3.49
1.16
2.46
1.87
1.05
4.33
0.49
0.93
3.78
0.94
0.94
2.96
0.68
1.58
0.98
0.95
0.69
1.1
1.84
3.18
0.74
2.72
1.71
2.1
2.41
1.27
1.68
1.03
1.08
0.63
4.18
2.63
0.74
1.85
1.12
1.65
2.02
1.58
3.75
2.85
0.71
1.09
3.28
0.34
0.38
2.83
0.43
0.71
0.32
2.91
2.91
2.91
2.92
0.78
0.77
0.78
1.64
0.83
0.83
0.84
0.88
0.93
0.97
0.94
0.91
0.91
0.95
0.96
0.98
0.96
0.97
0.98
0.99
0.97
0.97
0.97
0.93
1.81
0.89
0.92
0.85
0.83
0.82
0.79
0.88
0.94
0.97
1.0
1.04
1.02
1.03
1.03
1.07
0.99
0.99
1.04
1.07
1.07
1.08
1.08
1.07
1.06
1.05
1.0
0.93
0.91
0.98
1.03
1.01
0.98
1.04
1.06
1.03
1.01
1.01
1.61
1.61
0.9
0.9
1.03
1.01
1.01
0.95
0.91
0.91
0.95
0.98
1.01
0.95
0.95
1.0
1.06
1.05
0.92
1.07
1.08
1.12
1.12
1.5
1.51
1.58
0.99
1.04
1.09
0.99
0.91
0.96
1.03
1.06
1.0
0.9
0.91
0.97
1.0
0.97
0.89
0.95
0.97
0.99
1.0
0.88
0.86
0.88
0.96
0.96
0.88
0.86
0.9
0.96
0.98
0.88
0.86
0.88
0.95
0.96
0.97
0.85
0.88
0.89
0.97
0.94
0.9
0.84
0.86
0.91
0.96
0.98
0.85
0.84
0.88
0.96
0.98
0.92
0.84
0.86
0.95
0.93
0.96
0.85
0.87
0.91
0.96
0.96
0.94
0.83
0.85
0.89
0.95
0.94
0.85
0.85
0.9
0.96
0.96
0.88
0.89
0.92
0.97
0.9
0.86
0.91
0.96
0.95
0.87
0.87
0.9
0.89
0.92
0.84
0.82
0.84
0.91
0.94
0.87
0.83
0.85
0.91
0.94
0.85
0.85
0.86
0.93
0.94
0.86
0.84
0.88
0.95
0.94
0.87
0.84
0.85
0.91
0.94
0.89
0.83
0.87
0.93
0.96
0.86
0.89
0.9
0.96
0.94
0.85
0.9
0.95
0.96
0.94
0.85
0.89
0.92
0.97
0.95
0.87
0.91
0.95
0.98
0.99
0.89
0.93
0.95
0.97
1.01
0.94
0.88
0.94
0.97
0.99
0.91
0.87
0.9
0.96
0.92
0.85
0.88
0.92
0.96
0.98
0.92
0.88
0.88
0.92
0.96
0.98
0.9
0.87
0.87
0.89
0.91
0.94
0.94
0.84
0.85
0.86
0.94
0.94
0.94
0.85
0.86
0.9
0.96
0.96
0.89
0.85
0.9
0.91
0.97
0.9
0.87
0.9
0.95
0.96
0.96
0.86
0.88
0.9
0.97
0.94
0.85
0.86
0.9
0.98
0.97
0.88
0.89
0.93
0.95
0.94
0.87
0.87
0.92
0.97
0.86
0.87
0.9
0.95
0.94
0.86
0.91
0.92
0.96
0.93
0.85
0.88
0.92
0.97
0.94
0.85
0.87
0.89
0.95
0.94
0.86
0.86
0.9
0.95
0.96
0.88
0.89
0.92
0.95
0.95
0.84
0.8
0.8
0.79
0.8
0.76
0.76
0.75
0.76
0.77
0.74
0.73
0.77
0.82
0.86
0.91
0.85
0.82
0.86
0.9
0.91
0.92
0.92
0.87
0.88
0.91
0.95
0.89
0.89
0.93
0.95
0.97
0.97
0.92
0.91
0.93
0.96
0.98
0.98
0.93
0.95
0.96
0.97
0.97
0.99
0.98
0.97
0.97
0.96
0.95
0.94
0.95
0.86
0.86
0.89
0.94
0.98
0.96
0.89
0.88
0.92
0.95
0.99
0.97
0.91
0.96
0.97
0.98
0.98
0.93
0.88
0.91
0.94
0.99
0.98
0.92
0.95
0.99
1.01
1.0
0.93
0.88
0.94
0.96
0.98
0.97
0.88
0.96
0.97
1.0
0.97
0.88
0.97
0.97
0.98
0.97
0.87
0.88
0.9
0.99
1.0
0.9
0.88
0.9
0.95
0.96
0.93
0.86
0.92
0.95
0.98
0.99
0.91
0.92
0.93
0.96
0.96
0.93
0.85
0.93
0.98
1.0
1.03
0.92
0.9
0.91
0.94
0.91
0.84
0.85
0.9
0.98
0.98
0.91
0.95
0.97
1.01
0.92
0.95
0.96
0.97
0.88
0.86
0.91
0.97
0.99
0.95
0.86
0.93
0.96
0.98
0.91
0.87
0.92
0.95
0.96
0.88
0.87
0.93
0.98
0.98
0.89
0.86
0.9
0.95
0.96
0.85
0.88
0.94
0.96
0.96
0.85
0.86
0.9
0.95
0.95
0.83
0.87
0.91
0.96
0.95
0.85
0.87
0.93
0.95
0.89
0.86
0.91
0.93
0.95
0.85
0.85
0.89
0.93
0.94
0.85
0.84
0.86
0.92
0.93
0.85
0.85
0.89
0.96
0.96
0.88
0.87
0.91
0.95
0.88
0.86
0.88
0.94
0.96
0.89
0.86
0.92
0.95
0.97
0.91
0.87
0.89
0.96
0.98
0.91
0.87
0.93
0.95
0.98
0.89
0.87
0.93
0.96
0.97
0.89
0.86
0.92
0.95
0.96
0.87
0.84
0.87
0.92
0.94
0.85
0.84
0.9
0.94
0.94
0.84
0.85
0.88
0.93
0.95
0.91
0.84
0.89
0.93
0.96
0.98
0.88
0.92
0.96
0.99
1.03
0.96
0.94
0.99
1.05
1.03
0.94
0.97
0.98
1.01
0.91
0.87
0.94
0.95
0.96
0.87
0.88
0.94
0.96
0.97
0.89
0.94
0.97
0.99
1.01
0.92
0.86
0.89
0.94
0.97
0.9
0.88
0.94
0.96
1.0
0.99
0.9
0.95
0.96
1.01
1.0
0.9
0.89
0.96
0.98
0.96
0.87
0.9
0.95
0.97
0.94
0.88
0.97
1.0
1.04
1.0
0.92
0.97
0.97
0.98
0.9
0.9
0.96
0.99
0.99
0.88
0.87
0.96
0.98
1.03
0.95
0.91
0.99
1.03
1.05
0.94
0.9
0.95
0.99
1.0
0.92
0.95
0.98
1.01
1.04
0.94
0.88
0.95
0.99
1.05
1.0
0.93
0.94
0.99
1.01
0.97
0.9
0.97
1.0
1.05
1.02
0.89
0.92
0.95
0.97
1.02
0.9
0.88
0.92
0.98
1.02
0.91
0.9
0.91
0.94
0.93
0.85
0.84
0.91
0.94
0.98
0.92
0.87
0.95
0.96
0.98
0.92
0.86
0.9
0.95
0.93
0.87
0.85
0.91
0.95
0.99
0.95
0.91
0.99
1.02
1.04
1.01
0.91
0.95
0.98
1.01
1.0
0.89
0.87
0.89
0.99
0.97
0.87
0.87
0.93
0.95
0.98
0.88
0.88
0.96
1.0
0.98
0.9
0.95
0.97
1.02
0.98
0.92
0.99
1.01
1.05
1.05
0.92
0.88
0.96
0.99
1.04
0.96
0.9
0.99
1.06
1.09
1.01
0.97
1.01
1.07
1.08
1.08
0.98
0.9
0.95
1.0
1.03
0.96
0.87
0.91
0.99
1.01
0.95
0.92
1.01
1.1
1.11
1.07
0.97
0.99
1.02
1.04
1.04
1.0
0.91
0.96
0.98
0.99
0.89
0.85
0.85
0.87
0.96
0.89
0.89
0.96
0.97
1.04
1.03
0.92
0.96
0.98
0.99
0.95
0.86
0.87
0.91
0.93
0.92
0.84
0.83
0.86
0.91
0.9
0.83
0.79
0.77
0.79
0.79
0.82
0.82
0.72
0.72
0.76
0.75
0.72
0.73
0.74
0.74
0.76
0.77
0.75
0.76
0.79
0.81
0.82
0.83
0.84
0.82
0.82
0.84
0.85
0.89
0.89
0.87
0.86
0.89
0.91
0.93
0.88
0.9
0.91
0.94
0.93
0.89
0.85
0.83
0.81
0.8
0.84
0.86
0.91
0.9
0.88
0.9
0.93
0.96
0.9
0.91
0.95
0.97
0.98
0.94
0.93
0.93
0.91
0.92
0.91
0.87
0.87
0.89
0.94
0.91
0.88
0.86
0.88
0.87
0.87
0.89
0.94
0.97
0.98
0.92
0.9
0.9
0.9
0.93
0.91
0.85
0.85
0.87
0.93
0.94
0.95
0.88
0.9
0.97
1.01
0.99
0.92
0.94
0.97
1.0
0.96
0.88
0.95
0.98
1.01
0.98
0.93
0.99
1.0
1.03
0.97
0.93
1.01
1.04
1.07
0.98
0.91
0.94
0.97
0.97
0.88
0.88
0.95
0.98
1.04
0.97
0.91
0.98
1.0
1.04
1.0
0.96
1.0
1.0
1.0
0.93
0.88
0.89
0.84
0.83
0.84
0.88
0.89
0.86
0.92
0.95
0.98
0.92
0.87
0.91
0.96
0.95
0.91
0.89
0.95
0.97
0.99
0.93
0.89
0.91
0.96
0.94
0.87
0.87
0.9
0.95
0.95
0.89
0.88
0.89
0.95
0.94
0.89
0.87
0.9
0.95
0.97
0.97
0.9
0.96
0.98
1.01
1.04
1.02
0.91
0.91
0.96
0.96
0.89
0.89
0.94
0.97
1.04
1.04
0.95
0.9
0.97
0.96
1.0
0.91
0.92
0.93
0.94
0.9
0.87
0.87
0.93
0.97
0.92
0.9
0.98
1.0
1.02
0.94
0.95
0.99
1.0
0.95
0.9
0.94
0.98
0.97
0.97
0.9
0.93
0.96
0.96
0.92
0.89
0.93
0.97
0.97
0.95
0.91
0.95
0.97
1.0
0.94
0.9
0.97
0.99
1.0
0.92
0.92
0.99
1.01
1.03
0.98
0.91
0.95
0.99
1.01
1.0
0.93
0.93
0.99
0.99
0.94
0.9
0.9
0.97
0.97
0.91
0.95
0.99
1.0
0.94
0.88
0.94
0.97
0.97
0.89
0.92
0.96
0.97
0.9
0.89
0.95
0.95
0.95
0.89
0.92
0.96
0.95
0.89
0.87
0.89
0.94
0.94
0.88
0.88
0.92
0.95
0.92
0.87
0.85
0.88
0.92
0.88
0.85
0.85
0.87
0.9
0.89
0.85
0.84
0.87
0.89
0.88
0.84
0.84
0.88
0.91
0.87
0.85
0.83
0.82
0.81
0.78
0.77
0.77
0.84
0.9
0.87
0.86
0.94
0.98
0.94
0.89
0.91
0.93
0.95
0.85
0.85
0.89
0.97
0.97
0.96
0.88
0.93
0.93
0.95
0.85
0.93
0.94
0.99
0.99
0.95
0.96
0.97
1.01
0.98
0.91
0.89
0.96
0.98
0.98
0.92
0.94
0.94
0.95
0.94
0.87
0.93
0.96
0.98
0.98
0.9
0.89
0.95
0.97
1.01
0.94
0.89
0.97
0.98
1.0
0.97
0.89
0.9
0.95
0.95
0.91
0.89
0.95
0.95
0.98
0.94
0.91
0.97
1.03
1.07
1.01
0.95
0.95
0.97
0.96
0.95
0.86
0.88
0.9
0.95
0.89
0.87
0.91
0.97
0.96
0.91
0.9
0.95
0.95
0.9
0.88
0.94
0.95
0.95
0.91
0.88
0.93
0.96
0.98
0.91
0.88
0.92
0.96
0.95
0.88
0.91
0.97
0.95
0.96
0.89
0.93
0.99
1.01
0.99
0.92
0.94
0.97
1.0
1.0
0.94
0.93
0.99
1.02
1.02
0.93
0.92
0.98
0.99
0.92
0.88
0.88
0.88
0.97
0.98
0.87
0.95
0.97
1.06
1.07
0.98
1.0
1.01
1.03
0.94
0.88
0.97
0.98
0.97
0.88
0.88
0.96
0.95
0.91
0.87
0.88
0.94
0.92
0.85
0.85
0.88
0.95
0.94
0.86
0.86
0.94
0.95
0.95
0.87
0.91
0.92
0.95
0.91
0.85
0.85
0.9
0.95
0.95
0.89
0.87
0.94
0.94
0.81
0.82
0.88
0.88
0.82
0.84
0.84
0.87
0.84
0.84
0.84
0.83
0.82
0.78
0.76
0.74
0.73
0.7
0.7
0.68
0.67
0.66
0.68
0.68
0.67
0.68
0.67
0.67
0.68
0.68
0.71
0.71
0.71
0.7
0.76
0.82
0.82
0.87
0.91
0.94
0.94
0.95
0.94
0.89
0.9
0.9
0.88
0.85
0.91
0.96
0.97
0.88
0.84
0.84
0.9
0.94
1.02
0.95
0.96
0.96
0.94
0.93
0.88
0.84
0.83
0.93
0.96
1.05
1.07
0.92
0.9
0.93
0.97
1.0
0.91
0.88
0.94
0.95
0.99
0.9
0.92
0.96
1.01
1.0
0.92
0.96
0.99
1.02
1.01
0.9
0.94
0.99
1.07
1.07
0.94
0.87
0.94
0.98
0.99
0.89
0.87
0.93
0.96
1.02
0.92
0.89
0.96
0.98
0.97
0.89
0.89
0.95
0.97
1.03
0.96
0.94
0.95
0.96
0.99
0.97
0.9
0.96
1.01
1.05
1.0
0.92
0.97
1.0
1.05
0.97
0.91
0.97
1.02
1.04
0.98
0.96
1.0
1.05
1.06
1.02
0.92
0.93
0.99
0.96
0.93
0.86
0.89
0.94
0.98
0.93
0.87
0.94
0.98
1.0
0.92
0.93
0.96
1.02
0.99
0.91
0.96
0.98
1.06
1.02
0.97
1.0
1.06
1.08
1.1
0.97
1.01
0.96
1.03
1.06
1.04
0.98
1.03
1.12
1.12
0.96
0.91
0.96
1.02
0.97
0.95
0.98
1.03
0.93
0.9
0.97
0.99
0.99
0.89
0.97
0.97
1.01
0.94
0.87
0.87
0.94
0.95
0.87
0.88
0.91
0.96
1.0
0.95
0.88
0.94
0.96
1.0
0.95
0.91
0.96
0.98
1.01
0.92
0.89
0.95
0.96
1.01
0.98
0.88
0.9
0.94
0.96
0.98
0.87
0.89
0.93
0.98
1.02
0.92
0.95
1.01
1.08
1.11
1.01
0.99
1.04
1.12
1.15
1.01
0.96
0.97
1.01
1.04
1.01
0.95
0.97
1.05
1.17
1.1
1.02
1.11
1.12
1.13
1.07
1.03
1.04
1.08
1.09
1.07
0.97
0.92
0.99
1.02
1.02
0.92
0.91
0.95
0.99
0.96
0.9
0.94
0.97
1.01
0.97
0.91
0.95
0.96
0.95
0.89
0.86
0.88
0.91
0.93
0.94
0.86
0.86
0.93
0.98
1.01
0.95
0.99
1.05
1.09
1.07
0.96
0.92
0.98
1.0
1.0
0.9
0.9
0.95
0.98
1.01
0.93
0.97
1.03
1.1
1.07
0.97
0.95
1.0
1.08
1.12
1.08
0.98
0.93
1.0
1.06
1.07
0.99
1.0
1.06
1.12
1.12
1.04
0.95
1.02
1.03
1.05
0.94
0.89
0.98
1.05
1.14
1.09
1.06
1.06
1.05
0.99
1.03
1.1
1.16
1.07
1.0
0.97
1.01
1.08
1.02
0.9
0.93
0.98
0.97
0.87
0.89
0.96
1.0
0.97
0.91
0.96
1.01
1.08
1.01
1.02
1.1
1.2
1.13
1.09
0.99
0.94
0.94
0.99
1.04
0.99
0.92
1.0
1.04
1.08
1.05
0.95
0.99
1.01
1.06
0.97
0.91
0.98
1.01
1.06
1.08
0.98
0.95
0.99
1.0
0.94
0.88
0.88
0.97
0.94
0.88
0.85
0.89
0.98
1.05
1.06
0.97
1.02
1.06
1.13
1.12
1.02
1.08
1.13
1.16
1.15
1.1
0.97
1.03
1.11
1.2
1.19
1.04
0.98
1.06
1.11
1.07
1.0
1.06
1.09
1.1
1.0
1.06
1.04
1.07
0.99
0.98
1.06
1.14
1.14
1.11
0.99
0.99
0.99
1.04
1.07
1.03
0.94
0.99
1.01
1.07
1.07
1.02
1.06
1.06
0.98
0.93
1.01
1.06
1.07
0.93
0.85
0.89
0.88
0.91
0.95
0.97
0.98
0.97
1.01
1.07
1.09
1.08
0.98
0.97
0.98
0.98
0.98
0.98
1.0
0.93
1.0
1.07
1.14
1.15
1.06
0.98
1.03
1.04
1.08
0.97
0.93
0.94
1.0
0.96
0.87
0.89
0.97
1.03
1.11
1.0
1.01
1.05
1.1
1.05
1.0
1.05
1.12
1.12
1.07
0.96
0.96
1.0
1.02
1.01
0.92
0.95
1.02
1.06
0.96
0.92
0.97
0.92
0.88
0.89
0.93
1.0
0.9
0.89
0.92
1.01
1.01
0.95
1.05
1.16
1.21
1.15
1.03
1.05
1.09
1.13
1.13
1.04
1.02
1.13
1.17
1.15
1.05
0.98
1.06
1.12
1.14
1.03
1.01
1.11
1.13
1.07
0.97
1.02
0.99
1.0
0.91
0.95
1.02
1.11
0.99
0.97
1.04
1.07
1.02
0.94
1.06
1.11
1.14
1.03
0.99
1.09
1.15
1.13
1.01
0.97
1.07
1.15
1.15
1.03
1.0
1.09
1.17
1.13
1.02
1.0
1.09
1.16
1.11
0.97
0.92
1.04
1.08
1.07
0.95
0.99
1.02
1.05
1.01
0.92
1.03
1.05
1.02
0.94
1.04
1.06
1.12
0.98
0.92
1.01
1.01
1.04
0.95
0.97
1.01
1.07
1.05
0.98
0.97
1.0
1.01
1.03
0.91
0.9
1.01
1.07
1.13
1.01
0.92
1.0
1.04
1.06
0.98
1.03
1.04
1.13
1.07
0.94
0.91
1.01
1.12
1.14
1.01
0.96
1.06
1.14
1.12
0.99
1.04
1.08
1.07
0.95
0.94
1.05
1.09
1.07
0.96
0.92
1.02
1.09
1.07
0.97
0.93
1.02
1.05
1.06
0.95
0.94
1.02
1.04
0.96
0.89
0.99
1.0
1.01
0.91
0.89
0.98
1.02
1.07
0.97
0.94
1.02
1.05
1.07
0.97
0.93
0.93
1.0
0.99
0.88
0.89
0.97
0.98
0.96
0.89
0.96
0.97
1.03
1.01
0.9
0.91
1.03
1.09
1.12
0.98
0.93
1.02
1.01
1.04
0.99
0.92
1.02
1.05
1.08
1.0
0.92
1.05
1.05
1.04
0.95
0.92
0.97
1.0
0.92
0.86
0.86
0.87
0.92
0.82
0.81
0.83
0.86
0.9
1.07
1.2
1.14
1.02
1.16
1.2
1.2
1.18
1.14
1.04
1.04
1.01
1.03
1.05
1.03
0.99
0.93
0.92
1.03
1.1
1.14
1.14
1.01
1.0
1.01
1.06
1.09
0.96
0.89
0.97
1.01
1.07
0.97
1.0
1.08
1.17
1.15
1.01
1.05
1.05
1.09
1.09
1.04
0.96
1.02
1.08
1.15
1.12
1.02
1.0
1.13
1.19
1.15
1.02
1.01
1.01
1.05
1.05
0.96
0.98
1.01
1.06
1.02
0.93
1.01
1.02
0.98
0.89
0.92
0.99
1.03
1.01
0.95
1.02
1.05
1.06
0.97
0.93
0.99
1.03
1.05
0.99
0.91
1.03
1.05
1.1
0.99
0.89
0.89
0.97
0.97
0.89
0.86
0.92
0.98
1.0
0.92
0.96
1.0
1.06
1.09
0.99
1.0
1.01
1.06
1.09
0.98
0.97
1.07
1.12
1.13
1.09
1.0
1.02
1.02
1.05
1.07
0.97
0.92
1.02
1.09
1.14
1.07
1.03
1.09
1.12
1.12
1.04
0.97
0.98
1.09
1.09
1.06
0.92
0.89
0.91
1.0
0.9
0.88
0.98
0.98
1.05
1.02
0.96
1.05
1.09
1.1
1.0
0.91
1.04
1.06
1.09
1.03
1.01
1.02
1.04
0.94
0.89
0.99
0.99
1.01
0.9
0.89
0.92
1.0
1.01
0.92
0.95
0.99
1.05
1.05
0.98
1.01
1.01
1.08
1.1
1.01
0.97
1.03
1.05
1.03
0.97
0.93
0.94
1.17
1.18
0.99
0.99
1.02
1.05
0.99
0.92
1.03
1.04
1.02
0.93
0.88
0.97
0.99
0.96
0.96
0.97
0.99
1.0
0.92
0.9
0.98
0.97
0.99
0.97
0.98
1.0
1.18
1.19
1.06
1.01
1.01
1.01
0.89
0.83
0.79
0.78
0.78
0.81
0.78
0.78
0.8
0.87
0.85
0.86
1.02
1.07
1.13
1.11
1.01
1.02
1.12
1.14
1.14
1.15
1.14
1.09
0.99
0.99
0.97
0.99
1.0
0.94
0.92
0.97
1.02
1.04
1.0
0.93
0.9
0.9
1.06
1.06
0.91
0.89
0.91
0.96
0.96
0.96
0.9
0.89
0.89
0.92
0.88
0.86
0.87
0.95
1.01
1.08
1.02
1.04
1.12
1.18
1.13
1.07
1.09
1.09
1.03
0.95
0.99
1.02
1.04
1.01
0.94
0.95
1.43
1.43
0.89
0.9
0.95
1.06
1.11
1.06
1.05
1.1
1.06
0.97
0.96
0.97
0.93
0.91
0.84
0.86
0.87
0.84
0.8
0.81
0.82
0.8
0.74
0.78
0.74
0.74
0.72
0.73
0.72
0.74
0.76
0.77
0.79
0.8
0.83
0.87
0.9
0.91
0.9
0.89
0.89
0.85
0.87
0.88
0.87
0.88
0.86
0.89
0.82
0.81
0.82
0.89
0.9
0.94
0.91
0.87
0.88
0.95
0.93
0.93
0.94
0.86
0.87
0.9
0.92
0.95
0.98
0.91
0.89
0.9
0.94
0.9
0.88
0.85
0.85
0.88
0.93
0.89
0.89
0.83
0.84
0.88
0.93
0.87
0.86
0.93
1.02
1.04
0.97
0.95
1.06
1.09
1.12
1.09
1.02
1.02
1.03
1.07
1.13
1.14
1.06
1.03
1.09
1.13
1.1
0.99
0.97
0.97
1.03
1.03
0.92
0.93
1.01
1.01
1.04
1.0
1.04
1.17
1.1
1.08
1.07
1.03
0.95
0.95
0.94
0.93
0.9
0.86
0.87
0.89
0.91
0.9
0.87
0.9
0.91
0.88
0.89
0.85
0.84
0.87
0.89
0.88
0.85
0.86
0.86
0.84
0.83
0.81
0.8
0.81
0.84
0.84
0.84
0.83
0.83
0.83
0.83
0.83
0.82
0.8
0.77
0.79
0.78
0.77
0.75
0.73
0.73
0.72
0.72
0.7
0.7
0.72
0.73
0.77
0.82
0.79
0.79
0.82
0.82
0.85
0.89
0.88
0.88
0.9
0.89
0.88
0.89
0.9
0.84
0.83
0.84
0.85
0.79
0.83
0.83
0.88
0.88
0.88
0.9
0.91
0.91
0.92
0.88
0.86
0.86
0.82
0.82
0.82
0.86
0.86
0.8
0.8
0.8
0.81
0.81
0.78
0.8
0.8
0.82
0.81
0.8
0.8
0.8
0.81
0.81
0.79
0.78
0.8
0.83
0.87
0.84
0.85
0.85
0.86
0.88
0.89
0.89
0.85
0.83
0.89
0.91
0.93
0.96
0.96
0.9
0.89
0.9
0.94
0.92
0.86
0.86
0.87
0.94
0.94
0.95
0.94
0.87
0.88
0.89
0.93
0.93
0.88
0.85
0.85
0.89
0.94
0.95
0.95
0.88
0.92
0.92
0.97
0.96
0.97
0.91
0.87
0.87
0.95
0.97
1.01
0.97
0.89
0.9
0.91
0.97
0.94
0.91
0.9
0.87
0.95
0.99
1.02
0.95
0.95
0.92
0.94
0.97
1.04
0.99
0.98
1.07
1.1
1.09
1.03
1.11
1.16
1.13
1.02
0.96
0.97
1.13
1.13
0.97
1.1
1.09
1.01
0.95
0.93
1.0
1.0
0.93
0.86
0.87
0.86
0.81
0.8
0.76
0.79
0.78
0.81
0.87
0.85
0.92
1.02
1.07
1.09
1.13
1.13
1.17
1.17
1.16
1.18
1.12
1.11
1.11
1.08
0.99
0.99
0.99
1.02
1.06
1.02
0.94
0.91
0.95
0.99
1.0
0.94
0.94
0.95
0.94
0.92
0.88
0.9
0.93
0.96
0.91
0.91
0.86
0.88
0.91
0.9
0.86
0.85
0.86
0.89
0.88
0.87
0.92
1.0
1.07
1.05
0.97
0.96
0.96
1.16
1.16
1.0
1.0
1.06
1.07
1.07
1.01
1.03
1.17
1.18
1.07
1.12
1.12
0.99
0.91
0.92
0.91
0.89
0.87
0.91
0.94
0.97
0.89
0.89
0.9
0.91
0.94
0.92
0.89
0.87
0.93
0.97
1.02
0.98
0.96
0.94
1.02
1.04
1.01
0.95
0.96
1.0
1.03
0.97
0.95
1.04
1.06
0.98
0.97
1.01
1.02
0.95
0.91
0.95
0.96
0.9
0.89
0.92
0.91
0.91
0.87
0.86
0.89
0.9
0.87
0.91
0.93
0.98
1.02
0.93
0.91
0.91
0.92
0.87
0.84
0.84
0.85
0.87
0.84
0.84
0.84
0.87
0.87
0.85
0.81
0.79
0.83
0.78
0.73
0.76
0.76
0.74
0.72
0.71
0.71
0.7
0.71
0.71
0.75
0.81
0.84
0.8
0.81
0.84
0.86
0.86
0.86
0.87
0.87
0.82
0.81
0.83
0.85
0.82
0.83
0.81
0.81
0.78
0.79
0.79
0.79
0.8
0.84
0.79
0.79
0.79
0.82
0.86
0.88
0.85
0.83
0.82
0.89
0.92
0.87
0.88
0.85
0.84
0.88
0.96
0.98
1.03
1.05
0.96
0.99
0.99
0.98
0.98
0.92
1.05
1.08
1.06
1.0
1.0
1.08
1.09
1.0
0.98
0.98
1.02
0.92
0.88
0.94
0.94
0.9
0.88
0.9
0.92
0.93
0.86
0.87
0.88
0.89
0.87
0.83
0.83
0.85
0.88
0.88
0.86
0.88
0.94
0.94
0.89
0.89
0.9
0.87
0.84
0.82
0.81
0.83
0.83
0.82
0.79
0.79
0.76
0.78
0.74
0.72
0.72
0.72
0.7
0.69
0.69
0.7
0.71
0.75
0.73
0.74
0.76
0.79
0.84
0.85
0.88
0.9
0.9
0.9
0.9
0.9
0.92
0.94
0.94
0.91
0.9
0.96
0.99
0.94
0.9
0.86
0.87
0.85
0.91
0.9
0.9
0.83
0.81
0.84
0.89
0.9
0.91
0.85
0.91
0.91
0.97
0.97
0.99
0.88
0.87
0.89
0.98
0.98
1.01
0.89
0.91
0.92
0.96
0.95
0.85
0.87
0.9
0.97
0.98
0.97
0.91
0.92
0.96
0.98
1.0
0.94
0.9
0.91
0.98
0.99
1.0
0.93
0.88
0.99
0.99
1.02
1.0
0.92
1.0
1.0
0.99
1.01
0.91
0.91
0.95
1.02
1.02
0.94
0.94
1.06
1.07
1.06
1.06
0.95
0.95
0.95
1.03
1.0
0.99
0.91
0.89
0.98
1.04
1.07
1.09
1.04
1.0
1.02
1.03
1.05
1.01
1.04
1.11
1.07
1.03
0.99
0.94
0.87
0.88
1.0
1.0
0.87
0.89
0.98
0.86
0.88
0.92
0.95
0.9
0.92
0.96
0.98
0.9
0.89
0.89
0.91
0.89
0.84
0.85
0.85
0.83
0.8
0.79
0.79
0.78
0.82
0.77
0.78
0.8
0.83
0.85
0.86
0.86
0.93
0.97
0.99
0.98
0.94
0.98
1.02
1.03
1.05
1.04
1.02
0.99
1.05
1.06
1.07
1.04
1.02
1.03
1.07
1.09
1.02
0.96
0.91
0.91
1.09
1.09
0.92
0.9
0.97
1.01
1.02
0.98
1.1
1.1
1.03
1.0
1.01
0.99
0.96
0.91
0.89
0.91
0.91
0.91
0.87
0.91
0.92
0.92
0.88
0.88
0.85
0.83
0.79
0.76
0.73
0.73
0.8
0.72
0.74
0.72
0.71
0.7
0.73
0.71
0.74
0.74
0.74
0.75
0.75
0.85
0.8
0.82
0.83
0.79
0.8
0.83
0.86
0.89
0.89
0.94
0.89
0.93
0.98
0.98
0.96
0.96
0.93
0.89
0.89
0.87
0.88
0.88
0.86
0.9
0.93
0.95
0.92
0.93
1.01
1.05
1.05
0.98
0.98
1.01
1.02
0.97
0.92
0.95
0.96
1.0
0.95
0.97
1.0
1.01
0.97
1.01
0.98
0.93
0.94
0.95
0.9
0.86
0.87
0.83
0.79
0.77
0.78
0.76
0.75
0.74
0.74
0.75
0.78
0.81
0.81
0.83
0.88
0.92
0.94
0.94
0.92
0.95
0.98
1.0
1.02
0.99
0.97
1.01
1.04
1.08
1.04
1.0
1.04
1.05
1.07
1.07
1.03
1.0
0.99
1.11
1.11
1.05
1.03
1.07
1.04
0.97
1.02
1.02
0.97
0.93
0.97
1.0
0.96
0.94
0.97
1.01
0.99
0.92
0.88
0.88
1.0
1.0
0.88
0.89
0.93
0.9
0.89
0.88
0.88
0.88
0.86
0.86
0.9
0.9
0.89
0.86
0.87
0.88
0.85
0.84
0.83
0.82
0.84
0.85
0.87
0.87
0.87
0.94
0.89
0.86
0.85
0.85
0.77
0.78
0.75
0.71
0.7
0.71
0.69
0.66
0.67
0.65
0.66
0.67
0.69
0.7
0.69
0.71
0.74
0.77
0.79
0.75
0.74
0.75
0.81
0.82
0.79
0.75
0.75
0.74
0.76
0.8
0.79
0.77
0.75
0.76
0.77
0.8
0.8
0.77
0.77
0.77
0.78
0.8
0.8
0.76
0.78
0.78
0.79
0.81
0.79
0.78
0.78
0.8
0.84
0.84
0.81
0.81
0.8
0.81
0.82
0.8
0.77
0.78
0.79
0.83
0.86
0.81
0.81
0.82
0.84
0.86
0.83
0.81
0.82
0.83
0.91
0.9
0.93
0.84
0.84
0.88
0.94
0.93
0.9
0.86
0.86
0.87
0.92
0.92
0.93
0.85
0.86
0.87
0.91
0.93
0.95
0.89
0.87
0.88
0.92
0.95
0.97
0.91
0.92
0.91
0.91
0.95
0.94
0.89
0.87
0.87
0.91
0.96
0.97
0.89
0.89
0.93
0.97
0.98
0.97
0.93
0.94
0.91
0.92
0.91
0.88
0.86
0.86
0.9
0.94
0.97
0.91
0.89
0.95
0.97
0.99
0.99
0.93
0.9
0.97
0.96
0.98
0.98
0.91
0.91
0.95
0.97
0.98
0.95
0.95
0.95
0.97
0.97
0.97
0.97
0.9
0.89
0.95
0.96
0.97
0.92
0.9
0.9
0.85
0.85
0.87
0.92
0.9
0.88
0.9
0.93
0.99
1.02
0.99
0.92
0.96
0.98
0.99
1.01
0.95
0.92
0.92
0.9
0.92
0.91
0.86
0.86
0.9
0.96
0.97
0.97
0.89
0.92
0.92
0.98
0.97
0.96
0.89
0.89
0.95
0.96
0.99
0.99
0.9
0.86
0.87
0.9
0.91
0.86
0.84
0.85
0.93
0.95
0.94
0.94
0.87
0.88
0.91
0.89
0.86
0.85
0.9
0.94
0.97
0.98
0.9
0.88
0.92
0.93
0.98
0.92
0.88
0.86
0.9
0.96
0.97
1.0
0.93
0.92
0.93
0.98
0.94
0.92
0.87
0.85
0.9
0.96
0.99
0.94
0.88
0.95
0.96
0.98
0.99
0.9
0.89
0.92
0.97
0.98
0.97
0.89
0.9
0.91
0.95
0.93
0.93
0.87
0.85
0.89
0.92
0.94
0.95
0.89
0.92
0.93
0.95
0.96
0.88
0.87
0.89
0.96
0.99
0.96
0.92
0.94
0.94
0.97
0.94
0.87
0.87
0.92
0.97
0.99
0.99
0.89
0.93
0.93
0.99
1.01
0.94
0.98
0.99
0.99
0.9
0.94
1.0
1.05
1.06
0.95
0.93
0.93
1.01
1.0
0.95
0.91
0.98
1.01
1.05
1.06
0.95
0.94
1.01
1.03
1.01
0.99
0.92
0.87
0.9
0.99
1.03
1.06
0.94
0.92
0.98
0.97
1.0
0.92
0.91
0.93
0.97
0.94
0.9
0.89
0.9
0.95
0.93
0.94
0.85
0.86
0.9
0.96
0.99
1.02
0.92
0.94
0.99
1.03
1.04
0.99
0.92
0.98
1.02
1.06
1.05
0.95
0.94
0.95
1.01
1.01
1.02
0.94
0.9
1.01
1.02
1.04
0.95
0.87
0.88
0.86
0.87
0.86
0.86
0.85
0.8
0.79
0.78
0.74
0.74
0.8
0.8
0.73
0.72
0.72
0.71
0.7
0.71
0.68
0.68
0.68
0.65
0.66
0.65
0.65
0.65
0.65
0.66
0.65
0.65
0.66
0.69
0.73
0.75
0.77
0.8
0.8
0.8
0.85
0.86
0.85
0.87
0.9
0.84
0.85
0.87
0.89
0.92
0.92
0.87
0.88
0.88
0.91
0.92
0.88
0.91
0.91
0.92
0.92
0.95
0.9
0.87
0.89
0.92
0.95
0.96
0.95
0.9
0.91
0.92
0.93
0.94
0.87
0.87
0.88
0.92
0.93
0.9
0.89
0.93
0.96
0.99
1.0
0.93
0.95
0.98
1.0
1.01
0.92
0.93
0.92
0.93
0.94
0.88
0.87
0.91
0.92
0.95
0.91
0.93
0.94
0.94
0.89
0.89
0.9
0.94
0.97
0.97
0.94
0.96
0.99
1.01
0.99
0.93
0.93
0.91
0.94
0.91
0.86
0.86
0.92
0.95
0.97
0.96
0.91
0.94
0.96
1.0
0.95
0.92
0.96
0.98
1.04
1.06
1.07
0.94
0.96
0.99
1.02
0.99
0.91
0.89
0.95
0.97
1.0
0.95
0.91
0.95
0.97
1.01
1.03
0.97
0.93
0.96
0.98
1.0
1.03
0.95
0.92
0.97
1.0
1.05
1.03
0.94
0.9
0.94
0.97
0.99
0.99
0.91
0.94
0.96
0.99
1.03
0.98
0.91
0.92
0.93
0.94
0.96
0.9
0.9
0.97
0.98
1.05
1.06
0.97
0.97
1.01
1.05
1.07
0.98
0.98
0.98
1.05
1.09
1.09
1.02
0.94
0.96
0.97
0.96
0.88
0.88
0.88
0.96
0.97
0.91
0.89
0.96
0.96
0.97
0.95
0.9
0.95
0.96
0.97
0.97
0.93
0.91
0.96
0.97
1.01
1.04
1.0
0.96
0.98
0.99
1.0
1.01
0.94
0.87
0.89
0.96
0.99
1.08
1.08
0.98
0.91
0.98
0.98
0.99
0.91
0.88
0.92
1.0
1.03
1.05
0.97
0.94
0.97
1.02
1.06
1.1
1.01
0.96
0.99
1.04
1.08
1.1
1.03
0.95
1.01
1.04
1.09
1.06
1.0
0.98
1.02
1.08
1.1
1.02
0.94
0.98
1.01
1.02
1.03
0.99
0.97
1.01
1.02
1.02
0.99
0.94
0.98
1.03
1.07
1.15
1.15
1.0
0.94
1.0
1.03
1.08
1.06
0.99
0.96
1.0
1.04
1.08
1.03
0.95
0.93
0.98
1.01
1.04
1.0
0.99
1.02
1.05
1.11
1.2
1.21
1.07
0.96
0.9
0.94
0.98
0.98
0.92
0.95
1.0
1.07
1.05
1.04
1.09
1.14
1.14
1.13
1.09
1.03
1.01
1.04
1.1
1.13
1.11
1.01
1.0
1.03
1.09
1.12
1.08
0.96
0.92
0.98
1.04
1.11
1.05
1.03
1.05
1.09
1.12
1.07
1.02
1.06
1.08
1.08
1.05
0.99
0.99
0.98
0.94
0.9
0.87
0.87
0.86
0.9
0.94
0.9
0.98
1.05
1.14
1.15
1.06
1.07
1.12
1.14
1.15
1.16
1.07
1.02
1.07
1.12
1.17
1.18
1.05
1.0
1.01
1.06
1.15
1.18
1.09
1.08
1.1
1.1
1.03
0.97
0.98
1.02
1.05
1.06
1.02
1.04
1.07
1.08
1.08
1.03
1.02
1.05
1.05
1.09
1.05
1.05
1.07
1.1
1.07
1.05
1.03
1.07
1.07
1.01
0.93
0.92
0.94
0.99
0.98
0.98
1.05
1.16
1.21
1.19
1.1
1.07
1.1
1.11
1.07
1.03
1.06
1.12
1.13
1.06
1.03
1.07
1.1
1.06
1.02
0.98
1.02
1.08
1.09
1.06
1.06
1.09
1.09
1.09
1.04
1.04
1.1
1.12
1.11
1.04
1.02
1.07
1.1
1.1
1.05
1.03
1.05
1.08
1.06
0.98
0.95
0.98
1.04
1.03
1.02
0.96
1.02
1.06
1.12
1.14
1.05
1.04
1.1
1.16
1.17
1.12
1.05
1.02
1.05
1.06
1.06
1.02
0.99
0.95
0.99
1.0
1.0
0.99
0.97
1.0
0.96
0.92
0.91
0.92
1.0
1.06
1.15
1.13
1.11
1.17
1.19
1.2
1.18
1.1
1.08
1.15
1.18
1.17
1.14
1.12
1.16
1.12
1.08
1.01
0.92
0.79
0.79
1.04
1.04
0.96
1.01
0.96
1.01
1.09
1.25
1.26
1.23
1.23
1.21
1.16
1.14
1.14
1.14
1.15
1.13
1.12
1.1
1.02
1.05
1.05
1.07
1.07
1.05
1.02
1.09
1.17
1.19
1.11
1.04
1.04
1.08
1.08
1.04
1.01
1.01
1.01
0.95
0.94
0.94
0.97
0.95
0.91
0.9
0.96
1.01
1.09
1.11
1.08
1.12
1.14
1.14
1.12
1.08
1.05
1.05
1.09
1.13
1.12
1.1
1.04
1.01
1.01
1.04
0.99
0.93
0.92
0.93
0.92
0.9
0.88
0.91
0.97
0.98
1.02
1.1
1.19
1.16
1.07
1.06
1.09
1.14
1.16
1.1
1.09
1.15
1.16
1.17
1.09
1.05
1.12
1.15
1.15
1.06
1.02
1.02
1.08
1.14
1.12
1.05
1.11
1.14
1.14
1.08
1.02
1.0
1.02
1.07
1.06
1.02
1.0
1.03
1.05
1.0
0.99
1.01
1.01
0.98
0.92
0.91
0.88
0.84
0.83
0.85
0.89
0.9
0.86
0.9
0.99
1.02
1.06
1.01
1.0
1.06
1.15
1.2
1.17
1.09
1.1
1.15
1.19
1.2
1.16
1.08
1.08
1.09
1.12
1.08
1.01
1.0
1.03
1.06
1.08
1.04
1.04
1.07
1.1
1.06
1.03
1.04
1.11
1.15
1.09
1.1
1.14
1.15
1.08
1.04
1.08
1.14
1.15
1.05
1.02
1.05
1.08
1.07
1.01
1.03
1.04
1.06
0.98
0.99
1.02
1.04
1.06
1.04
1.07
1.14
1.21
1.12
1.03
1.02
1.05
1.08
1.06
1.04
1.11
1.15
1.12
1.06
1.04
1.11
1.12
1.13
1.01
0.94
0.96
1.0
1.01
1.02
1.02
1.1
1.11
1.1
1.01
1.02
1.05
1.08
1.08
1.04
1.06
1.06
1.07
1.03
0.99
0.97
1.0
1.0
0.98
0.91
0.89
0.89
0.87
0.85
0.84
0.94
0.9
0.95
1.03
1.11
1.1
1.11
1.22
1.29
1.26
1.24
1.21
1.2
1.13
1.11
1.15
1.16
1.17
1.17
1.11
1.05
1.07
1.07
1.08
1.0
1.01
1.08
1.13
1.12
1.06
1.07
1.13
1.15
1.12
1.05
1.03
1.07
1.1
1.02
0.99
1.06
1.08
1.06
1.0
1.05
1.07
1.07
1.0
0.99
1.07
1.09
1.04
0.99
1.02
1.07
1.1
1.03
0.99
1.05
1.08
1.07
1.02
0.94
0.93
0.91
0.89
0.86
0.84
0.84
0.86
0.83
0.82
0.83
0.84
0.85
0.85
0.92
0.99
1.01
1.02
0.98
1.02
1.07
1.14
1.17
1.17
1.1
1.05
1.09
1.15
1.17
1.14
1.06
1.05
1.07
1.08
1.03
1.06
1.08
1.13
1.1
1.06
1.02
1.05
1.06
1.06
1.03
1.03
1.09
1.13
1.12
1.07
1.1
1.14
1.11
1.03
0.98
0.98
1.02
0.99
0.96
0.97
1.05
1.09
1.12
1.06
1.01
0.99
0.96
0.9
0.88
0.89
0.94
1.0
0.99
1.05
1.19
1.28
1.22
1.14
1.12
1.18
1.16
1.16
1.09
1.04
1.1
1.15
1.15
1.08
1.05
1.07
1.11
1.15
1.07
1.03
1.06
1.08
1.06
0.99
0.93
0.93
0.89
0.88
0.89
0.95
0.99
0.98
0.97
1.01
1.08
1.11
1.06
1.12
1.2
1.22
1.19
1.09
1.08
1.14
1.15
1.15
1.11
1.07
1.08
1.15
1.18
1.15
1.05
1.03
1.08
1.14
1.14
1.07
1.11
1.13
1.16
1.06
1.06
1.08
1.12
1.06
1.03
1.09
1.09
1.09
0.99
1.0
1.03
1.06
1.02
0.94
0.94
0.92
0.89
0.85
0.86
0.94
0.89
0.95
1.0
1.0
1.03
1.03
1.16
1.21
1.22
1.15
1.19
1.22
1.22
1.2
1.16
1.1
1.06
1.12
1.18
1.19
1.18
1.15
1.07
1.0
1.07
1.12
1.14
1.06
1.07
1.15
1.18
1.1
1.07
1.13
1.17
1.12
1.05
1.11
1.09
1.04
0.99
0.99
1.08
1.02
0.98
1.05
1.11
1.14
1.07
1.04
1.08
1.08
1.05
0.99
1.05
1.05
1.05
0.96
0.98
0.98
0.89
0.84
0.85
0.84
0.83
0.82
0.86
0.95
1.0
0.93
0.92
1.04
1.12
1.19
1.18
1.04
1.03
1.11
1.15
1.21
1.19
1.12
1.11
1.04
1.06
1.18
1.24
1.23
1.16
1.08
1.08
1.08
1.1
1.12
1.06
1.0
1.04
1.08
1.12
1.05
1.04
1.08
1.15
1.13
1.05
1.09
1.09
1.09
1.03
0.97
1.05
1.1
1.13
1.04
1.03
1.16
1.22
1.15
1.05
1.0
1.09
1.09
1.08
0.97
0.98
1.08
1.16
1.14
1.05
1.03
1.1
1.1
1.03
1.02
1.08
1.12
1.08
1.01
1.01
1.04
1.07
1.02
1.01
1.06
1.1
1.04
1.0
1.08
1.1
1.08
0.98
1.05
1.11
1.12
1.07
1.07
1.13
1.17
1.05
1.01
1.09
1.12
1.06
0.93
0.93
0.98
0.87
0.84
0.85
0.89
0.88
0.84
0.91
1.01
1.14
1.07
1.02
1.09
1.19
1.22
1.09
1.12
1.2
1.26
1.23
1.12
1.04
1.1
1.14
1.14
1.13
1.06
0.99
1.03
1.08
1.15
1.16
1.1
1.07
1.09
1.14
1.09
1.03
1.05
1.05
1.11
1.08
0.99
0.98
1.05
1.05
1.0
1.0
1.04
1.1
1.08
1.02
1.06
1.14
1.13
1.03
0.98
1.03
1.01
0.91
0.88
0.9
0.93
0.86
0.86
0.9
0.97
1.03
1.04
1.11
1.21
1.26
1.21
1.08
1.07
1.08
1.07
1.06
1.02
0.99
1.07
1.12
1.17
1.1
1.04
1.1
1.15
1.17
1.09
1.02
1.06
1.07
1.07
0.99
0.96
1.05
1.07
1.08
1.02
1.01
1.08
1.16
1.13
1.03
1.06
1.1
1.11
1.02
0.98
1.02
1.03
1.04
0.95
0.92
0.97
0.89
0.86
0.88
0.88
0.87
0.89
0.97
1.02
1.03
1.13
1.31
1.27
1.27
1.2
1.18
1.26
1.25
1.22
1.2
1.18
1.16
1.09
1.09
1.09
1.11
1.09
1.02
1.0
1.09
1.15
1.13
1.04
1.02
1.1
1.12
1.08
1.01
1.03
1.07
1.11
1.06
1.01
1.05
1.09
1.1
1.02
1.02
1.11
1.15
1.03
1.02
1.03
1.05
0.97
0.95
1.04
1.07
1.06
1.01
1.06
1.08
1.08
1.03
1.04
1.12
1.14
1.04
0.98
0.99
1.03
0.94
1.0
1.02
1.05
1.0
0.94
1.01
1.04
1.01
1.02
1.09
1.12
1.04
0.99
0.99
1.08
1.04
0.96
1.0
1.05
1.08
1.04
1.0
1.05
1.08
1.07
0.99
1.04
1.07
1.08
0.97
0.96
1.01
1.03
1.0
0.96
0.98
0.98
1.01
0.98
0.98
1.03
1.08
1.05
1.01
1.06
1.08
1.09
1.02
0.95
1.0
1.04
1.04
0.92
0.92
0.97
0.94
0.91
0.92
0.97
1.03
1.04
1.06
1.16
1.22
1.18
1.09
1.15
1.18
1.15
1.06
1.07
1.14
1.18
1.18
1.11
1.02
1.04
1.1
1.18
1.12
1.04
1.07
1.13
1.12
1.04
1.01
1.08
1.15
1.09
0.99
1.01
1.04
1.07
1.02
0.99
1.05
1.07
1.03
0.96
1.0
1.02
1.07
1.01
1.0
1.01
1.04
0.95
1.0
1.0
1.03
0.99
0.98
1.04
1.11
1.07
1.02
1.03
1.08
1.1
1.03
1.04
1.11
1.16
1.06
1.0
1.05
1.08
1.05
1.0
1.06
1.13
1.12
1.01
1.06
1.1
1.08
1.0
1.03
1.05
1.06
0.99
0.96
1.05
1.05
1.05
0.97
0.92
1.01
1.04
1.06
1.01
0.97
1.01
1.03
1.04
0.96
0.9
0.95
0.98
1.02
1.0
0.93
0.95
0.92
0.93
0.91
0.86
0.9
1.02
1.11
1.16
1.06
1.07
1.1
1.14
1.08
1.01
1.03
1.09
1.13
1.11
1.04
1.02
1.08
1.14
1.14
1.07
0.99
1.03
1.07
1.1
1.06
1.01
1.03
1.09
1.11
1.01
1.05
1.06
1.05
0.97
0.93
1.01
1.05
1.07
1.01
1.0
1.04
1.09
1.12
1.03
0.99
1.04
1.05
1.01
0.91
0.93
1.02
1.02
1.02
0.99
1.05
1.11
1.15
1.06
1.06
1.06
1.08
1.0
0.9
0.9
0.92
0.97
0.88
0.84
0.87
0.9
0.92
0.94
0.85
0.92
1.0
1.1
1.2
1.09
1.09
1.16
1.17
1.16
1.07
1.03
1.07
1.11
1.12
1.11
1.02
0.97
1.03
1.03
1.06
1.06
1.02
0.99
1.03
1.11
1.14
1.12
1.05
1.06
1.09
1.1
1.06
1.0
1.05
1.05
1.06
0.99
0.99
1.05
1.09
1.07
1.03
1.07
1.07
1.09
1.02
0.99
1.06
1.13
1.07
1.01
1.05
1.08
1.06
1.01
1.03
1.08
1.1
1.03
1.02
1.08
1.12
1.07
1.04
1.11
1.12
1.13
1.01
1.02
1.06
1.07
1.03
0.98
1.02
1.04
1.07
1.06
1.01
1.05
1.11
1.14
1.04
1.0
1.06
1.07
1.04
0.98
0.99
1.02
1.03
0.98
0.98
1.03
1.04
1.01
0.92
0.96
0.97
0.96
0.9
0.87
0.9
0.93
0.86
0.85
0.89
0.94
0.99
0.97
0.97
1.03
1.12
1.18
1.12
1.01
1.05
1.08
1.11
1.08
1.04
1.08
1.13
1.16
1.14
1.05
1.02
1.07
1.11
1.12
1.08
1.06
1.0
1.03
1.07
1.07
1.06
1.09
1.15
1.16
1.04
1.05
1.04
1.06
1.04
0.97
1.01
1.06
1.14
1.12
1.07
1.08
1.11
1.13
1.11
1.02
0.98
1.07
1.11
1.1
0.98
0.98
1.03
1.06
1.02
1.0
1.05
1.11
1.04
0.99
1.04
1.08
1.07
1.02
1.06
1.09
1.1
1.02
1.06
1.05
1.09
1.0
1.0
1.01
1.03
0.96
0.94
1.03
1.06
1.01
1.02
1.07
1.12
1.08
1.01
1.05
1.06
1.03
0.94
0.95
1.01
1.0
1.0
0.95
1.0
1.02
1.03
1.02
0.96
1.02
1.02
1.06
1.03
0.95
0.92
0.93
1.04
1.04
0.92
1.01
1.04
1.05
1.02
1.05
1.08
1.12
1.06
1.0
0.93
0.94
1.09
1.09
0.94
1.04
1.07
1.06
1.02
1.06
1.08
1.09
1.0
0.91
0.98
0.97
1.02
0.97
0.96
0.99
1.04
1.05
1.03
1.07
1.09
1.09
1.02
0.99
1.02
1.03
1.01
0.96
1.01
1.01
1.05
1.0
0.98
1.0
1.05
1.05
0.98
0.97
0.99
1.02
0.99
0.97
0.98
1.03
1.05
0.99
0.98
1.0
1.03
0.97
0.96
0.99
1.04
0.99
0.95
1.0
1.0
1.0
0.91
0.97
0.97
1.01
0.97
0.92
1.0
1.0
1.0
0.93
0.99
1.0
1.05
1.05
0.99
1.02
1.02
1.03
1.01
0.9
0.88
0.94
0.98
1.03
0.98
0.89
0.96
0.97
1.04
1.05
0.99
1.0
1.05
1.1
1.04
1.01
1.06
1.07
1.05
0.95
0.95
1.03
1.05
1.08
1.05
0.98
0.97
1.04
1.04
1.06
0.98
0.96
1.02
1.03
1.06
0.99
0.95
1.03
1.06
1.08
0.99
1.0
1.02
1.03
0.98
0.93
1.0
1.02
1.01
0.98
0.96
0.99
1.03
1.03
0.99
1.01
1.02
1.05
1.02
1.0
1.07
1.16
1.07
1.02
1.04
1.05
0.99
0.9
0.93
1.02
1.02
1.02
1.0
1.07
1.12
1.1
0.97
0.97
0.96
1.0
0.88
0.9
0.96
1.01
1.06
1.02
0.95
1.01
1.02
1.03
0.96
0.95
1.0
1.0
0.94
0.97
1.0
1.05
1.0
0.99
1.03
1.05
1.02
0.96
1.03
1.03
1.05
0.98
0.99
1.03
1.05
1.02
0.95
0.94
0.99
1.02
1.02
0.98
0.98
1.02
1.05
1.01
1.02
1.08
1.11
1.1
1.02
1.04
1.08
1.09
1.0
0.97
1.03
1.01
1.0
0.93
0.91
0.99
0.98
0.97
0.91
1.02
1.02
1.06
1.01
0.98
1.02
1.06
1.01
0.98
1.01
1.04
1.05
0.99
0.98
1.03
0.99
0.95
0.99
1.0
0.9
0.91
0.98
0.98
0.98
0.96
0.99
1.04
1.05
1.0
1.01
1.05
1.05
1.0
0.96
1.02
1.04
1.06
1.03
0.99
1.02
1.05
1.06
1.01
0.99
1.04
1.06
1.0
0.95
1.02
1.02
0.99
0.94
1.01
1.04
1.08
1.02
0.98
1.02
1.04
1.03
0.97
0.98
0.99
1.0
1.01
0.94
0.97
1.0
1.02
1.01
0.96
0.99
1.0
1.01
0.94
0.97
0.99
1.01
0.96
0.91
1.01
1.02
1.02
0.97
1.02
1.05
1.05
1.01
1.01
1.05
1.08
1.03
0.97
1.02
1.05
1.08
1.0
0.99
1.04
1.05
1.01
0.97
1.02
1.05
1.05
0.98
0.98
0.98
0.99
0.93
0.93
1.03
1.04
1.06
1.0
1.01
1.05
1.07
1.05
0.95
1.01
1.05
1.06
0.99
0.92
0.98
1.0
0.99
0.95
0.95
0.99
1.04
1.02
0.91
0.95
0.97
1.0
1.02
0.99
1.02
1.04
1.08
1.02
1.02
1.08
1.12
1.11
1.02
1.02
1.06
1.1
1.08
1.0
1.01
1.02
1.06
1.01
0.96
0.99
1.01
1.03
1.01
0.98
1.02
1.04
1.03
0.98
0.97
1.01
1.06
1.05
1.0
1.0
1.01
1.04
0.98
0.95
0.99
1.0
0.99
0.95
1.01
1.01
1.03
0.92
0.93
1.02
1.03
1.04
1.01
0.99
0.99
1.01
0.91
0.91
1.0
1.03
1.03
0.99
0.98
1.03
1.04
1.03
0.98
0.99
1.01
1.04
0.98
0.95
0.95
0.95
0.94
0.89
0.97
0.99
1.04
0.99
0.92
1.02
1.03
1.04
1.0
0.93
1.01
1.02
1.05
1.03
0.93
0.96
0.97
0.88
0.93
0.97
0.98
0.99
0.97
0.98
1.04
1.05
1.02
0.96
1.02
1.02
1.05
0.97
0.97
1.0
1.01
1.01
0.97
0.95
1.0
1.04
1.0
0.97
0.97
0.98
0.97
0.89
0.97
0.99
1.02
0.99
0.99
1.01
1.05
1.08
1.03
1.0
1.0
1.02
1.02
0.97
0.95
1.02
1.05
1.06
0.98
0.98
1.01
1.03
0.98
0.95
1.0
1.02
1.02
0.98
0.95
1.01
1.03
1.0
0.93
0.97
1.0
1.02
0.98
0.97
1.0
1.02
1.01
0.95
0.95
0.99
1.03
1.03
0.96
1.0
1.09
1.09
1.02
1.02
1.04
1.03
0.98
0.94
1.01
1.04
1.02
0.98
1.01
1.02
1.02
0.98
0.97
1.0
1.05
1.05
1.0
1.01
1.02
0.99
0.9
0.94
0.98
1.02
1.02
1.0
1.05
1.08
1.03
1.01
1.03
1.04
0.98
0.92
0.93
1.02
0.98
0.95
0.92
0.98
0.99
0.91
0.9
0.96
0.96
0.94
0.9
0.99
1.01
1.04
1.01
1.0
1.01
1.05
1.03
0.97
1.0
1.0
1.0
0.98
0.89
0.98
0.98
1.01
0.97
0.95
1.04
1.07
1.09
1.0
0.99
1.02
1.02
0.94
0.98
0.99
1.0
0.99
0.96
0.98
1.0
1.03
0.98
0.96
1.0
1.0
0.9
0.96
0.95
0.99
0.95
0.95
0.97
0.98
0.97
0.94
0.98
1.03
1.04
1.0
1.01
1.05
1.05
0.99
0.92
1.01
0.99
0.97
0.89
0.97
0.98
0.99
0.98
0.92
1.0
1.01
1.05
1.03
0.98
1.02
1.06
1.08
1.01
1.02
1.02
1.03
0.92
0.91
0.99
1.01
0.97
0.96
0.99
1.01
1.03
0.98
0.97
1.0
1.02
0.97
0.91
0.91
0.94
0.95
0.9
0.96
0.98
1.03
0.99
0.96
1.01
1.03
0.99
0.95
0.95
0.98
1.01
0.99
0.98
1.02
1.07
1.12
1.0
0.98
1.01
1.02
0.96
1.01
1.02
1.01
0.9
0.96
0.98
1.01
0.98
0.97
1.01
1.02
1.03
0.96
1.01
1.01
1.03
0.98
0.93
1.0
1.01
0.99
0.93
0.93
1.0
1.01
1.0
0.97
0.97
1.01
1.03
0.96
0.96
0.98
1.0
1.02
0.99
0.99
1.03
1.02
0.96
0.95
0.98
0.99
0.9
0.95
0.95
0.98
0.93
0.91
0.92
0.97
0.99
0.95
0.93
0.97
1.0
1.01
0.97
0.97
1.01
1.03
0.99
0.96
0.97
1.03
1.03
0.99
1.0
1.04
1.07
0.98
0.99
0.99
0.99
0.91
0.95
0.98
1.0
1.02
0.99
0.98
0.98
1.01
0.99
0.95
0.95
1.0
1.04
1.02
0.98
1.0
1.03
0.99
0.97
0.95
1.0
1.01
0.96
0.94
0.97
0.99
0.99
0.95
0.96
1.0
1.03
1.01
0.97
1.0
1.04
0.99
0.94
0.99
1.01
1.07
1.02
0.91
0.98
0.97
1.0
0.9
0.92
0.95
0.99
0.99
0.88
0.91
0.97
0.99
0.99
0.96
1.02
1.08
1.09
1.01
0.94
1.0
1.04
1.07
1.03
0.94
0.92
0.98
1.01
0.98
0.95
0.98
0.98
1.01
0.97
0.95
0.96
0.99
1.03
1.05
1.0
1.0
1.0
0.99
0.96
0.88
0.95
0.96
0.98
0.94
0.9
1.0
1.04
1.05
0.99
0.98
0.97
0.98
0.95
0.94
1.03
1.07
1.01
0.92
0.93
0.93
0.88
0.84
0.84
0.91
0.95
1.0
0.95
0.94
0.92
0.97
0.95
0.94
0.94
0.98
0.99
0.96
0.96
1.01
1.07
1.11
1.04
1.0
1.04
1.08
1.08
1.04
0.98
0.98
1.03
1.02
1.03
0.98
0.97
1.02
1.04
1.07
1.01
0.97
1.02
1.03
1.07
1.04
1.0
1.05
1.06
1.04
0.97
0.95
1.01
1.05
1.06
1.0
0.92
1.0
0.99
1.01
0.96
0.88
0.96
0.97
0.94
0.83
0.86
0.87
0.85
0.93
0.91
0.86
0.88
0.9
0.95
1.04
1.19
1.12
1.14
1.17
1.18
1.17
1.03
0.96
1.02
1.03
1.06
1.06
0.99
0.94
1.01
