sample,time_sec
124,1.24
221,2.21
320,3.2
420,4.2
521,5.21
620,6.2
709,7.09
803,8.03
897,8.97
992,9.92
1083,10.83
1177,11.77
1274,12.74
1373,13.73
1466,14.66
1553,15.53
1645,16.45
1739,17.39
1837,18.37
1929,19.29
2019,20.19
2111,21.11
2204,22.04
2296,22.96
2382,23.82
2474,24.74
2566,25.66
2662,26.62
2754,27.54
2838,28.38
2929,29.29
3021,30.21
3113,31.13
3197,31.97
3283,32.83
3372,33.72
3464,34.64
3547,35.47
3636,36.36
3724,37.24
3818,38.18
3903,39.03
3989,39.89
4080,40.8
4167,41.67
4248,42.48
4334,43.34
4420,44.2
4509,45.09
4593,45.93
4678,46.78
4758,47.58
4840,48.4
4918,49.18
4995,49.95
5076,50.76
5157,51.57
5239,52.39
5326,53.26
5411,54.11
5497,54.97
5574,55.74
5653,56.53
5736,57.36
5824,58.24
5916,59.16
6002,60.02
6082,60.82
6163,61.63
6251,62.51
6343,63.43
6435,64.35
6521,65.21
6608,66.08
6692,66.92
6779,67.79
6870,68.7
6954,69.54
7035,70.35
7122,71.22
7214,72.14
7307,73.07
7398,73.98
7486,74.86
7574,75.74
7665,76.65
7756,77.56
7839,78.39
7924,79.24
8016,80.16
8110,81.1
8208,82.08
8298,82.98
8382,83.82
8475,84.75
8569,85.69
8665,86.65
8754,87.54
8844,88.44
8937,89.37
9033,90.33
9124,91.24
9211,92.11
9304,93.04
9396,93.96
9487,94.87
9571,95.71
9658,96.58
9750,97.5
9841,98.41
9933,99.33
10016,100.16
10103,101.03
10193,101.93
10286,102.86
10374,103.74
10455,104.55
10540,105.4
10622,106.22
10700,107.0
10782,107.82
10874,108.74
10966,109.66
11054,110.54
11141,111.41
11232,112.32
11326,113.26
11417,114.17
11501,115.01
11592,115.92
11684,116.84
11777,117.77
11863,118.63
11947,119.47
12034,120.34
12127,121.27
12219,122.19
12303,123.03
12390,123.9
12483,124.83
12578,125.78
12673,126.73
12760,127.6
12849,128.49
12941,129.41
13035,130.35
13131,131.31
13217,132.17
13303,133.03
13394,133.94
13488,134.88
13581,135.81
13667,136.67
13758,137.58
13853,138.53
13950,139.5
14042,140.42
14129,141.29
14222,142.22
14318,143.18
14418,144.18
14511,145.11
14595,145.95
14686,146.86
14777,147.77
14868,148.68
14959,149.59
15048,150.48
15140,151.4
15236,152.36
15333,153.33
15422,154.22
15511,155.11
15604,156.04
15698,156.98
15790,157.9
15874,158.74
15966,159.66
16058,160.58
16145,161.45
16225,162.25
16303,163.03
16379,163.79
16465,164.65
16558,165.58
16647,166.47
16731,167.31
16820,168.2
16910,169.1
17002,170.02
17091,170.91
17171,171.71
17254,172.54
17341,173.41
17434,174.34
17525,175.25
17609,176.09
17694,176.94
17781,177.81
17874,178.74
17964,179.64
18045,180.45
18132,181.32
18221,182.21
18311,183.11
18392,183.92
18474,184.74
18558,185.58
18648,186.48
18741,187.41
18826,188.26
18915,189.15
19006,190.06
19098,190.98
19191,191.91
19275,192.75
19361,193.61
19451,194.51
19544,195.44
19633,196.33
19714,197.14
19801,198.01
19889,198.89
19977,199.77
20057,200.57
20138,201.38
20229,202.29
20319,203.19
20403,204.03
20488,204.88
20579,205.79
20672,206.72
20766,207.66
20853,208.53
20939,209.39
21028,210.28
21124,211.24
21219,212.19
21305,213.05
21391,213.91
21478,214.78
21569,215.69
21661,216.61
21746,217.46
21828,218.28
21917,219.17
22008,220.08
22102,221.02
22193,221.93
22278,222.78
22369,223.69
22461,224.61
22556,225.56
22649,226.49
22733,227.33
22822,228.22
22914,229.14
23007,230.07
23102,231.02
23190,231.9
23279,232.79
23370,233.7
23463,234.63
23554,235.54
23637,236.37
23725,237.25
23816,238.16
23910,239.1
23999,239.99
24090,240.9
24183,241.83
24279,242.79
24373,243.73
24460,244.6
24554,245.54
24648,246.48
24740,247.4
24820,248.2
24903,249.03
24990,249.9
25084,250.84
25175,251.75
25259,252.59
25345,253.45
25435,254.35
25529,255.29
25625,256.25
25712,257.12
25798,257.98
25890,258.9
25986,259.86
26084,260.84
26174,261.74
26264,262.64
26358,263.58
26455,264.55
26544,265.44
26630,266.3
26725,267.25
26820,268.2
26919,269.19
27009,270.09
27097,270.97
27189,271.89
27285,272.85
27377,273.77
27460,274.6
27552,275.52
27647,276.47
27742,277.42
27826,278.26
27914,279.14
28004,280.04
28099,280.99
28192,281.92
28277,282.77
28371,283.71
28465,284.65
28561,285.61
28648,286.48
28735,287.35
28827,288.27
28921,289.21
29015,290.15
29100,291.0
29185,291.85
29275,292.75
29370,293.7
29465,294.65
29550,295.5
29641,296.41
29733,297.33
29829,298.29
29923,299.23
30007,300.07
30096,300.96
30189,301.89
30285,302.85
30371,303.71
30458,304.58
30550,305.5
30644,306.44
30739,307.39
30828,308.28
30920,309.2
31013,310.13
31110,311.1
31201,312.01
31286,312.86
31379,313.79
31474,314.74
31568,315.68
31653,316.53
31742,317.42
31835,318.35
31931,319.31
32026,320.26
32111,321.11
32204,322.04
32293,322.93
32380,323.8
32464,324.64
32545,325.45
32623,326.23
32701,327.01
32792,327.92
32884,328.84
32975,329.75
33062,330.62
33153,331.53
33245,332.45
33337,333.37
33425,334.25
33507,335.07
33590,335.9
33681,336.81
33775,337.75
33868,338.68
33952,339.52
34036,340.36
34125,341.25
34220,342.2
34315,343.15
34403,344.03
34486,344.86
34574,345.74
34667,346.67
34762,347.62
34854,348.54
34938,349.38
35031,350.31
35125,351.25
35221,352.21
35311,353.11
35399,353.99
35494,354.94
35593,355.93
35691,356.91
35784,357.84
35876,358.76
35970,359.7
36066,360.66
36161,361.61
36248,362.48
36341,363.41
36434,364.34
36532,365.32
36627,366.27
36713,367.13
36800,368.0
36891,368.91
36985,369.85
37079,370.79
37166,371.66
37251,372.51
37343,373.43
37437,374.37
37534,375.34
37623,376.23
37706,377.06
37795,377.95
37888,378.88
37980,379.8
38066,380.66
38153,381.53
38246,382.46
38340,383.4
38435,384.35
38526,385.26
38616,386.16
38709,387.09
38806,388.06
38898,388.98
38986,389.86
39075,390.75
39165,391.65
39259,392.59
39345,393.45
39428,394.28
39519,395.19
39613,396.13
39711,397.11
39804,398.04
39895,398.95
39990,399.9
40089,400.89
40188,401.88
40279,402.79
40372,403.72
40466,404.66
40563,405.63
40659,406.59
40748,407.48
40842,408.42
40937,409.37
41036,410.36
41132,411.32
41219,412.19
41311,413.11
41404,414.04
41497,414.97
41583,415.83
41673,416.73
41766,417.66
41861,418.61
41957,419.57
42043,420.43
42129,421.29
42222,422.22
42317,423.17
42410,424.1
42495,424.95
42583,425.83
42676,426.76
42770,427.7
42860,428.6
42945,429.45
43040,430.4
43136,431.36
43235,432.35
43327,433.27
43412,434.12
43505,435.05
43597,435.97
43691,436.91
43776,437.76
43864,438.64
43957,439.57
44052,440.52
44148,441.48
44234,442.34
44320,443.2
44414,444.14
44508,445.08
44606,446.06
44696,446.96
44783,447.83
44876,448.76
44971,449.71
45065,450.65
45150,451.5
45242,452.42
45336,453.36
45432,454.32
45526,455.26
45610,456.1
45702,457.02
45794,457.94
45887,458.87
45976,459.76
46063,460.63
46155,461.55
46248,462.48
46342,463.42
46430,464.3
46517,465.17
46604,466.04
46699,466.99
46785,467.85
46865,468.65
46942,469.42
47019,470.19
47109,471.09
47198,471.98
47291,472.91
47385,473.85
47467,474.67
47555,475.55
47643,476.43
47728,477.28
47809,478.09
47889,478.89
47976,479.76
48072,480.72
48170,481.7
48261,482.61
48348,483.48
48444,484.44
48543,485.43
48645,486.45
48738,487.38
48828,488.28
48922,489.22
49019,490.19
49115,491.15
49201,492.01
49291,492.91
49384,493.84
49481,494.81
49578,495.78
49668,496.68
49755,497.55
49851,498.51
49948,499.48
50047,500.47
50139,501.39
50228,502.28
50321,503.21
50415,504.15
50512,505.12
50602,506.02
50693,506.93
50787,507.87
50888,508.88
50989,509.89
51081,510.81
51168,511.68
51263,512.63
51361,513.61
51459,514.59
51548,515.48
51643,516.43
51741,517.41
51842,518.42
51937,519.37
52031,520.31
52128,521.28
52230,522.3
52332,523.32
52425,524.25
52520,525.2
52618,526.18
52719,527.19
52817,528.17
52904,529.04
52999,529.99
53094,530.94
53193,531.93
53288,532.88
53373,533.73
53461,534.61
53555,535.55
53655,536.55
53748,537.48
53836,538.36
53930,539.3
54026,540.26
54120,541.2
54206,542.06
54299,542.99
54392,543.92
54485,544.85
54572,545.72
54658,546.58
54749,547.49
54841,548.41
54923,549.23
55009,550.09
55096,550.96
55183,551.83
55263,552.63
55347,553.47
55431,554.31
55520,555.2
55601,556.01
55680,556.8
55761,557.61
55855,558.55
55944,559.44
56033,560.33
56123,561.23
56211,562.11
56295,562.95
56379,563.79
56463,564.63
56542,565.42
56620,566.2
56700,567.0
56787,567.87
56875,568.75
56962,569.62
57042,570.42
57125,571.25
57209,572.09
57295,572.95
57381,573.81
57469,574.69
57549,575.49
57629,576.29
57713,577.13
57803,578.03
57894,578.94
57984,579.84
58063,580.63
58145,581.45
58226,582.26
58305,583.05
58381,583.81
58461,584.61
58544,585.44
58627,586.27
58705,587.05
58780,587.8
58856,588.56
58931,589.31
59004,590.04
59078,590.78
59143,591.43
59209,592.09
59281,592.81
59353,593.53
59429,594.29
59505,595.05
59578,595.78
59650,596.5
59727,597.27
59808,598.08
59890,598.9
59971,599.71
60050,600.5
60132,601.32
60218,602.18
60307,603.07
60397,603.97
60482,604.82
60566,605.66
60651,606.51
60736,607.36
60824,608.24
60907,609.07
60988,609.88
61068,610.68
61153,611.53
61241,612.41
61331,613.31
61411,614.11
61491,614.91
61572,615.72
61655,616.55
61744,617.44
61833,618.33
61919,619.19
62008,620.08
62098,620.98
62188,621.88
62279,622.79
62362,623.62
62442,624.42
62527,625.27
62618,626.18
62709,627.09
62793,627.93
62874,628.74
62963,629.63
63050,630.5
63141,631.41
63224,632.24
63305,633.05
63391,633.91
63481,634.81
63571,635.71
63651,636.51
63732,637.32
63816,638.16
63905,639.05
63993,639.93
64072,640.72
64154,641.54
64241,642.41
64332,643.32
64422,644.22
64502,645.02
64585,645.85
64671,646.71
64757,647.57
64843,648.43
64923,649.23
65007,650.07
65095,650.95
65187,651.87
65280,652.8
65363,653.63
65451,654.51
65540,655.4
65633,656.33
65723,657.23
65802,658.02
65884,658.84
65968,659.68
66058,660.58
66137,661.37
66219,662.19
66304,663.04
66392,663.92
66476,664.76
66556,665.56
66639,666.39
66728,667.28
66818,668.18
66899,668.99
66980,669.8
67067,670.67
67159,671.59
67253,672.53
67337,673.37
67422,674.22
67509,675.09
67594,675.94
67682,676.82
67761,677.61
67839,678.39
67923,679.23
68013,680.13
68107,681.07
68196,681.96
68283,682.83
68373,683.73
68453,684.53
68542,685.42
68634,686.34
68716,687.16
68809,688.09
68900,689.0
68995,689.95
69086,690.86
69178,691.78
69270,692.7
69365,693.65
69450,694.5
69538,695.38
69629,696.29
69721,697.21
69804,698.04
69885,698.85
69968,699.68
70052,700.52
70139,701.39
70233,702.33
70315,703.15
70398,703.98
70489,704.89
70580,705.8
70673,706.73
70758,707.58
70842,708.42
70936,709.36
71028,710.28
71110,711.1
71192,711.92
71277,712.77
71368,713.68
71449,714.49
71529,715.29
71612,716.12
71694,716.94
71771,717.71
71846,718.46
71921,719.21
72002,720.02
72085,720.85
72171,721.71
72250,722.5
72335,723.35
72422,724.22
72505,725.05
72586,725.86
72663,726.63
72746,727.46
72838,728.38
72924,729.24
73003,730.03
73086,730.86
73168,731.68
73253,732.53
73332,733.32
73418,734.18
73508,735.08
73588,735.88
73671,736.71
73756,737.56
73849,738.49
73933,739.33
74017,740.17
74105,741.05
74189,741.89
74269,742.69
74354,743.54
74442,744.42
74533,745.33
74612,746.12
74697,746.97
74785,747.85
74877,748.77
74958,749.58
75041,750.41
75123,751.23
75207,752.07
75284,752.84
75363,753.63
75447,754.47
75541,755.41
75623,756.23
75705,757.05
75791,757.91
75886,758.86
75969,759.69
76052,760.52
76141,761.41
76233,762.33
76322,763.22
76402,764.02
76489,764.89
76579,765.79
76670,766.7
76755,767.55
76835,768.35
76921,769.21
77013,770.13
77106,771.06
77195,771.95
77275,772.75
77365,773.65
77449,774.49
77530,775.3
77607,776.07
77690,776.9
77780,777.8
77868,778.68
77950,779.5
78039,780.39
78130,781.3
78228,782.28
78326,783.26
78415,784.15
78506,785.06
78599,785.99
78696,786.96
78787,787.87
78870,788.7
78962,789.62
79057,790.57
79152,791.52
79234,792.34
79317,793.17
79405,794.05
79498,794.98
79583,795.83
79665,796.65
79755,797.55
79849,798.49
79934,799.34
80020,800.2
80115,801.15
80212,802.12
80303,803.03
80387,803.87
80480,804.8
80572,805.72
80657,806.57
80738,807.38
80823,808.23
80915,809.15
81006,810.06
81086,810.86
81171,811.71
81259,812.59
81351,813.51
81434,814.34
81514,815.14
81593,815.93
81675,816.75
81764,817.64
81848,818.48
81929,819.29
82015,820.15
82106,821.06
82199,821.99
82294,822.94
82381,823.81
82472,824.72
82564,825.64
82660,826.6
82757,827.57
82841,828.41
82928,829.28
83017,830.17
83112,831.12
83203,832.03
83286,832.86
83372,833.72
83462,834.62
83554,835.54
83646,836.46
83728,837.28
83815,838.15
83902,839.02
84016,840.16
84131,841.31
84213,842.13
84321,843.21
84408,844.08
84500,845.0
84587,845.87
84678,846.78
84773,847.73
84875,848.75
84974,849.74
85066,850.66
85161,851.61
85260,852.6
85360,853.6
85449,854.49
85535,855.35
85630,856.3
85725,857.25
85824,858.24
85912,859.12
85997,859.97
86091,860.91
86185,861.85
86281,862.81
86366,863.66
86450,864.5
86541,865.41
86635,866.35
86733,867.33
86825,868.25
86918,869.18
87014,870.14
87117,871.17
87217,872.17
87305,873.05
87398,873.98
87493,874.93
87591,875.91
87679,876.79
87765,877.65
87860,878.6
87959,879.59
88056,880.56
88142,881.42
88234,882.34
88327,883.27
88422,884.22
88507,885.07
88593,885.93
88682,886.82
88777,887.77
88862,888.62
88947,889.47
89040,890.4
89135,891.35
89232,892.32
89319,893.19
89403,894.03
89494,894.94
89588,895.88
89682,896.82
89764,897.64
89844,898.44
89925,899.25
90013,900.13
90101,901.01
90182,901.82
90261,902.61
90340,903.4
90427,904.27
90522,905.22
90618,906.18
90710,907.1
90808,908.08
90914,909.14
91025,910.25
91121,911.21
91218,912.18
91317,913.17
91416,914.16
91501,915.01
91584,915.84
91668,916.68
91763,917.63
91854,918.54
91935,919.35
92017,920.17
92102,921.02
92197,921.97
92290,922.9
92374,923.74
92460,924.6
92546,925.46
92638,926.38
92725,927.25
92808,928.08
92896,928.96
92990,929.9
93088,930.88
93183,931.83
93270,932.7
93363,933.63
93455,934.55
93547,935.47
93630,936.3
93714,937.14
93806,938.06
93899,938.99
93999,939.99
94092,940.92
94176,941.76
94264,942.64
94356,943.56
94449,944.49
94536,945.36
94620,946.2
94710,947.1
94804,948.04
94901,949.01
94996,949.96
95086,950.86
95177,951.77
95274,952.74
95373,953.73
95475,954.75
95565,955.65
95651,956.51
95739,957.39
95831,958.31
95916,959.16
95997,959.97
96074,960.74
96153,961.53
96244,962.44
96336,963.36
96434,964.34
96525,965.25
96613,966.13
96706,967.06
96802,968.02
96895,968.95
96980,969.8
97068,970.68
97162,971.62
97258,972.58
97352,973.52
97437,974.37
97523,975.23
97611,976.11
97697,976.97
97776,977.76
97857,978.57
97948,979.48
98039,980.39
98128,981.28
98210,982.1
98295,982.95
98387,983.87
98479,984.79
98573,985.73
98656,986.56
98738,987.38
98822,988.22
98914,989.14
99005,990.05
99093,990.93
99177,991.77
99268,992.68
99359,993.59
99453,994.53
99543,995.43
99624,996.24
99711,997.11
99800,998.0
99894,998.94
99984,999.84
100065,1000.65
100156,1001.56
100248,1002.48
100342,1003.42
100429,1004.29
100512,1005.12
100602,1006.02
100694,1006.94
100786,1007.86
100869,1008.69
100953,1009.53
101039,1010.39
101134,1011.34
101229,1012.29
101319,1013.19
101409,1014.09
101502,1015.02
101599,1015.99
101692,1016.92
101776,1017.76
101869,1018.69
101963,1019.63
102061,1020.61
102153,1021.53
102241,1022.41
102337,1023.37
102434,1024.34
102529,1025.29
102613,1026.13
102699,1026.99
102786,1027.86
102882,1028.82
102973,1029.73
103057,1030.57
103150,1031.5
103243,1032.43
103340,1033.4
103435,1034.35
103521,1035.21
103614,1036.14
103708,1037.08
103803,1038.03
103889,1038.89
103972,1039.72
104059,1040.59
104153,1041.53
104247,1042.47
104332,1043.32
104418,1044.18
104510,1045.1
104602,1046.02
104698,1046.98
104788,1047.88
104871,1048.71
104959,1049.59
105052,1050.52
105148,1051.48
105235,1052.35
105320,1053.2
105410,1054.1
105503,1055.03
105595,1055.95
105677,1056.77
105760,1057.6
105847,1058.47
105943,1059.43
106037,1060.37
106121,1061.21
106205,1062.05
106290,1062.9
106385,1063.85
106476,1064.76
106558,1065.58
106641,1066.41
106730,1067.3
106824,1068.24
106917,1069.17
107001,1070.01
107088,1070.88
107180,1071.8
107273,1072.73
107358,1073.58
107446,1074.46
107539,1075.39
107633,1076.33
107726,1077.26
107811,1078.11
107901,1079.01
107992,1079.92
108081,1080.81
108163,1081.63
108245,1082.45
108329,1083.29
108423,1084.23
108515,1085.15
108599,1085.99
108683,1086.83
108772,1087.72
108866,1088.66
108951,1089.51
109034,1090.34
109122,1091.22
109216,1092.16
109305,1093.05
109389,1093.89
109476,1094.76
109568,1095.68
109663,1096.63
109749,1097.49
109836,1098.36
109928,1099.28
110020,1100.2
110103,1101.03
110187,1101.87
110276,1102.76
110370,1103.7
110455,1104.55
110538,1105.38
110626,1106.26
110716,1107.16
110806,1108.06
110887,1108.87
110973,1109.73
111061,1110.61
111154,1111.54
111239,1112.39
111323,1113.23
111411,1114.11
111504,1115.04
111595,1115.95
111678,1116.78
111766,1117.66
111856,1118.56
111950,1119.5
112034,1120.34
112119,1121.19
112206,1122.06
112298,1122.98
112389,1123.89
112472,1124.72
112556,1125.56
112644,1126.44
112733,1127.33
112814,1128.14
112894,1128.94
112977,1129.77
113066,1130.66
113162,1131.62
113252,1132.52
113342,1133.42
113435,1134.35
113517,1135.17
113603,1136.03
113684,1136.84
113769,1137.69
113851,1138.51
113930,1139.3
114007,1140.07
114083,1140.83
114159,1141.59
114236,1142.36
114313,1143.13
114392,1143.92
114473,1144.73
114549,1145.49
114623,1146.23
114694,1146.94
114767,1147.67
114843,1148.43
114928,1149.28
115005,1150.05
115086,1150.86
115170,1151.7
115255,1152.55
115335,1153.35
115411,1154.11
115486,1154.86
115579,1155.79
115671,1156.71
115762,1157.62
115852,1158.52
115943,1159.43
116034,1160.34
116126,1161.26
116216,1162.16
116309,1163.09
116403,1164.03
116498,1164.98
116589,1165.89
116680,1166.8
116769,1167.69
116861,1168.61
116945,1169.45
117029,1170.29
117116,1171.16
117208,1172.08
117295,1172.95
117376,1173.76
117463,1174.63
117550,1175.5
117634,1176.34
117714,1177.14
117768,1177.68
117822,1178.22
117876,1178.76
117927,1179.27
118034,1180.34
118141,1181.41
118240,1182.4
118330,1183.3
118424,1184.24
118519,1185.19
118609,1186.09
118700,1187.0
118790,1187.9
118877,1188.77
118963,1189.63
119046,1190.46
119135,1191.35
119224,1192.24
119308,1193.08
119402,1194.02
119499,1194.99
119593,1195.93
119678,1196.78
119758,1197.58
119839,1198.39
119921,1199.21
120000,1200.0
120090,1200.9
120171,1201.71
120255,1202.55
120345,1203.45
120434,1204.34
120523,1205.23
120612,1206.12
120694,1206.94
120773,1207.73
120852,1208.52
120932,1209.32
121008,1210.08
121084,1210.84
121160,1211.6
121239,1212.39
121317,1213.17
121396,1213.96
121476,1214.76
121562,1215.62
121642,1216.42
121720,1217.2
121799,1217.99
121878,1218.78
121959,1219.59
122038,1220.38
122119,1221.19
122201,1222.01
122278,1222.78
122356,1223.56
122436,1224.36
122521,1225.21
122599,1225.99
122675,1226.75
122750,1227.5
122828,1228.28
122908,1229.08
122989,1229.89
123072,1230.72
123154,1231.54
123236,1232.36
123313,1233.13
123393,1233.93
123479,1234.79
123566,1235.66
123655,1236.55
123742,1237.42
123829,1238.29
123905,1239.05
123983,1239.83
124068,1240.68
124155,1241.55
124235,1242.35
124313,1243.13
124396,1243.96
124488,1244.88
124583,1245.83
124682,1246.82
124775,1247.75
124861,1248.61
124947,1249.47
125030,1250.3
125115,1251.15
125196,1251.96
125273,1252.73
125351,1253.51
125437,1254.37
125518,1255.18
125599,1255.99
125681,1256.81
125772,1257.72
125865,1258.65
125962,1259.62
126059,1260.59
126154,1261.54
126247,1262.47
126339,1263.39
126425,1264.25
126505,1265.05
126584,1265.84
126665,1266.65
126756,1267.56
126847,1268.47
126939,1269.39
127030,1270.3
127112,1271.12
127191,1271.91
127268,1272.68
127349,1273.49
127439,1274.39
127529,1275.29
127621,1276.21
127708,1277.08
127788,1277.88
127874,1278.74
127963,1279.63
128053,1280.53
128144,1281.44
128227,1282.27
128307,1283.07
128388,1283.88
128474,1284.74
128566,1285.66
128656,1286.56
128748,1287.48
128831,1288.31
128913,1289.13
128998,1289.98
129091,1290.91
129183,1291.83
129270,1292.7
129361,1293.61
129443,1294.43
129526,1295.26
129613,1296.13
129696,1296.96
129778,1297.78
129858,1298.58
129936,1299.36
130011,1300.11
130085,1300.85
130158,1301.58
130230,1302.3
130302,1303.02
130374,1303.74
130444,1304.44
130513,1305.13
130583,1305.83
130658,1306.58
130733,1307.33
130808,1308.08
130880,1308.8
130953,1309.53
131029,1310.29
131112,1311.12
131187,1311.87
131263,1312.63
131344,1313.44
131436,1314.36
131524,1315.24
131606,1316.06
131692,1316.92
131779,1317.79
131869,1318.69
131954,1319.54
132040,1320.4
132131,1321.31
132224,1322.24
132316,1323.16
132401,1324.01
132489,1324.89
132580,1325.8
132672,1326.72
132765,1327.65
132851,1328.51
132936,1329.36
133024,1330.24
133114,1331.14
133202,1332.02
133287,1332.87
133370,1333.7
133453,1334.53
133538,1335.38
133625,1336.25
133714,1337.14
133801,1338.01
133884,1338.84
133964,1339.64
134051,1340.51
134142,1341.42
134237,1342.37
134330,1343.3
134414,1344.14
134495,1344.95
134582,1345.82
134673,1346.73
134765,1347.65
134851,1348.51
134933,1349.33
135017,1350.17
135107,1351.07
135199,1351.99
135293,1352.93
135388,1353.88
135473,1354.73
135559,1355.59
135652,1356.52
135745,1357.45
135839,1358.39
135935,1359.35
136023,1360.23
136106,1361.06
136191,1361.91
136284,1362.84
136376,1363.76
136468,1364.68
136548,1365.48
136629,1366.29
136710,1367.1
136802,1368.02
136895,1368.95
136993,1369.93
137083,1370.83
137168,1371.68
137260,1372.6
137352,1373.52
137443,1374.43
137524,1375.24
137606,1376.06
137693,1376.93
137787,1377.87
137880,1378.8
137963,1379.63
138047,1380.47
138136,1381.36
138227,1382.27
138315,1383.15
138397,1383.97
138484,1384.84
138575,1385.75
138668,1386.68
138753,1387.53
138838,1388.38
138922,1389.22
139013,1390.13
139104,1391.04
139195,1391.95
139280,1392.8
139365,1393.65
139456,1394.56
139546,1395.46
139637,1396.37
139721,1397.21
139800,1398.0
139880,1398.8
139965,1399.65
140058,1400.58
140153,1401.53
140242,1402.42
140327,1403.27
140418,1404.18
140510,1405.1
140606,1406.06
140699,1406.99
140784,1407.84
140875,1408.75
140967,1409.67
141061,1410.61
141152,1411.52
141233,1412.33
141319,1413.19
141408,1414.08
141501,1415.01
141589,1415.89
141670,1416.7
141752,1417.52
141842,1418.42
141935,1419.35
142028,1420.28
142108,1421.08
142187,1421.87
142268,1422.68
142342,1423.42
142415,1424.15
142490,1424.9
142568,1425.68
142643,1426.43
142721,1427.21
142801,1428.01
142881,1428.81
142962,1429.62
143042,1430.42
143117,1431.17
143190,1431.9
143257,1432.57
143327,1433.27
143398,1433.98
143496,1434.96
143595,1435.95
143671,1436.71
143747,1437.47
143820,1438.2
143891,1438.91
143962,1439.62
144029,1440.29
144097,1440.97
144165,1441.65
144239,1442.39
144313,1443.13
144385,1443.85
144456,1444.56
144528,1445.28
144605,1446.05
144687,1446.87
144767,1447.67
144844,1448.44
144922,1449.22
145010,1450.1
145104,1451.04
145197,1451.97
145283,1452.83
145372,1453.72
145466,1454.66
145562,1455.62
145651,1456.51
145739,1457.39
145829,1458.29
145921,1459.21
146012,1460.12
146098,1460.98
146183,1461.83
146274,1462.74
146367,1463.67
146456,1464.56
146543,1465.43
146631,1466.31
146723,1467.23
146818,1468.18
146906,1469.06
146993,1469.93
147082,1470.82
147175,1471.75
147268,1472.68
147355,1473.55
147441,1474.41
147531,1475.31
147622,1476.22
147714,1477.14
147800,1478.0
147886,1478.86
147976,1479.76
148067,1480.67
148157,1481.57
148243,1482.43
148332,1483.32
148422,1484.22
148513,1485.13
148607,1486.07
148697,1486.97
148785,1487.85
148876,1488.76
148970,1489.7
149060,1490.6
149146,1491.46
149236,1492.36
149328,1493.28
149421,1494.21
149507,1495.07
149596,1495.96
149686,1496.86
149776,1497.76
149863,1498.63
149948,1499.48
150033,1500.33
150123,1501.23
150216,1502.16
150309,1503.09
150399,1503.99
150488,1504.88
150582,1505.82
150678,1506.78
150772,1507.72
150861,1508.61
150950,1509.5
151042,1510.42
151138,1511.38
151234,1512.34
151324,1513.24
151413,1514.13
151505,1515.05
151599,1515.99
151697,1516.97
151787,1517.87
151876,1518.76
151966,1519.66
152061,1520.61
152157,1521.57
152249,1522.49
152340,1523.4
152432,1524.32
152522,1525.22
152614,1526.14
152695,1526.95
152776,1527.76
152857,1528.57
152947,1529.47
153038,1530.38
153119,1531.19
153201,1532.01
153283,1532.83
153374,1533.74
153465,1534.65
153558,1535.58
153647,1536.47
153733,1537.33
153826,1538.26
153918,1539.18
154013,1540.13
154098,1540.98
154181,1541.81
154263,1542.63
154353,1543.53
154445,1544.45
154530,1545.3
154616,1546.16
154700,1547.0
154794,1547.94
154886,1548.86
154978,1549.78
155061,1550.61
155143,1551.43
155225,1552.25
155315,1553.15
155408,1554.08
155493,1554.93
155580,1555.8
155664,1556.64
155753,1557.53
155847,1558.47
155945,1559.45
156033,1560.33
156116,1561.16
156200,1562.0
156284,1562.84
156369,1563.69
156463,1564.63
156544,1565.44
156628,1566.28
156710,1567.1
156797,1567.97
156890,1568.9
156984,1569.84
157071,1570.71
157157,1571.57
157244,1572.44
157337,1573.37
157430,1574.3
157515,1575.15
157598,1575.98
157679,1576.79
157765,1577.65
157860,1578.6
157953,1579.53
158039,1580.39
158122,1581.22
158203,1582.03
158287,1582.87
158381,1583.81
158476,1584.76
158565,1585.65
158648,1586.48
158730,1587.3
158813,1588.13
158905,1589.05
158997,1589.97
159083,1590.83
159168,1591.68
159254,1592.54
159344,1593.44
159438,1594.38
159523,1595.23
159606,1596.06
159688,1596.88
159770,1597.7
159857,1598.57
159950,1599.5
160042,1600.42
160124,1601.24
160206,1602.06
160287,1602.87
160372,1603.72
160465,1604.65
160549,1605.49
160626,1606.26
160703,1607.03
160777,1607.77
160853,1608.53
160932,1609.32
161018,1610.18
161109,1611.09
161194,1611.94
161276,1612.76
161362,1613.62
161451,1614.51
161544,1615.44
161628,1616.28
161714,1617.14
161804,1618.04
161897,1618.97
161990,1619.9
162076,1620.76
162161,1621.61
162246,1622.46
162338,1623.38
162431,1624.31
162520,1625.2
162605,1626.05
162690,1626.9
162780,1627.8
162873,1628.73
162962,1629.62
163046,1630.46
163131,1631.31
163220,1632.2
163315,1633.15
163409,1634.09
163495,1634.95
163580,1635.8
163667,1636.67
163760,1637.6
163853,1638.53
163943,1639.43
164027,1640.27
164111,1641.11
164203,1642.03
164295,1642.95
164388,1643.88
164473,1644.73
164556,1645.56
164639,1646.39
164725,1647.25
164819,1648.19
164914,1649.14
165012,1650.12
165099,1650.99
165185,1651.85
165277,1652.77
165371,1653.71
165469,1654.69
165559,1655.59
165644,1656.44
165735,1657.35
165831,1658.31
165929,1659.29
166017,1660.17
166103,1661.03
166190,1661.9
166288,1662.88
166386,1663.86
166486,1664.86
166580,1665.8
166674,1666.74
166767,1667.67
166852,1668.52
166935,1669.35
167018,1670.18
167105,1671.05
167202,1672.02
167286,1672.86
167371,1673.71
167462,1674.62
167558,1675.58
167656,1676.56
167745,1677.45
167831,1678.31
167919,1679.19
168016,1680.16
168113,1681.13
168199,1681.99
168284,1682.84
168371,1683.71
168467,1684.67
168558,1685.58
168642,1686.42
168727,1687.27
168817,1688.17
168913,1689.13
169005,1690.05
169088,1690.88
169172,1691.72
169257,1692.57
169354,1693.54
169449,1694.49
169533,1695.33
169617,1696.17
169703,1697.03
169798,1697.98
169893,1698.93
169979,1699.79
170062,1700.62
170148,1701.48
170240,1702.4
170333,1703.33
170419,1704.19
170503,1705.03
170587,1705.87
170674,1706.74
170770,1707.7
170856,1708.56
170940,1709.4
171021,1710.21
171105,1711.05
171198,1711.98
171288,1712.88
171372,1713.72
171455,1714.55
171539,1715.39
171632,1716.32
171723,1717.23
171808,1718.08
171892,1718.92
171982,1719.82
172076,1720.76
172170,1721.7
172253,1722.53
172337,1723.37
172422,1724.22
172516,1725.16
172608,1726.08
172691,1726.91
172775,1727.75
172858,1728.58
172946,1729.46
173039,1730.39
173122,1731.22
173206,1732.06
173288,1732.88
173374,1733.74
173469,1734.69
173563,1735.63
173646,1736.46
173731,1737.31
173813,1738.13
173900,1739.0
173995,1739.95
174088,1740.88
174171,1741.71
174255,1742.55
174337,1743.37
174425,1744.25
174521,1745.21
174616,1746.16
174704,1747.04
174791,1747.91
174876,1748.76
174971,1749.71
175065,1750.65
175162,1751.62
175248,1752.48
175334,1753.34
175420,1754.2
175514,1755.14
175608,1756.08
175697,1756.97
175782,1757.82
175867,1758.67
175954,1759.54
176050,1760.5
176144,1761.44
176238,1762.38
176322,1763.22
176406,1764.06
176492,1764.92
176587,1765.87
176679,1766.79
176772,1767.72
176855,1768.55
176938,1769.38
177022,1770.22
177116,1771.16
177206,1772.06
177296,1772.96
177379,1773.79
177461,1774.61
177543,1775.43
177633,1776.33
177725,1777.25
177808,1778.08
177891,1778.91
177976,1779.76
178068,1780.68
178161,1781.61
178251,1782.51
178334,1783.34
178419,1784.19
178510,1785.1
178605,1786.05
178698,1786.98
178781,1787.81
178865,1788.65
178950,1789.5
179047,1790.47
179140,1791.4
179225,1792.25
179315,1793.15
179409,1794.09
179502,1795.02
179586,1795.86
179673,1796.73
179766,1797.66
179863,1798.63
179954,1799.54
180038,1800.38
180126,1801.26
180214,1802.14
180308,1803.08
180392,1803.92
180476,1804.76
180565,1805.65
180661,1806.61
180757,1807.57
180848,1808.48
180934,1809.34
181027,1810.27
181123,1811.23
181218,1812.18
181305,1813.05
181390,1813.9
181475,1814.75
181565,1815.65
181659,1816.59
181741,1817.41
181823,1818.23
181910,1819.1
182007,1820.07
182103,1821.03
182190,1821.9
182276,1822.76
182371,1823.71
182466,1824.66
182563,1825.63
182647,1826.47
182730,1827.3
182813,1828.13
182908,1829.08
183000,1830.0
183084,1830.84
183166,1831.66
183250,1832.5
183344,1833.44
183434,1834.34
183518,1835.18
183600,1836.0
183684,1836.84
183776,1837.76
183870,1838.7
183955,1839.55
184040,1840.4
184128,1841.28
184224,1842.24
184320,1843.2
184408,1844.08
184491,1844.91
184577,1845.77
184667,1846.67
184760,1847.6
184843,1848.43
184926,1849.26
185013,1850.13
185110,1851.1
185207,1852.07
185295,1852.95
185382,1853.82
185476,1854.76
185571,1855.71
185665,1856.65
185749,1857.49
185832,1858.32
185919,1859.19
186013,1860.13
186104,1861.04
186186,1861.86
186268,1862.68
186353,1863.53
186448,1864.48
186542,1865.42
186627,1866.27
186711,1867.11
186796,1867.96
186883,1868.83
186970,1869.7
187052,1870.52
187132,1871.32
187214,1872.14
187308,1873.08
187401,1874.01
187484,1874.84
187569,1875.69
187660,1876.6
187755,1877.55
187849,1878.49
187932,1879.32
188016,1880.16
188106,1881.06
188201,1882.01
188293,1882.93
188376,1883.76
188459,1884.59
188545,1885.45
188639,1886.39
188731,1887.31
188814,1888.14
188896,1888.96
188981,1889.81
189075,1890.75
189167,1891.67
189250,1892.5
189333,1893.33
189418,1894.18
189514,1895.14
189609,1896.09
189694,1896.94
189777,1897.77
189862,1898.62
189957,1899.57
190046,1900.46
190132,1901.32
190222,1902.22
190312,1903.12
190406,1904.06
190490,1904.9
190573,1905.73
190654,1906.54
190739,1907.39
190835,1908.35
190924,1909.24
191008,1910.08
191092,1910.92
191183,1911.83
191276,1912.76
191373,1913.73
191462,1914.62
191549,1915.49
191635,1916.35
191728,1917.28
191824,1918.24
191912,1919.12
191998,1919.98
192085,1920.85
192175,1921.75
192272,1922.72
192361,1923.61
192447,1924.47
192534,1925.34
192626,1926.26
192721,1927.21
192814,1928.14
192897,1928.97
192980,1929.8
193064,1930.64
193157,1931.57
193251,1932.51
193345,1933.45
193436,1934.36
193519,1935.19
193604,1936.04
193695,1936.95
193789,1937.89
193876,1938.76
193960,1939.6
194044,1940.44
194127,1941.27
194219,1942.19
194314,1943.14
194397,1943.97
194480,1944.8
194567,1945.67
194664,1946.64
194764,1947.64
194859,1948.59
194949,1949.49
195047,1950.47
195145,1951.45
195245,1952.45
195341,1953.41
195425,1954.25
195509,1955.09
195597,1955.97
195695,1956.95
195788,1957.88
195873,1958.73
195961,1959.61
196049,1960.49
196142,1961.42
196229,1962.29
196312,1963.12
196395,1963.95
196483,1964.83
196584,1965.84
196685,1966.85
196778,1967.78
196866,1968.66
196963,1969.63
197063,1970.63
197149,1971.49
197231,1972.31
197308,1973.08
197383,1973.83
197459,1974.59
197548,1975.48
197630,1976.3
197709,1977.09
197790,1977.9
197880,1978.8
197974,1979.74
198068,1980.68
198166,1981.66
198264,1982.64
198355,1983.55
198450,1984.5
198546,1985.46
198640,1986.4
198732,1987.32
198819,1988.19
198905,1989.05
198991,1989.91
199069,1990.69
199147,1991.47
199225,1992.25
199301,1993.01
199380,1993.8
199456,1994.56
199531,1995.31
199606,1996.06
199677,1996.77
199748,1997.48
199820,1998.2
199895,1998.95
199973,1999.73
200051,2000.51
200127,2001.27
200202,2002.02
200282,2002.82
200368,2003.68
200454,2004.54
200537,2005.37
200622,2006.22
200711,2007.11
200805,2008.05
200895,2008.95
200983,2009.83
201072,2010.72
201160,2011.6
201248,2012.48
201337,2013.37
201424,2014.24
201505,2015.05
201581,2015.81
201657,2016.57
201738,2017.38
201820,2018.2
201912,2019.12
202007,2020.07
202107,2021.07
202200,2022.0
202288,2022.88
202378,2023.78
202472,2024.72
202569,2025.69
202668,2026.68
202757,2027.57
202848,2028.48
202940,2029.4
203031,2030.31
203123,2031.23
203214,2032.14
203299,2032.99
203385,2033.85
203478,2034.78
203573,2035.73
203671,2036.71
203766,2037.66
203851,2038.51
203937,2039.37
204032,2040.32
204126,2041.26
204218,2042.18
204303,2043.03
204391,2043.91
204487,2044.87
204585,2045.85
204684,2046.84
204774,2047.74
204864,2048.64
204960,2049.6
205058,2050.58
205158,2051.58
205247,2052.47
205335,2053.35
205428,2054.28
205522,2055.22
205619,2056.19
205715,2057.15
205802,2058.02
205889,2058.89
205981,2059.81
206075,2060.75
206162,2061.62
206249,2062.49
206336,2063.36
206432,2064.32
206530,2065.3
206628,2066.28
206718,2067.18
206810,2068.1
206906,2069.06
207002,2070.02
207090,2070.9
207178,2071.78
207273,2072.73
207368,2073.68
207465,2074.65
207556,2075.56
207644,2076.44
207739,2077.39
207835,2078.35
207934,2079.34
208030,2080.3
208118,2081.18
208211,2082.11
208309,2083.09
208407,2084.07
208496,2084.96
208584,2085.84
208678,2086.78
208776,2087.76
208875,2088.75
208965,2089.65
209053,2090.53
209146,2091.46
209241,2092.41
209333,2093.33
209420,2094.2
209507,2095.07
209598,2095.98
209696,2096.96
209785,2097.85
209872,2098.72
209966,2099.66
210061,2100.61
210148,2101.48
210231,2102.31
210313,2103.13
210395,2103.95
210480,2104.8
210566,2105.66
210647,2106.47
210728,2107.28
210812,2108.12
210902,2109.02
210992,2109.92
211080,2110.8
211166,2111.66
211255,2112.55
211352,2113.52
211447,2114.47
211537,2115.37
211631,2116.31
211725,2117.25
211819,2118.19
211915,2119.15
212001,2120.01
212089,2120.89
212185,2121.85
212283,2122.83
212387,2123.87
212483,2124.83
212575,2125.75
212672,2126.72
212770,2127.7
212874,2128.74
212973,2129.73
213065,2130.65
213164,2131.64
213264,2132.64
213359,2133.59
213455,2134.55
213556,2135.56
213660,2136.6
213756,2137.56
213845,2138.45
213937,2139.37
214036,2140.36
214134,2141.34
214226,2142.26
214318,2143.18
214414,2144.14
214510,2145.1
214608,2146.08
214707,2147.07
214797,2147.97
214889,2148.89
214987,2149.87
215085,2150.85
215179,2151.79
215266,2152.66
215354,2153.54
215450,2154.5
215545,2155.45
215634,2156.34
215720,2157.2
215807,2158.07
215900,2159.0
215996,2159.96
216083,2160.83
216169,2161.69
216256,2162.56
216348,2163.48
216442,2164.42
216526,2165.26
216613,2166.13
216710,2167.1
216807,2168.07
216906,2169.06
216996,2169.96
217089,2170.89
217185,2171.85
217282,2172.82
217378,2173.78
217467,2174.67
217557,2175.57
217653,2176.53
217749,2177.49
217844,2178.44
217928,2179.28
218015,2180.15
218109,2181.09
218205,2182.05
218301,2183.01
218387,2183.87
218477,2184.77
218573,2185.73
218671,2186.71
218771,2187.71
218862,2188.62
218958,2189.58
219054,2190.54
219152,2191.52
219238,2192.38
219325,2193.25
219418,2194.18
219516,2195.16
219616,2196.16
219706,2197.06
219792,2197.92
219875,2198.75
219957,2199.57
220049,2200.49
220132,2201.32
220213,2202.13
220270,2202.7
220322,2203.22
220372,2203.72
220448,2204.48
220522,2205.22
220589,2205.89
220664,2206.64
220740,2207.4
220810,2208.1
220880,2208.8
220952,2209.52
221027,2210.27
221108,2211.08
221182,2211.82
221259,2212.59
221337,2213.37
221421,2214.21
221514,2215.14
221609,2216.09
221701,2217.01
221790,2217.9
221885,2218.85
221981,2219.81
222077,2220.77
222162,2221.62
222249,2222.49
222341,2223.41
222436,2224.36
222534,2225.34
222634,2226.34
222731,2227.31
222819,2228.19
222914,2229.14
223000,2230.0
223082,2230.82
223161,2231.61
223239,2232.39
223320,2233.2
223408,2234.08
223502,2235.02
223598,2235.98
223686,2236.86
223780,2237.8
223875,2238.75
223968,2239.68
224051,2240.51
224140,2241.4
224235,2242.35
224332,2243.32
224423,2244.23
224510,2245.1
224607,2246.07
224703,2247.03
224802,2248.02
224888,2248.88
224978,2249.78
225075,2250.75
225171,2251.71
225268,2252.68
225354,2253.54
225450,2254.5
225545,2255.45
225642,2256.42
225734,2257.34
225821,2258.21
225917,2259.17
226014,2260.14
226112,2261.12
226199,2261.99
226289,2262.89
226388,2263.88
226488,2264.88
226582,2265.82
226671,2266.71
226769,2267.69
226867,2268.67
226964,2269.64
227051,2270.51
227146,2271.46
227244,2272.44
227340,2273.4
227425,2274.25
227512,2275.12
227602,2276.02
227700,2277.0
227786,2277.86
227873,2278.73
227966,2279.66
228063,2280.63
228151,2281.51
228239,2282.39
228328,2283.28
228420,2284.2
228514,2285.14
228597,2285.97
228682,2286.82
228777,2287.77
228873,2288.73
228969,2289.69
229058,2290.58
229151,2291.51
229249,2292.49
229348,2293.48
229438,2294.38
229527,2295.27
229618,2296.18
229715,2297.15
229813,2298.13
229902,2299.02
229989,2299.89
230080,2300.8
230177,2301.77
230266,2302.66
230353,2303.53
230441,2304.41
230537,2305.37
230636,2306.36
230738,2307.38
230827,2308.27
230916,2309.16
231008,2310.08
231105,2311.05
231203,2312.03
231289,2312.89
231375,2313.75
231468,2314.68
231563,2315.63
231654,2316.54
231740,2317.4
231826,2318.26
231920,2319.2
232016,2320.16
232103,2321.03
232188,2321.88
232275,2322.75
232370,2323.7
232465,2324.65
232552,2325.52
232638,2326.38
232725,2327.25
232820,2328.2
232916,2329.16
233008,2330.08
233093,2330.93
233181,2331.81
233278,2332.78
233374,2333.74
233466,2334.66
233552,2335.52
233640,2336.4
233737,2337.37
233832,2338.32
233921,2339.21
234007,2340.07
234096,2340.96
234193,2341.93
234288,2342.88
234377,2343.77
234462,2344.62
234551,2345.51
234647,2346.47
234742,2347.42
234830,2348.3
234921,2349.21
235020,2350.2
235121,2351.21
235221,2352.21
235308,2353.08
235396,2353.96
235485,2354.85
235579,2355.79
235671,2356.71
235757,2357.57
235841,2358.41
235937,2359.37
236032,2360.32
236126,2361.26
236212,2362.12
236300,2363.0
236394,2363.94
236485,2364.85
236569,2365.69
236653,2366.53
236740,2367.4
236833,2368.33
236918,2369.18
237002,2370.02
237086,2370.86
237175,2371.75
237272,2372.72
237356,2373.56
237442,2374.42
237530,2375.3
237625,2376.25
237720,2377.2
237803,2378.03
237888,2378.88
237977,2379.77
238074,2380.74
238165,2381.65
238251,2382.51
238340,2383.4
238434,2384.34
238529,2385.29
238620,2386.2
238705,2387.05
238790,2387.9
238879,2388.79
238977,2389.77
239066,2390.66
239153,2391.53
239239,2392.39
239326,2393.26
239417,2394.17
239501,2395.01
239583,2395.83
239667,2396.67
239759,2397.59
239853,2398.53
239936,2399.36
240025,2400.25
240124,2401.24
240225,2402.25
240321,2403.21
240411,2404.11
240508,2405.08
240604,2406.04
240691,2406.91
240776,2407.76
240863,2408.63
240962,2409.62
241052,2410.52
241139,2411.39
241227,2412.27
241318,2413.18
241416,2414.16
241500,2415.0
241587,2415.87
241677,2416.77
241776,2417.76
241860,2418.6
241948,2419.48
242036,2420.36
242127,2421.27
242214,2422.14
242297,2422.97
242381,2423.81
242469,2424.69
242567,2425.67
242653,2426.53
242738,2427.38
242824,2428.24
242910,2429.1
243001,2430.01
243083,2430.83
243165,2431.65
243255,2432.55
243350,2433.5
243434,2434.34
243519,2435.19
243608,2436.08
243702,2437.02
243789,2437.89
243875,2438.75
243960,2439.6
244047,2440.47
244130,2441.3
244208,2442.08
244283,2442.83
244358,2443.58
244435,2444.35
244512,2445.12
244590,2445.9
244672,2446.72
244760,2447.6
244843,2448.43
244934,2449.34
245026,2450.26
245121,2451.21
245205,2452.05
245290,2452.9
245375,2453.75
245463,2454.63
245549,2455.49
245632,2456.32
245717,2457.17
245814,2458.14
245910,2459.1
246000,2460.0
246095,2460.95
246192,2461.92
246292,2462.92
246383,2463.83
246473,2464.73
246564,2465.64
246660,2466.6
246744,2467.44
246827,2468.27
246914,2469.14
247011,2470.11
247110,2471.1
247200,2472.0
247288,2472.88
247379,2473.79
247476,2474.76
247572,2475.72
247659,2476.59
247745,2477.45
247834,2478.34
247931,2479.31
248023,2480.23
248109,2481.09
248197,2481.97
248294,2482.94
248391,2483.91
248481,2484.81
248566,2485.66
248655,2486.55
248751,2487.51
248846,2488.46
248930,2489.3
249015,2490.15
249102,2491.02
249198,2491.98
249286,2492.86
249370,2493.7
249454,2494.54
249539,2495.39
249635,2496.35
249723,2497.23
249808,2498.08
249893,2498.93
249978,2499.78
250070,2500.7
250151,2501.51
250232,2502.32
250320,2503.2
250417,2504.17
250512,2505.12
250601,2506.01
250695,2506.95
250790,2507.9
250886,2508.86
250970,2509.7
251057,2510.57
251152,2511.52
251246,2512.46
251333,2513.33
251418,2514.18
251507,2515.07
251606,2516.06
251703,2517.03
251789,2517.89
251876,2518.76
251972,2519.72
252067,2520.67
252158,2521.58
252245,2522.45
252331,2523.31
252423,2524.23
252520,2525.2
252612,2526.12
252699,2526.99
252784,2527.84
252870,2528.7
252963,2529.63
253059,2530.59
253151,2531.51
253237,2532.37
253323,2533.23
253416,2534.16
253513,2535.13
253604,2536.04
253693,2536.93
253785,2537.85
253884,2538.84
253980,2539.8
254067,2540.67
254155,2541.55
254245,2542.45
254341,2543.41
254425,2544.25
254509,2545.09
254594,2545.94
254690,2546.9
254778,2547.78
254863,2548.63
254951,2549.51
255045,2550.45
255136,2551.36
255222,2552.22
255308,2553.08
255403,2554.03
255498,2554.98
255584,2555.84
255672,2556.72
255768,2557.68
255863,2558.63
255949,2559.49
256042,2560.42
256136,2561.36
256235,2562.35
256327,2563.27
256414,2564.14
256504,2565.04
256602,2566.02
256699,2566.99
256797,2567.97
256889,2568.89
256978,2569.78
257078,2570.78
257179,2571.79
257272,2572.72
257359,2573.59
257449,2574.49
257545,2575.45
257632,2576.32
257717,2577.17
257805,2578.05
257900,2579.0
257995,2579.95
258080,2580.8
258166,2581.66
258256,2582.56
258353,2583.53
258439,2584.39
258525,2585.25
258615,2586.15
258713,2587.13
258803,2588.03
258889,2588.89
258977,2589.77
259073,2590.73
259168,2591.68
259254,2592.54
259342,2593.42
259439,2594.39
259536,2595.36
259632,2596.32
259718,2597.18
259803,2598.03
259899,2598.99
259996,2599.96
260098,2600.98
260195,2601.95
260282,2602.82
260370,2603.7
260465,2604.65
260552,2605.52
260637,2606.37
260719,2607.19
260800,2608.0
260880,2608.8
260958,2609.58
261040,2610.4
261127,2611.27
261210,2612.1
261301,2613.01
261396,2613.96
261495,2614.95
261584,2615.84
261674,2616.74
261771,2617.71
261868,2618.68
261958,2619.58
262046,2620.46
262134,2621.34
262227,2622.27
262318,2623.18
262406,2624.06
262489,2624.89
262575,2625.75
262670,2626.7
262765,2627.65
262863,2628.63
262951,2629.51
263039,2630.39
263127,2631.27
263221,2632.21
263307,2633.07
263391,2633.91
263474,2634.74
263561,2635.61
263660,2636.6
263755,2637.55
263842,2638.42
263929,2639.29
264017,2640.17
264105,2641.05
264200,2642.0
264282,2642.82
264367,2643.67
264454,2644.54
264552,2645.52
264649,2646.49
264736,2647.36
264824,2648.24
264913,2649.13
265007,2650.07
265095,2650.95
265180,2651.8
265263,2652.63
265349,2653.49
265448,2654.48
265544,2655.44
265634,2656.34
265724,2657.24
265814,2658.14
265910,2659.1
265993,2659.93
266080,2660.8
266176,2661.76
266273,2662.73
266369,2663.69
266457,2664.57
266553,2665.53
266649,2666.49
266745,2667.45
266831,2668.31
266916,2669.16
267006,2670.06
267107,2671.07
267208,2672.08
267300,2673.0
267387,2673.87
267485,2674.85
267584,2675.84
267683,2676.83
267774,2677.74
267863,2678.63
267961,2679.61
268062,2680.62
268165,2681.65
268257,2682.57
268345,2683.45
268442,2684.42
268537,2685.37
268626,2686.26
268712,2687.12
268799,2687.99
268887,2688.87
268975,2689.75
269059,2690.59
269141,2691.41
269227,2692.27
269324,2693.24
269411,2694.11
269498,2694.98
269586,2695.86
269683,2696.83
269779,2697.79
269868,2698.68
269954,2699.54
270041,2700.41
270131,2701.31
270229,2702.29
270315,2703.15
270400,2704.0
270485,2704.85
270574,2705.74
270673,2706.73
270762,2707.62
270847,2708.47
270931,2709.31
271018,2710.18
271106,2711.06
271197,2711.97
271281,2712.81
271363,2713.63
271449,2714.49
271548,2715.48
271648,2716.48
271745,2717.45
271833,2718.33
271926,2719.26
272019,2720.19
272119,2721.19
272210,2722.1
272300,2723.0
272386,2723.86
272485,2724.85
272587,2725.87
272691,2726.91
272784,2727.84
272875,2728.75
272966,2729.66
273065,2730.65
273157,2731.57
273244,2732.44
273329,2733.29
273417,2734.17
273516,2735.16
273605,2736.05
273692,2736.92
273777,2737.77
273862,2738.62
273944,2739.44
274032,2740.32
274116,2741.16
274196,2741.96
274275,2742.75
274351,2743.51
274427,2744.27
274503,2745.03
274582,2745.82
274663,2746.63
274747,2747.47
274831,2748.31
274918,2749.18
275002,2750.02
275087,2750.87
275172,2751.72
275258,2752.58
275340,2753.4
275422,2754.22
275503,2755.03
275589,2755.89
275683,2756.83
275777,2757.77
275862,2758.62
275948,2759.48
276038,2760.38
276137,2761.37
276234,2762.34
276321,2763.21
276409,2764.09
276498,2764.98
276589,2765.89
276678,2766.78
276767,2767.67
276854,2768.54
276939,2769.39
277028,2770.28
277126,2771.26
277217,2772.17
277314,2773.14
277400,2774.0
277487,2774.87
277575,2775.75
277659,2776.59
277740,2777.4
277819,2778.19
277908,2779.08
278001,2780.01
278091,2780.91
278176,2781.76
278261,2782.61
278348,2783.48
278443,2784.43
278535,2785.35
278624,2786.24
278714,2787.14
278830,2788.3
278946,2789.46
279034,2790.34
279145,2791.45
279227,2792.27
279312,2793.12
279403,2794.03
279498,2794.98
279595,2795.95
279693,2796.93
279781,2797.81
279875,2798.75
279969,2799.69
280067,2800.67
280156,2801.56
280241,2802.41
280325,2803.25
280412,2804.12
280509,2805.09
280603,2806.03
280699,2806.99
280783,2807.83
280869,2808.69
280955,2809.55
281046,2810.46
281141,2811.41
281233,2812.33
281318,2813.18
281408,2814.08
281503,2815.03
281598,2815.98
281693,2816.93
281782,2817.82
281870,2818.7
281958,2819.58
282052,2820.52
282148,2821.48
282244,2822.44
282329,2823.29
282413,2824.13
282500,2825.0
282595,2825.95
282691,2826.91
282779,2827.79
282870,2828.7
282962,2829.62
283060,2830.6
283146,2831.46
283235,2832.35
283333,2833.33
283430,2834.3
283529,2835.29
283629,2836.29
283719,2837.19
283811,2838.11
283904,2839.04
284000,2840.0
284086,2840.86
284170,2841.7
284258,2842.58
284353,2843.53
284448,2844.48
284533,2845.33
284626,2846.26
284719,2847.19
284810,2848.1
284897,2848.97
284982,2849.82
285069,2850.69
285168,2851.68
285265,2852.65
285356,2853.56
285455,2854.55
285557,2855.57
285662,2856.62
285764,2857.64
285854,2858.54
285945,2859.45
286040,2860.4
286142,2861.42
286235,2862.35
286326,2863.26
286426,2864.26
286526,2865.26
286620,2866.2
286707,2867.07
286793,2867.93
286884,2868.84
286984,2869.84
287079,2870.79
287166,2871.66
287253,2872.53
287348,2873.48
287447,2874.47
287537,2875.37
287635,2876.35
287734,2877.34
287834,2878.34
287930,2879.3
288019,2880.19
288109,2881.09
288206,2882.06
288307,2883.07
288412,2884.12
288515,2885.15
288606,2886.06
288692,2886.92
288785,2887.85
288886,2888.86
288979,2889.79
289066,2890.66
289159,2891.59
289258,2892.58
289356,2893.56
289445,2894.45
289543,2895.43
289641,2896.41
289738,2897.38
289835,2898.35
289936,2899.36
290036,2900.36
290127,2901.27
290216,2902.16
290306,2903.06
290399,2903.99
290499,2904.99
290596,2905.96
290684,2906.84
290771,2907.71
290861,2908.61
290962,2909.62
291063,2910.63
291154,2911.54
291247,2912.47
291341,2913.41
291441,2914.41
291547,2915.47
291647,2916.47
291736,2917.36
291830,2918.3
291928,2919.28
292018,2920.18
292106,2921.06
292194,2921.94
292283,2922.83
292376,2923.76
292461,2924.61
292546,2925.46
292638,2926.38
292738,2927.38
292834,2928.34
292925,2929.25
293026,2930.26
293128,2931.28
293230,2932.3
293319,2933.19
293408,2934.08
293501,2935.01
293600,2936.0
293697,2936.97
293784,2937.84
293871,2938.71
293961,2939.61
294068,2940.68
294175,2941.75
294273,2942.73
294364,2943.64
294456,2944.56
294550,2945.5
294639,2946.39
294723,2947.23
294808,2948.08
294904,2949.04
295003,2950.03
295095,2950.95
295188,2951.88
295290,2952.9
295395,2953.95
295504,2955.04
295602,2956.02
295699,2956.99
295802,2958.02
295908,2959.08
296012,2960.12
296108,2961.08
296196,2961.96
296289,2962.89
296388,2963.88
296486,2964.86
296585,2965.85
296675,2966.75
296766,2967.66
296858,2968.58
296956,2969.56
297048,2970.48
297137,2971.37
297225,2972.25
297323,2973.23
297424,2974.24
297520,2975.2
297613,2976.13
297716,2977.16
297822,2978.22
297928,2979.28
298024,2980.24
298115,2981.15
298213,2982.13
298315,2983.15
298410,2984.1
298500,2985.0
298595,2985.95
298697,2986.97
298799,2987.99
298895,2988.95
298985,2989.85
299079,2990.79
299174,2991.74
299271,2992.71
299364,2993.64
299451,2994.51
299536,2995.36
299624,2996.24
299727,2997.27
299825,2998.25
299913,2999.13
300006,3000.06
300099,3000.99
300196,3001.96
300284,3002.84
300373,3003.73
300469,3004.69
300571,3005.71
300677,3006.77
300772,3007.72
300865,3008.65
300966,3009.66
301072,3010.72
301180,3011.8
301279,3012.79
301378,3013.78
301478,3014.78
301584,3015.84
301684,3016.84
301776,3017.76
301867,3018.67
301970,3019.7
302078,3020.78
302182,3021.82
302275,3022.75
302371,3023.71
302468,3024.68
302568,3025.68
302657,3026.57
302744,3027.44
302835,3028.35
302935,3029.35
303023,3030.23
303110,3031.1
303201,3032.01
303304,3033.04
303397,3033.97
303495,3034.95
303593,3035.93
303701,3037.01
303804,3038.04
303898,3038.98
303993,3039.93
304097,3040.97
304206,3042.06
304314,3043.14
304415,3044.15
304512,3045.12
304616,3046.16
304724,3047.24
304831,3048.31
304930,3049.3
305021,3050.21
305113,3051.13
305209,3052.09
305312,3053.12
305416,3054.16
305512,3055.12
305602,3056.02
305708,3057.08
305821,3058.21
305931,3059.31
306031,3060.31
306133,3061.33
306235,3062.35
306328,3063.28
306423,3064.23
306528,3065.28
306638,3066.38
306742,3067.42
306846,3068.46
306957,3069.57
307071,3070.71
307173,3071.73
307277,3072.77
307382,3073.82
307478,3074.78
307566,3075.66
307655,3076.55
307748,3077.48
307855,3078.55
307948,3079.48
308041,3080.41
308145,3081.45
308252,3082.52
308351,3083.51
308448,3084.48
308550,3085.5
308652,3086.52
308743,3087.43
308845,3088.45
308947,3089.47
309049,3090.49
309139,3091.39
309242,3092.42
309347,3093.47
309453,3094.53
309548,3095.48
309645,3096.45
309752,3097.52
309863,3098.63
309959,3099.59
310050,3100.5
310148,3101.48
310246,3102.46
310342,3103.42
310429,3104.29
310519,3105.19
310617,3106.17
310716,3107.16
310808,3108.08
310900,3109.0
311004,3110.04
311109,3111.09
311219,3112.19
311313,3113.13
311403,3114.03
311503,3115.03
311603,3116.03
311703,3117.03
311796,3117.96
311883,3118.83
311983,3119.83
312083,3120.83
312183,3121.83
312272,3122.72
312360,3123.6
312460,3124.6
312560,3125.6
312661,3126.61
312753,3127.53
312845,3128.45
312946,3129.46
313049,3130.49
313150,3131.5
313242,3132.42
313344,3133.44
313445,3134.45
313548,3135.48
313641,3136.41
313733,3137.33
313833,3138.33
313935,3139.35
314030,3140.3
314118,3141.18
314211,3142.11
314304,3143.04
314398,3143.98
314484,3144.84
314574,3145.74
314675,3146.75
314776,3147.76
314874,3148.74
314963,3149.63
315069,3150.69
315179,3151.79
315286,3152.86
315383,3153.83
315478,3154.78
315584,3155.84
315694,3156.94
315798,3157.98
315890,3158.9
315981,3159.81
316072,3160.72
316167,3161.67
316263,3162.63
316350,3163.5
316437,3164.37
316536,3165.36
316638,3166.38
316742,3167.42
316839,3168.39
316933,3169.33
317038,3170.38
317144,3171.44
317244,3172.44
317335,3173.35
317427,3174.27
317520,3175.2
317615,3176.15
317715,3177.15
317802,3178.02
317892,3178.92
317990,3179.9
318090,3180.9
318193,3181.93
318287,3182.87
318379,3183.79
318471,3184.71
318566,3185.66
318664,3186.64
318752,3187.52
318841,3188.41
318942,3189.42
319046,3190.46
319152,3191.52
319250,3192.5
319347,3193.47
319444,3194.44
319550,3195.5
319645,3196.45
319737,3197.37
319825,3198.25
319926,3199.26
320028,3200.28
320132,3201.32
320230,3202.3
320331,3203.31
320436,3204.36
320549,3205.49
320654,3206.54
320749,3207.49
320845,3208.45
320949,3209.49
321049,3210.49
321141,3211.41
321229,3212.29
321321,3213.21
321419,3214.19
321517,3215.17
321606,3216.06
321696,3216.96
321787,3217.87
321883,3218.83
321980,3219.8
322067,3220.67
322156,3221.56
322253,3222.53
322354,3223.54
322457,3224.57
322553,3225.53
322643,3226.43
322742,3227.42
322841,3228.41
322944,3229.44
323031,3230.31
323119,3231.19
323208,3232.08
323309,3233.09
323409,3234.09
323500,3235.0
323592,3235.92
323684,3236.84
323779,3237.79
323869,3238.69
323960,3239.6
324051,3240.51
324157,3241.57
324266,3242.66
324370,3243.7
324464,3244.64
324559,3245.59
324654,3246.54
324755,3247.55
324842,3248.42
324928,3249.28
325019,3250.19
325120,3251.2
325220,3252.2
325317,3253.17
325408,3254.08
325500,3255.0
325603,3256.03
325708,3257.08
325811,3258.11
325902,3259.02
325993,3259.93
326087,3260.87
326189,3261.89
326289,3262.89
326379,3263.79
326467,3264.67
326567,3265.67
326668,3266.68
326771,3267.71
326862,3268.62
326953,3269.53
327045,3270.45
327144,3271.44
327242,3272.42
327328,3273.28
327416,3274.16
327515,3275.15
327613,3276.13
327713,3277.13
327803,3278.03
327903,3279.03
328004,3280.04
328109,3281.09
328198,3281.98
328292,3282.92
328394,3283.94
328498,3284.98
328596,3285.96
328687,3286.87
328782,3287.82
328877,3288.77
328975,3289.75
329062,3290.62
329147,3291.47
329236,3292.36
329332,3293.32
329427,3294.27
329522,3295.22
329612,3296.12
329723,3297.23
329841,3298.41
329953,3299.53
330054,3300.54
330150,3301.5
330246,3302.46
330346,3303.46
330443,3304.43
330531,3305.31
330622,3306.22
330724,3307.24
330826,3308.26
330928,3309.28
331023,3310.23
331117,3311.17
331211,3312.11
331314,3313.14
331414,3314.14
331503,3315.03
331590,3315.9
331681,3316.81
331783,3317.83
331887,3318.87
331986,3319.86
332080,3320.8
332182,3321.82
332289,3322.89
332401,3324.01
332504,3325.04
332598,3325.98
332693,3326.93
332795,3327.95
332893,3328.93
332984,3329.84
333073,3330.73
333172,3331.72
333273,3332.73
333373,3333.73
333462,3334.62
333550,3335.5
333638,3336.38
333726,3337.26
333814,3338.14
333905,3339.05
333988,3339.88
334073,3340.73
334161,3341.61
334259,3342.59
334358,3343.58
334448,3344.48
334544,3345.44
334640,3346.4
334733,3347.33
334820,3348.2
334904,3349.04
334995,3349.95
335093,3350.93
335191,3351.91
335282,3352.82
335374,3353.74
335466,3354.66
335567,3355.67
335660,3356.6
335750,3357.5
335838,3358.38
335940,3359.4
336045,3360.45
336151,3361.51
336249,3362.49
336343,3363.43
336437,3364.37
336534,3365.34
336623,3366.23
336710,3367.1
336801,3368.01
336901,3369.01
337000,3370.0
337088,3370.88
337184,3371.84
337281,3372.81
337381,3373.81
337473,3374.73
337562,3375.62
337648,3376.48
337739,3377.39
337840,3378.4
337938,3379.38
338026,3380.26
338114,3381.14
338202,3382.02
338294,3382.94
338392,3383.92
338480,3384.8
338567,3385.67
338653,3386.53
338750,3387.5
338849,3388.49
338949,3389.49
339038,3390.38
339128,3391.28
339217,3392.17
339313,3393.13
339413,3394.13
339497,3394.97
339583,3395.83
339677,3396.77
339778,3397.78
339887,3398.87
339988,3399.88
340080,3400.8
340172,3401.72
340269,3402.69
340367,3403.67
340453,3404.53
340541,3405.41
340639,3406.39
340738,3407.38
340839,3408.39
340928,3409.28
341020,3410.2
341113,3411.13
341201,3412.01
341283,3412.83
341363,3413.63
341441,3414.41
341519,3415.19
341601,3416.01
341683,3416.83
341759,3417.59
341836,3418.36
341912,3419.12
341987,3419.87
342066,3420.66
342151,3421.51
342237,3422.37
342318,3423.18
342405,3424.05
342493,3424.93
342591,3425.91
342689,3426.89
342789,3427.89
342879,3428.79
342974,3429.74
343069,3430.69
343179,3431.79
343287,3432.87
343390,3433.9
343482,3434.82
343579,3435.79
343676,3436.76
343780,3437.8
343880,3438.8
343969,3439.69
344056,3440.56
344145,3441.45
344243,3442.43
344339,3443.39
344427,3444.27
344527,3445.27
344627,3446.27
344737,3447.37
344842,3448.42
344936,3449.36
345031,3450.31
345135,3451.35
345241,3452.41
345347,3453.47
345441,3454.41
345539,3455.39
345638,3456.38
345741,3457.41
345835,3458.35
345924,3459.24
346012,3460.12
346111,3461.11
346212,3462.12
346311,3463.11
346399,3463.99
346492,3464.92
346586,3465.86
346684,3466.84
346775,3467.75
346862,3468.62
346954,3469.54
347057,3470.57
347162,3471.62
347260,3472.6
347361,3473.61
347466,3474.66
347577,3475.77
347679,3476.79
347776,3477.76
347874,3478.74
347980,3479.8
348084,3480.84
348176,3481.76
348266,3482.66
348369,3483.69
348475,3484.75
348580,3485.8
348674,3486.74
348771,3487.71
348869,3488.69
348972,3489.72
349068,3490.68
349157,3491.57
349249,3492.49
349351,3493.51
349455,3494.55
349555,3495.55
349648,3496.48
349743,3497.43
349838,3498.38
349938,3499.38
350032,3500.32
350120,3501.2
350207,3502.07
350298,3502.98
350396,3503.96
350493,3504.93
350579,3505.79
350670,3506.7
350761,3507.61
350862,3508.62
350955,3509.55
351045,3510.45
351134,3511.34
351236,3512.36
351341,3513.41
351445,3514.45
351540,3515.4
351637,3516.37
351734,3517.34
351830,3518.3
351918,3519.18
352006,3520.06
352108,3521.08
352214,3522.14
352321,3523.21
352420,3524.2
352522,3525.22
352624,3526.24
352731,3527.31
352828,3528.28
352918,3529.18
353017,3530.17
353122,3531.22
353231,3532.31
353335,3533.35
353427,3534.27
353521,3535.21
353616,3536.16
353714,3537.14
353809,3538.09
353898,3538.98
353984,3539.84
354074,3540.74
354177,3541.77
354279,3542.79
354376,3543.76
354467,3544.67
354559,3545.59
354654,3546.54
354752,3547.52
354845,3548.45
354933,3549.33
355021,3550.21
355121,3551.21
355221,3552.21
355319,3553.19
355407,3554.07
355497,3554.97
355588,3555.88
355681,3556.81
355773,3557.73
355859,3558.59
355944,3559.44
356036,3560.36
356139,3561.39
356240,3562.4
356331,3563.31
356418,3564.18
356505,3565.05
356596,3565.96
356695,3566.95
356782,3567.82
356870,3568.7
356956,3569.56
357057,3570.57
357161,3571.61
357265,3572.65
357358,3573.58
357453,3574.53
357549,3575.49
357651,3576.51
357742,3577.42
357830,3578.3
357920,3579.2
358020,3580.2
358123,3581.23
358220,3582.2
358311,3583.11
358405,3584.05
358499,3584.99
358601,3586.01
358696,3586.96
358786,3587.86
358870,3588.7
358959,3589.59
359059,3590.59
359159,3591.59
359256,3592.56
359349,3593.49
359450,3594.5
359555,3595.55
359652,3596.52
359743,3597.43
359836,3598.36
359935,3599.35
360037,3600.37
360128,3601.28
360217,3602.17
360306,3603.06
360405,3604.05
360505,3605.05
360596,3605.96
360684,3606.84
360773,3607.73
360866,3608.66
360966,3609.66
361058,3610.58
361145,3611.45
361232,3612.32
361321,3613.21
361414,3614.14
361515,3615.15
361605,3616.05
361694,3616.94
361782,3617.82
361877,3618.77
361979,3619.79
362076,3620.76
362167,3621.67
362261,3622.61
362355,3623.55
362457,3624.57
362553,3625.53
362643,3626.43
362730,3627.3
362824,3628.24
362928,3629.28
363034,3630.34
363131,3631.31
363223,3632.23
363316,3633.16
363413,3634.13
363511,3635.11
363601,3636.01
363689,3636.89
363790,3637.9
363891,3638.91
363992,3639.92
364083,3640.83
364174,3641.74
364266,3642.66
364370,3643.7
364467,3644.67
364559,3645.59
364646,3646.46
364738,3647.38
364840,3648.4
364939,3649.39
365029,3650.29
365118,3651.18
365208,3652.08
365305,3653.05
365401,3654.01
365491,3654.91
365577,3655.77
365670,3656.7
365772,3657.72
365874,3658.74
365966,3659.66
366056,3660.56
366146,3661.46
366243,3662.43
366343,3663.43
366437,3664.37
366525,3665.25
366609,3666.09
366699,3666.99
366800,3668.0
366900,3669.0
366991,3669.91
367082,3670.82
367174,3671.74
367275,3672.75
367367,3673.67
367456,3674.56
367541,3675.41
367629,3676.29
367725,3677.25
367823,3678.23
367911,3679.11
367998,3679.98
368086,3680.86
368178,3681.78
368278,3682.78
368368,3683.68
368455,3684.55
368544,3685.44
368643,3686.43
368741,3687.41
368835,3688.35
368926,3689.26
369024,3690.24
369122,3691.22
369218,3692.18
369307,3693.07
369392,3693.92
369485,3694.85
369585,3695.85
369686,3696.86
369776,3697.76
369866,3698.66
369956,3699.56
370052,3700.52
370151,3701.51
370242,3702.42
370328,3703.28
370415,3704.15
370508,3705.08
370599,3705.99
370693,3706.93
370780,3707.8
370866,3708.66
370956,3709.56
371055,3710.55
371144,3711.44
371233,3712.33
371318,3713.18
371412,3714.12
371507,3715.07
371598,3715.98
371685,3716.85
371771,3717.71
371863,3718.63
371968,3719.68
372069,3720.69
372160,3721.6
372251,3722.51
372342,3723.42
372441,3724.41
372534,3725.34
372627,3726.27
372712,3727.12
372799,3727.99
372890,3728.9
372989,3729.89
373076,3730.76
373166,3731.66
373256,3732.56
373356,3733.56
373454,3734.54
373544,3735.44
373636,3736.36
373728,3737.28
373831,3738.31
373932,3739.32
374025,3740.25
374116,3741.16
374206,3742.06
374308,3743.08
374411,3744.11
374506,3745.06
374597,3745.97
374698,3746.98
374804,3748.04
374909,3749.09
375002,3750.02
375093,3750.93
375185,3751.85
375287,3752.87
375385,3753.85
375481,3754.81
375569,3755.69
375665,3756.65
375798,3757.98
375931,3759.31
376067,3760.67
376204,3762.04
376293,3762.93
376384,3763.84
376469,3764.69
376553,3765.53
376642,3766.42
376742,3767.42
376841,3768.41
376931,3769.31
377021,3770.21
377120,3771.2
377224,3772.24
377331,3773.31
377430,3774.3
377522,3775.22
377615,3776.15
377712,3777.12
377813,3778.13
377905,3779.05
377994,3779.94
378093,3780.93
378193,3781.93
378293,3782.93
378384,3783.84
378476,3784.76
378568,3785.68
378670,3786.7
378771,3787.71
378863,3788.63
378953,3789.53
379050,3790.5
379151,3791.51
379251,3792.51
379342,3793.42
379430,3794.3
379518,3795.18
379610,3796.1
379704,3797.04
379800,3798.0
379888,3798.88
379975,3799.75
380067,3800.67
380170,3801.7
380270,3802.7
380361,3803.61
380457,3804.57
380554,3805.54
380655,3806.55
380752,3807.52
380842,3808.42
380928,3809.28
381023,3810.23
381125,3811.25
381227,3812.27
381317,3813.17
381408,3814.08
381500,3815.0
381598,3815.98
381694,3816.94
381787,3817.87
381873,3818.73
381967,3819.67
382066,3820.66
382165,3821.65
382255,3822.55
382349,3823.49
382443,3824.43
382546,3825.46
382646,3826.46
382737,3827.37
382825,3828.25
382915,3829.15
383014,3830.14
383116,3831.16
383210,3832.1
383301,3833.01
383392,3833.92
383488,3834.88
383585,3835.85
383673,3836.73
383760,3837.6
383848,3838.48
383941,3839.41
384035,3840.35
384124,3841.24
384214,3842.14
384316,3843.16
384421,3844.21
384522,3845.22
384613,3846.13
384706,3847.06
384808,3848.08
384910,3849.1
385010,3850.1
385105,3851.05
385199,3851.99
385294,3852.94
385394,3853.94
385492,3854.92
385584,3855.84
385673,3856.73
385774,3857.74
385881,3858.81
385986,3859.86
386080,3860.8
386179,3861.79
386279,3862.79
386379,3863.79
386476,3864.76
386567,3865.67
386655,3866.55
386754,3867.54
386854,3868.54
386956,3869.56
387049,3870.49
387141,3871.41
387233,3872.33
387332,3873.32
387432,3874.32
387523,3875.23
387612,3876.12
387713,3877.13
387814,3878.14
387917,3879.17
388011,3880.11
388105,3881.05
388199,3881.99
388297,3882.97
388394,3883.94
388484,3884.84
388570,3885.7
388659,3886.59
388759,3887.59
388857,3888.57
388947,3889.47
389034,3890.34
389122,3891.22
389215,3892.15
389310,3893.1
389402,3894.02
389490,3894.9
389581,3895.81
389682,3896.82
389784,3897.84
389878,3898.78
389968,3899.68
390060,3900.6
390161,3901.61
390264,3902.64
390364,3903.64
390453,3904.53
390543,3905.43
390636,3906.36
390732,3907.32
390833,3908.33
390922,3909.22
391010,3910.1
391110,3911.1
391211,3912.11
391311,3913.11
391403,3914.03
391499,3914.99
391595,3915.95
391695,3916.95
391787,3917.87
391877,3918.77
391966,3919.66
392068,3920.68
392171,3921.71
392275,3922.75
392367,3923.67
392459,3924.59
392552,3925.52
392648,3926.48
392742,3927.42
392831,3928.31
392917,3929.17
393010,3930.1
393109,3931.09
393212,3932.12
393305,3933.05
393397,3933.97
393489,3934.89
393592,3935.92
393689,3936.89
393777,3937.77
393865,3938.65
393963,3939.63
394064,3940.64
394171,3941.71
394269,3942.69
394360,3943.6
394452,3944.52
394551,3945.51
394650,3946.5
394738,3947.38
394825,3948.25
394918,3949.18
395022,3950.22
395124,3951.24
395217,3952.17
395307,3953.07
395398,3953.98
395496,3954.96
395596,3955.96
395685,3956.85
395772,3957.72
395864,3958.64
395964,3959.64
396067,3960.67
396163,3961.63
396256,3962.56
396350,3963.5
396453,3964.53
396551,3965.51
396641,3966.41
396731,3967.31
396826,3968.26
396925,3969.25
397021,3970.21
397111,3971.11
397202,3972.02
397293,3972.93
397397,3973.97
397496,3974.96
397588,3975.88
397677,3976.77
397778,3977.78
397878,3978.78
397973,3979.73
398062,3980.62
398149,3981.49
398236,3982.36
398333,3983.33
398428,3984.28
398516,3985.16
398602,3986.02
398699,3986.99
398798,3987.98
398900,3989.0
398994,3989.94
399081,3990.81
399168,3991.68
399253,3992.53
399339,3993.39
399430,3994.3
399522,3995.22
399608,3996.08
399698,3996.98
399799,3997.99
399901,3999.01
399994,3999.94
400090,4000.9
400187,4001.87
400293,4002.93
400391,4003.91
400483,4004.83
400574,4005.74
400672,4006.72
400773,4007.73
400869,4008.69
400956,4009.56
401044,4010.44
401137,4011.37
401233,4012.33
401325,4013.25
401415,4014.15
401501,4015.01
401592,4015.92
401691,4016.91
401785,4017.85
401873,4018.73
401964,4019.64
402056,4020.56
402152,4021.52
402244,4022.44
402331,4023.31
402418,4024.18
402509,4025.09
402608,4026.08
402701,4027.01
402792,4027.92
402881,4028.81
402972,4029.72
403068,4030.68
403160,4031.6
403250,4032.5
403340,4033.4
403437,4034.37
403536,4035.36
403627,4036.27
403717,4037.17
403816,4038.16
403915,4039.15
404009,4040.09
404099,4040.99
404195,4041.95
404292,4042.92
404390,4043.9
404479,4044.79
404565,4045.65
404655,4046.55
404753,4047.53
404852,4048.52
404941,4049.41
405034,4050.34
405128,4051.28
405225,4052.25
405316,4053.16
405404,4054.04
405500,4055.0
405603,4056.03
405706,4057.06
405799,4057.99
405891,4058.91
405983,4059.83
406082,4060.82
406179,4061.79
406268,4062.68
406355,4063.55
406445,4064.45
406542,4065.42
406642,4066.42
406730,4067.3
406819,4068.19
406908,4069.08
407002,4070.02
407102,4071.02
407187,4071.87
407274,4072.74
407364,4073.64
407464,4074.64
407564,4075.64
407653,4076.53
407744,4077.44
407835,4078.35
407931,4079.31
408030,4080.3
408119,4081.19
408207,4082.07
408304,4083.04
408405,4084.05
408506,4085.06
408597,4085.97
408688,4086.88
408780,4087.8
408879,4088.79
408980,4089.8
409069,4090.69
409156,4091.56
409247,4092.47
409347,4093.47
409446,4094.46
409537,4095.37
409625,4096.25
409713,4097.13
409805,4098.05
409895,4098.95
409982,4099.82
410066,4100.66
410158,4101.58
410257,4102.57
410355,4103.55
410443,4104.43
410535,4105.35
410628,4106.28
410727,4107.27
410825,4108.25
410913,4109.13
411000,4110.0
411089,4110.89
411187,4111.87
411278,4112.78
411366,4113.66
411455,4114.55
411547,4115.47
411644,4116.44
411743,4117.43
411831,4118.31
411919,4119.19
412016,4120.16
412116,4121.16
412219,4122.19
412312,4123.12
412407,4124.07
412503,4125.03
412603,4126.03
412698,4126.98
412787,4127.87
412876,4128.76
412971,4129.71
413075,4130.75
413178,4131.78
413269,4132.69
413360,4133.6
413451,4134.51
413550,4135.5
413644,4136.44
413734,4137.34
413822,4138.22
413912,4139.12
414012,4140.12
414107,4141.07
414197,4141.97
414288,4142.88
414380,4143.8
414477,4144.77
414570,4145.7
414658,4146.58
414747,4147.47
414841,4148.41
414940,4149.4
415031,4150.31
415120,4151.2
415209,4152.09
415305,4153.05
415404,4154.04
415496,4154.96
415680,4156.8
415864,4158.64
415955,4159.55
416040,4160.4
416126,4161.26
416215,4162.15
416314,4163.14
416411,4164.11
416500,4165.0
416593,4165.93
416686,4166.86
416783,4167.83
416877,4168.77
416965,4169.65
417051,4170.51
417141,4171.41
417241,4172.41
417342,4173.42
417436,4174.36
417525,4175.25
417623,4176.23
417722,4177.22
417824,4178.24
417912,4179.12
418000,4180.0
418096,4180.96
418198,4181.98
418299,4182.99
418390,4183.9
418481,4184.81
418573,4185.73
418668,4186.68
418766,4187.66
418855,4188.55
418943,4189.43
419037,4190.37
419139,4191.39
419240,4192.4
419333,4193.33
419426,4194.26
419520,4195.2
419623,4196.23
419721,4197.21
419811,4198.11
419900,4199.0
419997,4199.97
420095,4200.95
420192,4201.92
420284,4202.84
420372,4203.72
420461,4204.61
420599,4205.99
420737,4207.37
420823,4208.23
420906,4209.06
421001,4210.01
421096,4210.96
421195,4211.95
421285,4212.85
421373,4213.73
421471,4214.71
421568,4215.68
421669,4216.69
421763,4217.63
421853,4218.53
421944,4219.44
422044,4220.44
422138,4221.38
422228,4222.28
422315,4223.15
422406,4224.06
422507,4225.07
422606,4226.06
422700,4227.0
422789,4227.89
422883,4228.83
422981,4229.81
423078,4230.78
423170,4231.7
423257,4232.57
423347,4233.47
423439,4234.39
423539,4235.39
423631,4236.31
423721,4237.21
423813,4238.13
423905,4239.05
424004,4240.04
424096,4240.96
424182,4241.82
424270,4242.7
424364,4243.64
424462,4244.62
424557,4245.57
424647,4246.47
424737,4247.37
424827,4248.27
424927,4249.27
425024,4250.24
425115,4251.15
425202,4252.02
425295,4252.95
425393,4253.93
425492,4254.92
425582,4255.82
425671,4256.71
425766,4257.66
425871,4258.71
425977,4259.77
426071,4260.71
426162,4261.62
426258,4262.58
426359,4263.59
426458,4264.58
426548,4265.48
426637,4266.37
426727,4267.27
426827,4268.27
426923,4269.23
427015,4270.15
427101,4271.01
427189,4271.89
427284,4272.84
427385,4273.85
427478,4274.78
427568,4275.68
427659,4276.59
427754,4277.54
427852,4278.52
427947,4279.47
428038,4280.38
428126,4281.26
428225,4282.25
428325,4283.25
428426,4284.26
428516,4285.16
428606,4286.06
428697,4286.97
428794,4287.94
428888,4288.88
428980,4289.8
429067,4290.67
429155,4291.55
429248,4292.48
429343,4293.43
429438,4294.38
429555,4295.55
429672,4296.72
429780,4297.8
429889,4298.89
429976,4299.76
430063,4300.63
430161,4301.61
430263,4302.63
430369,4303.69
430465,4304.65
430563,4305.63
430661,4306.61
430764,4307.64
430859,4308.59
430948,4309.48
431039,4310.39
431139,4311.39
431240,4312.4
431338,4313.38
431429,4314.29
431523,4315.23
431617,4316.17
431714,4317.14
431807,4318.07
431896,4318.96
431983,4319.83
432076,4320.76
432176,4321.76
432272,4322.72
432361,4323.61
432455,4324.55
432549,4325.49
432650,4326.5
432742,4327.42
432831,4328.31
432919,4329.19
433013,4330.13
433112,4331.12
433201,4332.01
433290,4332.9
433379,4333.79
433475,4334.75
433570,4335.7
433662,4336.62
433749,4337.49
433837,4338.37
433931,4339.31
434032,4340.32
434131,4341.31
434223,4342.23
434312,4343.12
434401,4344.01
434496,4344.96
434593,4345.93
434682,4346.82
434767,4347.67
434856,4348.56
434953,4349.53
435049,4350.49
435138,4351.38
435229,4352.29
435320,4353.2
435421,4354.21
435517,4355.17
435606,4356.06
435694,4356.94
435791,4357.91
435892,4358.92
435991,4359.91
436083,4360.83
436173,4361.73
436263,4362.63
436363,4363.63
436458,4364.58
436548,4365.48
436635,4366.35
436723,4367.23
436818,4368.18
436916,4369.16
437005,4370.05
437099,4370.99
437194,4371.94
437295,4372.95
437392,4373.92
437482,4374.82
437570,4375.7
437665,4376.65
437768,4377.68
437871,4378.71
437967,4379.67
438056,4380.56
438146,4381.46
438241,4382.41
438336,4383.36
438426,4384.26
438512,4385.12
438601,4386.01
438698,4386.98
438796,4387.96
438885,4388.85
438975,4389.75
439066,4390.66
439163,4391.63
439262,4392.62
439354,4393.54
439442,4394.42
439534,4395.34
439633,4396.33
439733,4397.33
439825,4398.25
439914,4399.14
440004,4400.04
440097,4400.97
440197,4401.97
440287,4402.87
440376,4403.76
440465,4404.65
440565,4405.65
440666,4406.66
440764,4407.64
440856,4408.56
440944,4409.44
441036,4410.36
441137,4411.37
441240,4412.4
441332,4413.32
441421,4414.21
441522,4415.22
441623,4416.23
441721,4417.21
441809,4418.09
441898,4418.98
441987,4419.87
442082,4420.82
442179,4421.79
442271,4422.71
442360,4423.6
442459,4424.59
442560,4425.6
442663,4426.63
442758,4427.58
442848,4428.48
442939,4429.39
443032,4430.32
443130,4431.3
443226,4432.26
443316,4433.16
443401,4434.01
443495,4434.95
443596,4435.96
443696,4436.96
443789,4437.89
443883,4438.83
443977,4439.77
444075,4440.75
444170,4441.7
444260,4442.6
444348,4443.48
444446,4444.46
444547,4445.47
444651,4446.51
444744,4447.44
444834,4448.34
444925,4449.25
445023,4450.23
445117,4451.17
445205,4452.05
445290,4452.9
445379,4453.79
445479,4454.79
445578,4455.78
445667,4456.67
445757,4457.57
445847,4458.47
445944,4459.44
446042,4460.42
446133,4461.33
446220,4462.2
446311,4463.11
446411,4464.11
446511,4465.11
446603,4466.03
446695,4466.95
446787,4467.87
446887,4468.87
446983,4469.83
447073,4470.73
447159,4471.59
447250,4472.5
447353,4473.53
447456,4474.56
447549,4475.49
447643,4476.43
447737,4477.37
447840,4478.4
447936,4479.36
448028,4480.28
448116,4481.16
448204,4482.04
448303,4483.03
448402,4484.02
448499,4484.99
448588,4485.88
448680,4486.8
448773,4487.73
448875,4488.75
448969,4489.69
449057,4490.57
449142,4491.42
449231,4492.31
449329,4493.29
449427,4494.27
449517,4495.17
449608,4496.08
449700,4497.0
449796,4497.96
449889,4498.89
449977,4499.77
450067,4500.67
450166,4501.66
450268,4502.68
450367,4503.67
450456,4504.56
450551,4505.51
450646,4506.46
450742,4507.42
450832,4508.32
450919,4509.19
451006,4510.06
451101,4511.01
451201,4512.01
451297,4512.97
451388,4513.88
451478,4514.78
451569,4515.69
451665,4516.65
451760,4517.6
451851,4518.51
451938,4519.38
452033,4520.33
452137,4521.37
452242,4522.42
452338,4523.38
452430,4524.3
452522,4525.22
452622,4526.22
452723,4527.23
452817,4528.17
452906,4529.06
452995,4529.95
453091,4530.91
453192,4531.92
453292,4532.92
453383,4533.83
453477,4534.77
453572,4535.72
453668,4536.68
453759,4537.59
453847,4538.47
453934,4539.34
454027,4540.27
454129,4541.29
454227,4542.27
454317,4543.17
454406,4544.06
454496,4544.96
454592,4545.92
454692,4546.92
454780,4547.8
454866,4548.66
454955,4549.55
455053,4550.53
455153,4551.53
455248,4552.48
455338,4553.38
455429,4554.29
455525,4555.25
455627,4556.27
455724,4557.24
455815,4558.15
455904,4559.04
456002,4560.02
456103,4561.03
456205,4562.05
456296,4562.96
456386,4563.86
456477,4564.77
456576,4565.76
456669,4566.69
456760,4567.6
456846,4568.46
456933,4569.33
457016,4570.16
457101,4571.01
457189,4571.89
457284,4572.84
457370,4573.7
457460,4574.6
457561,4575.61
457668,4576.68
457775,4577.75
457874,4578.74
457981,4579.81
458088,4580.88
458189,4581.89
458281,4582.81
458373,4583.73
458491,4584.91
458603,4586.03
458707,4587.07
458799,4587.99
458892,4588.92
458985,4589.85
459084,4590.84
459176,4591.76
459264,4592.64
459353,4593.53
459448,4594.48
459548,4595.48
459642,4596.42
459730,4597.3
459820,4598.2
459913,4599.13
460010,4600.1
460100,4601.0
460189,4601.89
460286,4602.86
460388,4603.88
460489,4604.89
460580,4605.8
460670,4606.7
460765,4607.65
460869,4608.69
460967,4609.67
461056,4610.56
461146,4611.46
461239,4612.39
461334,4613.34
461431,4614.31
461520,4615.2
461607,4616.07
461700,4617.0
461801,4618.01
461903,4619.03
461995,4619.95
462089,4620.89
462184,4621.84
462284,4622.84
462382,4623.82
462471,4624.71
462561,4625.61
462657,4626.57
462757,4627.57
462851,4628.51
462940,4629.4
463032,4630.32
463124,4631.24
463221,4632.21
463314,4633.14
463405,4634.05
463493,4634.93
463588,4635.88
463689,4636.89
463787,4637.87
463877,4638.77
463969,4639.69
464068,4640.68
464171,4641.71
464268,4642.68
464358,4643.58
464452,4644.52
464551,4645.51
464652,4646.52
464750,4647.5
464839,4648.39
464929,4649.29
465020,4650.2
465115,4651.15
465211,4652.11
465300,4653.0
465385,4653.85
465476,4654.76
465576,4655.76
465677,4656.77
465769,4657.69
465864,4658.64
465960,4659.6
466058,4660.58
466152,4661.52
466241,4662.41
466328,4663.28
466426,4664.26
466526,4665.26
466618,4666.18
466708,4667.08
466805,4668.05
466902,4669.02
467001,4670.01
467091,4670.91
467178,4671.78
467269,4672.69
467371,4673.71
467470,4674.7
467560,4675.6
467654,4676.54
467748,4677.48
467848,4678.48
467941,4679.41
468032,4680.32
468122,4681.22
468222,4682.22
468325,4683.25
468424,4684.24
468517,4685.17
468608,4686.08
468699,4686.99
468801,4688.01
468903,4689.03
468993,4689.93
469083,4690.83
469183,4691.83
469285,4692.85
469386,4693.86
469479,4694.79
469573,4695.73
469668,4696.68
469769,4697.69
469861,4698.61
469950,4699.5
470038,4700.38
470133,4701.33
470235,4702.35
470332,4703.32
470422,4704.22
470514,4705.14
470607,4706.07
470703,4707.03
470794,4707.94
470880,4708.8
470968,4709.68
471064,4710.64
471164,4711.64
471259,4712.59
471348,4713.48
471436,4714.36
471525,4715.25
471619,4716.19
471716,4717.16
471808,4718.08
471896,4718.96
471987,4719.87
472086,4720.86
472189,4721.89
472287,4722.87
472377,4723.77
472471,4724.71
472566,4725.66
472666,4726.66
472763,4727.63
472852,4728.52
472939,4729.39
473033,4730.33
473134,4731.34
473234,4732.34
473326,4733.26
473417,4734.17
473508,4735.08
473607,4736.07
473701,4737.01
473789,4737.89
473874,4738.74
473966,4739.66
474065,4740.65
474165,4741.65
474261,4742.61
474350,4743.5
474446,4744.46
474542,4745.42
474635,4746.35
474721,4747.21
474805,4748.05
474892,4748.92
474986,4749.86
475086,4750.86
475178,4751.78
475268,4752.68
475365,4753.65
475467,4754.67
475571,4755.71
475665,4756.65
475756,4757.56
475848,4758.48
475947,4759.47
476048,4760.48
476142,4761.42
476233,4762.33
476324,4763.24
476426,4764.26
476534,4765.34
476634,4766.34
476724,4767.24
476823,4768.23
476923,4769.23
477020,4770.2
477110,4771.1
477196,4771.96
477296,4772.96
477397,4773.97
477496,4774.96
477588,4775.88
477679,4776.79
477770,4777.7
477867,4778.67
477962,4779.62
478051,4780.51
478135,4781.35
478226,4782.26
478327,4783.27
478426,4784.26
478517,4785.17
478606,4786.06
478696,4786.96
478793,4787.93
478889,4788.89
478977,4789.77
479064,4790.64
479154,4791.54
479253,4792.53
479348,4793.48
479441,4794.41
479535,4795.35
479629,4796.29
479727,4797.27
479821,4798.21
479911,4799.11
479999,4799.99
480099,4800.99
480201,4802.01
480302,4803.02
480394,4803.94
480488,4804.88
480582,4805.82
480681,4806.81
480776,4807.76
480867,4808.67
480957,4809.57
481054,4810.54
481157,4811.57
481253,4812.53
481343,4813.43
481440,4814.4
481538,4815.38
481639,4816.39
481731,4817.31
481818,4818.18
481911,4819.11
482014,4820.14
482117,4821.17
482212,4822.12
482306,4823.06
482400,4824.0
482499,4824.99
482597,4825.97
482687,4826.87
482775,4827.75
482865,4828.65
482964,4829.64
483064,4830.64
483155,4831.55
483246,4832.46
483337,4833.37
483434,4834.34
483531,4835.31
483621,4836.21
483711,4837.11
483804,4838.04
483908,4839.08
484010,4840.1
484100,4841.0
484196,4841.96
484293,4842.93
484394,4843.94
484492,4844.92
484585,4845.85
484673,4846.73
484768,4847.68
484868,4848.68
484962,4849.62
485053,4850.53
485144,4851.44
485245,4852.45
485350,4853.5
485447,4854.47
485537,4855.37
485627,4856.27
485722,4857.22
485824,4858.24
485916,4859.16
486005,4860.05
486096,4860.96
486193,4861.93
486298,4862.98
486399,4863.99
486491,4864.91
486583,4865.83
486675,4866.75
486773,4867.73
486869,4868.69
486957,4869.57
487042,4870.42
487130,4871.3
487228,4872.28
487324,4873.24
487414,4874.14
487506,4875.06
487598,4875.98
487695,4876.95
487792,4877.92
487882,4878.82
487969,4879.69
488067,4880.67
488165,4881.65
488264,4882.64
488354,4883.54
488444,4884.44
488535,4885.35
488633,4886.33
488729,4887.29
488818,4888.18
488906,4889.06
489000,4890.0
489101,4891.01
489205,4892.05
489296,4892.96
489386,4893.86
489476,4894.76
489570,4895.7
489664,4896.64
489752,4897.52
489837,4898.37
489922,4899.22
490011,4900.11
490111,4901.11
490205,4902.05
490294,4902.94
490384,4903.84
490477,4904.77
490575,4905.75
490665,4906.65
490839,4908.39
491013,4910.13
491103,4911.03
491188,4911.88
491271,4912.71
491360,4913.6
491460,4914.6
491558,4915.58
491649,4916.49
491746,4917.46
491843,4918.43
491942,4919.42
492031,4920.31
492122,4921.22
492214,4922.14
492316,4923.16
492418,4924.18
492512,4925.12
492601,4926.01
492690,4926.9
492782,4927.82
492875,4928.75
492969,4929.69
493057,4930.57
493144,4931.44
493237,4932.37
493336,4933.36
493436,4934.36
493525,4935.25
493614,4936.14
493703,4937.03
493797,4937.97
493893,4938.93
493983,4939.83
494069,4940.69
494160,4941.6
494259,4942.59
494360,4943.6
494453,4944.53
494542,4945.42
494632,4946.32
494725,4947.25
494814,4948.14
494902,4949.02
494987,4949.87
495073,4950.73
495165,4951.65
495261,4952.61
495350,4953.5
495480,4954.8
495610,4956.1
495714,4957.14
495811,4958.11
495901,4959.01
495987,4959.87
496077,4960.77
496174,4961.74
496266,4962.66
496356,4963.56
496447,4964.47
496540,4965.4
496639,4966.39
496730,4967.3
496819,4968.19
496906,4969.06
497002,4970.02
497098,4970.98
497192,4971.92
497283,4972.83
497375,4973.75
497477,4974.77
497578,4975.78
497674,4976.74
497765,4977.65
497855,4978.55
497948,4979.48
498050,4980.5
498145,4981.45
498234,4982.34
498324,4983.24
498416,4984.16
498511,4985.11
498605,4986.05
498692,4986.92
498777,4987.77
498867,4988.67
498967,4989.67
499068,4990.68
499162,4991.62
499252,4992.52
499343,4993.43
499440,4994.4
499540,4995.4
499629,4996.29
499716,4997.16
499803,4998.03
499895,4998.95
499995,4999.95
500091,5000.91
500181,5001.81
500272,5002.72
500364,5003.64
500459,5004.59
500552,5005.52
500640,5006.4
500727,5007.27
500818,5008.18
500919,5009.19
501020,5010.2
501112,5011.12
501202,5012.02
501293,5012.93
501386,5013.86
501479,5014.79
501569,5015.69
501657,5016.57
501746,5017.46
501844,5018.44
501944,5019.44
502043,5020.43
502133,5021.33
502227,5022.27
502321,5023.21
502419,5024.19
502507,5025.07
502593,5025.93
502684,5026.84
502782,5027.82
502883,5028.83
502976,5029.76
503070,5030.7
503165,5031.65
503268,5032.68
503367,5033.67
503457,5034.57
503547,5035.47
503639,5036.39
503740,5037.4
503842,5038.42
503933,5039.33
504024,5040.24
504115,5041.15
504211,5042.11
504300,5043.0
504387,5043.87
504477,5044.77
504576,5045.76
504677,5046.77
504772,5047.72
504865,5048.65
504958,5049.58
505054,5050.54
505154,5051.54
505247,5052.47
505336,5053.36
505423,5054.23
505518,5055.18
505620,5056.2
505717,5057.17
505810,5058.1
505903,5059.03
506003,5060.03
506103,5061.03
506197,5061.97
506286,5062.86
506374,5063.74
506465,5064.65
506563,5065.63
506653,5066.53
506740,5067.4
506827,5068.27
506916,5069.16
507011,5070.11
507112,5071.12
507201,5072.01
507289,5072.89
507380,5073.8
507479,5074.79
507578,5075.78
507670,5076.7
507760,5077.6
507851,5078.51
507945,5079.45
508039,5080.39
508132,5081.32
508220,5082.2
508307,5083.07
508400,5084.0
508501,5085.01
508601,5086.01
508691,5086.91
508782,5087.82
508874,5088.74
508966,5089.66
509053,5090.53
509141,5091.41
509274,5092.74
509407,5094.07
509504,5095.04
509591,5095.91
509677,5096.77
509775,5097.75
509875,5098.75
509977,5099.77
510074,5100.74
510172,5101.72
510272,5102.72
510372,5103.72
510465,5104.65
510558,5105.58
510646,5106.46
510735,5107.35
510830,5108.3
510924,5109.24
511011,5110.11
511097,5110.97
511188,5111.88
511287,5112.87
511388,5113.88
511481,5114.81
511574,5115.74
511667,5116.67
511765,5117.65
511856,5118.56
511943,5119.43
512028,5120.28
512119,5121.19
512218,5122.18
512314,5123.14
512402,5124.02
512499,5124.99
512597,5125.97
512697,5126.97
512789,5127.89
512878,5128.78
512973,5129.73
513074,5130.74
513167,5131.67
513258,5132.58
513351,5133.51
513449,5134.49
513548,5135.48
513643,5136.43
513731,5137.31
513820,5138.2
513908,5139.08
513998,5139.98
514089,5140.89
514175,5141.75
514259,5142.59
514348,5143.48
514448,5144.48
514548,5145.48
514638,5146.38
514732,5147.32
514827,5148.27
514922,5149.22
515011,5150.11
515099,5150.99
515190,5151.9
515293,5152.93
515396,5153.96
515491,5154.91
515586,5155.86
515681,5156.81
515781,5157.81
515875,5158.75
515965,5159.65
516051,5160.51
516150,5161.5
516252,5162.52
516355,5163.55
516449,5164.49
516547,5165.47
516646,5166.46
516748,5167.48
516844,5168.44
516935,5169.35
517023,5170.23
517116,5171.16
517221,5172.21
517320,5173.2
517411,5174.11
517502,5175.02
517594,5175.94
517690,5176.9
517784,5177.84
517872,5178.72
517958,5179.58
518047,5180.47
518146,5181.46
518245,5182.45
518338,5183.38
518429,5184.29
518521,5185.21
518613,5186.13
518707,5187.07
518799,5187.99
518887,5188.87
518973,5189.73
519062,5190.62
519159,5191.59
519250,5192.5
519337,5193.37
519426,5194.26
519515,5195.15
519612,5196.12
519703,5197.03
519793,5197.93
519881,5198.81
519980,5199.8
520080,5200.8
520176,5201.76
520267,5202.67
520359,5203.59
520462,5204.62
520567,5205.67
520662,5206.62
520753,5207.53
520844,5208.44
520940,5209.4
521037,5210.37
521128,5211.28
521215,5212.15
521301,5213.01
521398,5213.98
521497,5214.97
521598,5215.98
521692,5216.92
521784,5217.84
521876,5218.76
521976,5219.76
522073,5220.73
522164,5221.64
522252,5222.52
522342,5223.42
522436,5224.36
522535,5225.35
522624,5226.24
522715,5227.15
522806,5228.06
522897,5228.97
522986,5229.86
523077,5230.77
523165,5231.65
523250,5232.5
523347,5233.47
523446,5234.46
523546,5235.46
523637,5236.37
523732,5237.32
523828,5238.28
523927,5239.27
524018,5240.18
524104,5241.04
524193,5241.93
524292,5242.92
524389,5243.89
524479,5244.79
524567,5245.67
524656,5246.56
524750,5247.5
524846,5248.46
524938,5249.38
525026,5250.26
525113,5251.13
525207,5252.07
525303,5253.03
525404,5254.04
525496,5254.96
525586,5255.86
525676,5256.76
525767,5257.67
525859,5258.59
525956,5259.56
526045,5260.45
526133,5261.33
526224,5262.24
526323,5263.23
526413,5264.13
526502,5265.02
526591,5265.91
526687,5266.87
526780,5267.8
526869,5268.69
526954,5269.54
527042,5270.42
527136,5271.36
527230,5272.3
527318,5273.18
527408,5274.08
527499,5274.99
527593,5275.93
527684,5276.84
527771,5277.71
527860,5278.6
527954,5279.54
528055,5280.55
528156,5281.56
528248,5282.48
528343,5283.43
528439,5284.39
528535,5285.35
528627,5286.27
528718,5287.18
528806,5288.06
528898,5288.98
529000,5290.0
529098,5290.98
529190,5291.9
529281,5292.81
529378,5293.78
529481,5294.81
529577,5295.77
529666,5296.66
529755,5297.55
529848,5298.48
529942,5299.42
530039,5300.39
530130,5301.3
530217,5302.17
530307,5303.07
530406,5304.06
530504,5305.04
530594,5305.94
530681,5306.81
530769,5307.69
530860,5308.6
530956,5309.56
531051,5310.51
531140,5311.4
531226,5312.26
531318,5313.18
531418,5314.18
531514,5315.14
531604,5316.04
531692,5316.92
531781,5317.81
531873,5318.73
531974,5319.74
532062,5320.62
532148,5321.48
532237,5322.37
532335,5323.35
532434,5324.34
532524,5325.24
532613,5326.13
532703,5327.03
532801,5328.01
532897,5328.97
532988,5329.88
533077,5330.77
533169,5331.69
533266,5332.66
533368,5333.68
533462,5334.62
533553,5335.53
533645,5336.45
533743,5337.43
533837,5338.37
533924,5339.24
534011,5340.11
534104,5341.04
534203,5342.03
534298,5342.98
534388,5343.88
534476,5344.76
534565,5345.65
534658,5346.58
534751,5347.51
534839,5348.39
534926,5349.26
535015,5350.15
535115,5351.15
535210,5352.1
535301,5353.01
535390,5353.9
535479,5354.79
535572,5355.72
535669,5356.69
535759,5357.59
535847,5358.47
535940,5359.4
536038,5360.38
536135,5361.35
536225,5362.25
536316,5363.16
536407,5364.07
536501,5365.01
536589,5365.89
536674,5366.74
536761,5367.61
536856,5368.56
536956,5369.56
537052,5370.52
537141,5371.41
537232,5372.32
537324,5373.24
537419,5374.19
537511,5375.11
537598,5375.98
537685,5376.85
537773,5377.73
537864,5378.64
537962,5379.62
538053,5380.53
538141,5381.41
538229,5382.29
538320,5383.2
538418,5384.18
538507,5385.07
538594,5385.94
538692,5386.92
538790,5387.9
538890,5388.9
538981,5389.81
539070,5390.7
539158,5391.58
539251,5392.51
539352,5393.52
539452,5394.52
539543,5395.43
539639,5396.39
539736,5397.36
539839,5398.39
539931,5399.31
540020,5400.2
540120,5401.2
540221,5402.21
540322,5403.22
540412,5404.12
540505,5405.05
540598,5405.98
540695,5406.95
540789,5407.89
540878,5408.78
540967,5409.67
541070,5410.7
541170,5411.7
541267,5412.67
541357,5413.57
541448,5414.48
541539,5415.39
541633,5416.33
541724,5417.24
541809,5418.09
541892,5418.92
541984,5419.84
542077,5420.77
542177,5421.77
542270,5422.7
542358,5423.58
542446,5424.46
542537,5425.37
542637,5426.37
542725,5427.25
542813,5428.13
542911,5429.11
543011,5430.11
543114,5431.14
543207,5432.07
543298,5432.98
543390,5433.9
543489,5434.89
543587,5435.87
543678,5436.78
543764,5437.64
543857,5438.57
543953,5439.53
544048,5440.48
544137,5441.37
544229,5442.29
544322,5443.22
544410,5444.1
544497,5444.97
544584,5445.84
544674,5446.74
544768,5447.68
544858,5448.58
544947,5449.47
545035,5450.35
545133,5451.33
545233,5452.33
545329,5453.29
545424,5454.24
545515,5455.15
545618,5456.18
545719,5457.19
545813,5458.13
545906,5459.06
545999,5459.99
546093,5460.93
546186,5461.86
546275,5462.75
546364,5463.64
546459,5464.59
546562,5465.62
546664,5466.64
546756,5467.56
546852,5468.52
546949,5469.49
547039,5470.39
547126,5471.26
547210,5472.1
547299,5472.99
547400,5474.0
547495,5474.95
547587,5475.87
547677,5476.77
547777,5477.77
547879,5478.79
547974,5479.74
548064,5480.64
548155,5481.55
548251,5482.51
548347,5483.47
548441,5484.41
548529,5485.29
548617,5486.17
548711,5487.11
548811,5488.11
548906,5489.06
548995,5489.95
549083,5490.83
549171,5491.71
549262,5492.62
549355,5493.55
549445,5494.45
549530,5495.3
549614,5496.14
549704,5497.04
549802,5498.02
549893,5498.93
549982,5499.82
550073,5500.73
550164,5501.64
550259,5502.59
550355,5503.55
550443,5504.43
550530,5505.3
550625,5506.25
550724,5507.24
550820,5508.2
550911,5509.11
551006,5510.06
551101,5511.01
551196,5511.96
551286,5512.86
551374,5513.74
551462,5514.62
551560,5515.6
551661,5516.61
551764,5517.64
551860,5518.6
551955,5519.55
552050,5520.5
552150,5521.5
552244,5522.44
552335,5523.35
552424,5524.24
552523,5525.23
552625,5526.25
552723,5527.23
552818,5528.18
552912,5529.12
553006,5530.06
553101,5531.01
553188,5531.88
553274,5532.74
553363,5533.63
553462,5534.62
553550,5535.5
553637,5536.37
553725,5537.25
553818,5538.18
553920,5539.2
554020,5540.2
554110,5541.1
554201,5542.01
554293,5542.93
554388,5543.88
554486,5544.86
554579,5545.79
554668,5546.68
554760,5547.6
554862,5548.62
554964,5549.64
555061,5550.61
555154,5551.54
555247,5552.47
555342,5553.42
555429,5554.29
555515,5555.15
555608,5556.08
555707,5557.07
555802,5558.02
555891,5558.91
555985,5559.85
556080,5560.8
556173,5561.73
556261,5562.61
556348,5563.48
556441,5564.41
556541,5565.41
556635,5566.35
556727,5567.27
556828,5568.28
556931,5569.31
557030,5570.3
557120,5571.2
557207,5572.07
557299,5572.99
557398,5573.98
557486,5574.86
557582,5575.82
557682,5576.82
557775,5577.75
557872,5578.72
557967,5579.67
558054,5580.54
558139,5581.39
558226,5582.26
558321,5583.21
558421,5584.21
558512,5585.12
558601,5586.01
558691,5586.91
558784,5587.84
558884,5588.84
558973,5589.73
559062,5590.62
559163,5591.63
559266,5592.66
559366,5593.66
559459,5594.59
559556,5595.56
559653,5596.53
559751,5597.51
559844,5598.44
559931,5599.31
560017,5600.17
560110,5601.1
560209,5602.09
560307,5603.07
560396,5603.96
560486,5604.86
560577,5605.77
560677,5606.77
560777,5607.77
560867,5608.67
560956,5609.56
561047,5610.47
561143,5611.43
561243,5612.43
561335,5613.35
561424,5614.24
561513,5615.13
561610,5616.1
561706,5617.06
561797,5617.97
561885,5618.85
561974,5619.74
562068,5620.68
562171,5621.71
562266,5622.66
562355,5623.55
562445,5624.45
562538,5625.38
562634,5626.34
562727,5627.27
562814,5628.14
562904,5629.04
563002,5630.02
563103,5631.03
563208,5632.08
563302,5633.02
563393,5633.93
563485,5634.85
563579,5635.79
563667,5636.67
563754,5637.54
563852,5638.52
563953,5639.53
564054,5640.54
564153,5641.53
564258,5642.58
564367,5643.67
564468,5644.68
564560,5645.6
564653,5646.53
564750,5647.5
564849,5648.49
564940,5649.4
565028,5650.28
565120,5651.2
565216,5652.16
565319,5653.19
565415,5654.15
565506,5655.06
565598,5655.98
565693,5656.93
565786,5657.86
565876,5658.76
565962,5659.62
566052,5660.52
566147,5661.47
566248,5662.48
566342,5663.42
566431,5664.31
566521,5665.21
566614,5666.14
566705,5667.05
566794,5667.94
566879,5668.79
566968,5669.68
567063,5670.63
567164,5671.64
567262,5672.62
567352,5673.52
567441,5674.41
567542,5675.42
567645,5676.45
567748,5677.48
567839,5678.39
567932,5679.32
568025,5680.25
568120,5681.2
568213,5682.13
568299,5682.99
568386,5683.86
568483,5684.83
568586,5685.86
568683,5686.83
568773,5687.73
568869,5688.69
568965,5689.65
569059,5690.59
569149,5691.49
569235,5692.35
569319,5693.19
569410,5694.1
569512,5695.12
569616,5696.16
569713,5697.13
569808,5698.08
569903,5699.03
570007,5700.07
570107,5701.07
570199,5701.99
570288,5702.88
570383,5703.83
570488,5704.88
570593,5705.93
570715,5707.15
570837,5708.37
570935,5709.35
571033,5710.33
571131,5711.31
571221,5712.21
571310,5713.1
571400,5714.0
571499,5714.99
571592,5715.92
571681,5716.81
571774,5717.74
571874,5718.74
571976,5719.76
572073,5720.73
572164,5721.64
572262,5722.62
572360,5723.6
572466,5724.66
572562,5725.62
572652,5726.52
572739,5727.39
572833,5728.33
572936,5729.36
573039,5730.39
573138,5731.38
573229,5732.29
573321,5733.21
573419,5734.19
573516,5735.16
573614,5736.14
573708,5737.08
573796,5737.96
573890,5738.9
573993,5739.93
574094,5740.94
574189,5741.89
574278,5742.78
574367,5743.67
574457,5744.57
574558,5745.58
574652,5746.52
574740,5747.4
574829,5748.29
574923,5749.23
575020,5750.2
575110,5751.1
575197,5751.97
575285,5752.85
575375,5753.75
575470,5754.7
575565,5755.65
575653,5756.53
575741,5757.41
575834,5758.34
575934,5759.34
576034,5760.34
576126,5761.26
576220,5762.2
576315,5763.15
576415,5764.15
576509,5765.09
576599,5765.99
576687,5766.87
576788,5767.88
576892,5768.92
576997,5769.97
577091,5770.91
577184,5771.84
577278,5772.78
577381,5773.81
577482,5774.82
577580,5775.8
577671,5776.71
577766,5777.66
577864,5778.64
577967,5779.67
578060,5780.6
578151,5781.51
578243,5782.43
578340,5783.4
578435,5784.35
578525,5785.25
578613,5786.13
578705,5787.05
578807,5788.07
578908,5789.08
579000,5790.0
579094,5790.94
579189,5791.89
579284,5792.84
579374,5793.74
579461,5794.61
579555,5795.55
579656,5796.56
579750,5797.5
579839,5798.39
579929,5799.29
580020,5800.2
580112,5801.12
580199,5801.99
580282,5802.82
580366,5803.66
580454,5804.54
580554,5805.54
580655,5806.55
580748,5807.48
580842,5808.42
580936,5809.36
581031,5810.31
581122,5811.22
581210,5812.1
581303,5813.03
581404,5814.04
581500,5815.0
581592,5815.92
581682,5816.82
581782,5817.82
581883,5818.83
581986,5819.86
582077,5820.77
582168,5821.68
582260,5822.6
582359,5823.59
582454,5824.54
582545,5825.45
582634,5826.34
582729,5827.29
582833,5828.33
582935,5829.35
583028,5830.28
583119,5831.19
583210,5832.1
583306,5833.06
583399,5833.99
583488,5834.88
583572,5835.72
583659,5836.59
583751,5837.51
583845,5838.45
583932,5839.32
584019,5840.19
584106,5841.06
584196,5841.96
584289,5842.89
584381,5843.81
584468,5844.68
584558,5845.58
584658,5846.58
584761,5847.61
584863,5848.63
584957,5849.57
585055,5850.55
585153,5851.53
585253,5852.53
585346,5853.46
585434,5854.34
585526,5855.26
585628,5856.28
585730,5857.3
585831,5858.31
585921,5859.21
586015,5860.15
586110,5861.1
586204,5862.04
586297,5862.97
586386,5863.86
586473,5864.73
586570,5865.7
586670,5866.7
586772,5867.72
586863,5868.63
586956,5869.56
587050,5870.5
587147,5871.47
587246,5872.46
587337,5873.37
587426,5874.26
587523,5875.23
587626,5876.26
587730,5877.3
587822,5878.22
587914,5879.14
588007,5880.07
588102,5881.02
588198,5881.98
588288,5882.88
588378,5883.78
588481,5884.81
588582,5885.82
588679,5886.79
588768,5887.68
588857,5888.57
588953,5889.53
589053,5890.53
589146,5891.46
589236,5892.36
589329,5893.29
589431,5894.31
589532,5895.32
589629,5896.29
589720,5897.2
589811,5898.11
589914,5899.14
590013,5900.13
590105,5901.05
590194,5901.94
590286,5902.86
590378,5903.78
590477,5904.77
590570,5905.7
590657,5906.57
590745,5907.45
590837,5908.37
590932,5909.32
591027,5910.27
591117,5911.17
591207,5912.07
591303,5913.03
591403,5914.03
591496,5914.96
591585,5915.85
591674,5916.74
591768,5917.68
591859,5918.59
591948,5919.48
592032,5920.32
592114,5921.14
592199,5921.99
592292,5922.92
592386,5923.86
592474,5924.74
592565,5925.65
592657,5926.57
592755,5927.55
592852,5928.52
592941,5929.41
593029,5930.29
593121,5931.21
593219,5932.19
593320,5933.2
593410,5934.1
593501,5935.01
593593,5935.93
593690,5936.9
593787,5937.87
593879,5938.79
593969,5939.69
594062,5940.62
594159,5941.59
594258,5942.58
594349,5943.49
594441,5944.41
594533,5945.33
594633,5946.33
594730,5947.3
594822,5948.22
594911,5949.11
594998,5949.98
595088,5950.88
595183,5951.83
595276,5952.76
595367,5953.67
595458,5954.58
595549,5955.49
595644,5956.44
595735,5957.35
595823,5958.23
595916,5959.16
596015,5960.15
596114,5961.14
596206,5962.06
596297,5962.97
596388,5963.88
596482,5964.82
596570,5965.7
596656,5966.56
596743,5967.43
596835,5968.35
596934,5969.34
597027,5970.27
597115,5971.15
597207,5972.07
597300,5973.0
597399,5973.99
597494,5974.94
597582,5975.82
597667,5976.67
597754,5977.54
597847,5978.47
597939,5979.39
598028,5980.28
598114,5981.14
598201,5982.01
598289,5982.89
598382,5983.82
598470,5984.7
598556,5985.56
598648,5986.48
598749,5987.49
598851,5988.51
598946,5989.46
599038,5990.38
599130,5991.3
599227,5992.27
599322,5993.22
599412,5994.12
599499,5994.99
599583,5995.83
599671,5996.71
599765,5997.65
599858,5998.58
599945,5999.45
600033,6000.33
600122,6001.22
600216,6002.16
600316,6003.16
600409,6004.09
600502,6005.02
600594,6005.94
600691,6006.91
600795,6007.95
600896,6008.96
600987,6009.87
601078,6010.78
601175,6011.75
601270,6012.7
601360,6013.6
601447,6014.47
601539,6015.39
601637,6016.37
601734,6017.34
601824,6018.24
601912,6019.12
602001,6020.01
602092,6020.92
602184,6021.84
602270,6022.7
602356,6023.56
602446,6024.46
602544,6025.44
602642,6026.42
602737,6027.37
602824,6028.24
602912,6029.12
603000,6030.0
603087,6030.87
603175,6031.75
603259,6032.59
603343,6033.43
603434,6034.34
603532,6035.32
603624,6036.24
603715,6037.15
603806,6038.06
603897,6038.97
603990,6039.9
604079,6040.79
604162,6041.62
604246,6042.46
604329,6043.29
604410,6044.1
604490,6044.9
604570,6045.7
604647,6046.47
604723,6047.23
604796,6047.96
604870,6048.7
604944,6049.44
605016,6050.16
605088,6050.88
605159,6051.59
605231,6052.31
605302,6053.02
605372,6053.72
605436,6054.36
605501,6055.01
605575,6055.75
605650,6056.5
605718,6057.18
605786,6057.86
605854,6058.54
605921,6059.21
605988,6059.88
606053,6060.53
606120,6061.2
606186,6061.86
606253,6062.53
606319,6063.19
606386,6063.86
606452,6064.52
606520,6065.2
606589,6065.89
606658,6066.58
606727,6067.27
606799,6067.99
606874,6068.74
606952,6069.52
607027,6070.27
607102,6071.02
607179,6071.79
607258,6072.58
607338,6073.38
607417,6074.17
607496,6074.96
607573,6075.73
607651,6076.51
607728,6077.28
607806,6078.06
607889,6078.89
607966,6079.66
608043,6080.43
608119,6081.19
608195,6081.95
608274,6082.74
608354,6083.54
608431,6084.31
608508,6085.08
608585,6085.85
608673,6086.73
608762,6087.62
608843,6088.43
608926,6089.26
609008,6090.08
609089,6090.89
609171,6091.71
609290,6092.9
609409,6094.09
609484,6094.84
609562,6095.62
609639,6096.39
609716,6097.16
609795,6097.95
609881,6098.81
609966,6099.66
610058,6100.58
610151,6101.51
610247,6102.47
610333,6103.33
610413,6104.13
610492,6104.92
610571,6105.71
610653,6106.53
610735,6107.35
610811,6108.11
610888,6108.88
610962,6109.62
611035,6110.35
611111,6111.11
611190,6111.9
611267,6112.67
611342,6113.42
611417,6114.17
611496,6114.96
611578,6115.78
611656,6116.56
611735,6117.35
611812,6118.12
611890,6118.9
611963,6119.63
612035,6120.35
612106,6121.06
612176,6121.76
612246,6122.46
612317,6123.17
612382,6123.82
612464,6124.64
612546,6125.46
612622,6126.22
612699,6126.99
612778,6127.78
612833,6128.33
612888,6128.88
612945,6129.45
612997,6129.97
613074,6130.74
613151,6131.51
613217,6132.17
613283,6132.83
613345,6133.45
613408,6134.08
613459,6134.59
613510,6135.1
613574,6135.74
613643,6136.43
613713,6137.13
613780,6137.8
613848,6138.48
613917,6139.17
613989,6139.89
614064,6140.64
614135,6141.35
614213,6142.13
614292,6142.92
614371,6143.71
614447,6144.47
614522,6145.22
614602,6146.02
614679,6146.79
614757,6147.57
614838,6148.38
614922,6149.22
615007,6150.07
615093,6150.93
615175,6151.75
615261,6152.61
615341,6153.41
615422,6154.22
615507,6155.07
615595,6155.95
615680,6156.8
615761,6157.61
615843,6158.43
615925,6159.25
616004,6160.04
616082,6160.82
616159,6161.59
616236,6162.36
616315,6163.15
616401,6164.01
616480,6164.8
616561,6165.61
616642,6166.42
616723,6167.23
616806,6168.06
616887,6168.87
616967,6169.67
617047,6170.47
617128,6171.28
617212,6172.12
617294,6172.94
617374,6173.74
617455,6174.55
617535,6175.35
617613,6176.13
617689,6176.89
617764,6177.64
617843,6178.43
617929,6179.29
618010,6180.1
618093,6180.93
618184,6181.84
618276,6182.76
618363,6183.63
618450,6184.5
618532,6185.32
618612,6186.12
618694,6186.94
618785,6187.85
618877,6188.77
618965,6189.65
619050,6190.5
619135,6191.35
619226,6192.26
619321,6193.21
619413,6194.13
619502,6195.02
619587,6195.87
619670,6196.7
619754,6197.54
619842,6198.42
619930,6199.3
620014,6200.14
620100,6201.0
620185,6201.85
620272,6202.72
620362,6203.62
620453,6204.53
620539,6205.39
620623,6206.23
620708,6207.08
620798,6207.98
620889,6208.89
620978,6209.78
621065,6210.65
621152,6211.52
621239,6212.39
621327,6213.27
621418,6214.18
621505,6215.05
621590,6215.9
621677,6216.77
621773,6217.73
621863,6218.63
621952,6219.52
622039,6220.39
622127,6221.27
622214,6222.14
622299,6222.99
622378,6223.78
622458,6224.58
622539,6225.39
622622,6226.22
622704,6227.04
622785,6227.85
622866,6228.66
622952,6229.52
623036,6230.36
623119,6231.19
623201,6232.01
623284,6232.84
623366,6233.66
623449,6234.49
623532,6235.32
623612,6236.12
623694,6236.94
623777,6237.77
623864,6238.64
623954,6239.54
624043,6240.43
624130,6241.3
624221,6242.21
624312,6243.12
624391,6243.91
624470,6244.7
624588,6245.88
624711,6247.11
624798,6247.98
624885,6248.85
624977,6249.77
625067,6250.67
625158,6251.58
625254,6252.54
625350,6253.5
625440,6254.4
625526,6255.26
625614,6256.14
625702,6257.02
625790,6257.9
625878,6258.78
625964,6259.64
626052,6260.52
626151,6261.51
626250,6262.5
626350,6263.5
626447,6264.47
626544,6265.44
626646,6266.46
626748,6267.48
626846,6268.46
626944,6269.44
627030,6270.3
627114,6271.14
627207,6272.07
627305,6273.05
627398,6273.98
627487,6274.87
627576,6275.76
627667,6276.67
627769,6277.69
627871,6278.71
627967,6279.67
628063,6280.63
628158,6281.58
628250,6282.5
628340,6283.4
628427,6284.27
628513,6285.13
628603,6286.03
628702,6287.02
628799,6287.99
628888,6288.88
628974,6289.74
629060,6290.6
629144,6291.44
629227,6292.27
629308,6293.08
629389,6293.89
629472,6294.72
629561,6295.61
629659,6296.59
629756,6297.56
629848,6298.48
629947,6299.47
630047,6300.47
630147,6301.47
630238,6302.38
630329,6303.29
630417,6304.17
630504,6305.04
630597,6305.97
630688,6306.88
630775,6307.75
630860,6308.6
630946,6309.46
631035,6310.35
631128,6311.28
631218,6312.18
631309,6313.09
631399,6313.99
631489,6314.89
631575,6315.75
631655,6316.55
631735,6317.35
631812,6318.12
631888,6318.88
631963,6319.63
632036,6320.36
632112,6321.12
632189,6321.89
632268,6322.68
632345,6323.45
632422,6324.22
632503,6325.03
632588,6325.88
632673,6326.73
632756,6327.56
632837,6328.37
632917,6329.17
632994,6329.94
633071,6330.71
633155,6331.55
633242,6332.42
633329,6333.29
633416,6334.16
633497,6334.97
633577,6335.77
633659,6336.59
633749,6337.49
633841,6338.41
633938,6339.38
634029,6340.29
634117,6341.17
634213,6342.13
634312,6343.12
634419,6344.19
634523,6345.23
634618,6346.18
634713,6347.13
634812,6348.12
634909,6349.09
635010,6350.1
635110,6351.1
635204,6352.04
635305,6353.05
635412,6354.12
635524,6355.24
635627,6356.27
635723,6357.23
635815,6358.15
635912,6359.12
636008,6360.08
636100,6361.0
636186,6361.86
636274,6362.74
636373,6363.73
636462,6364.62
636552,6365.52
636642,6366.42
636740,6367.4
636837,6368.37
636934,6369.34
637025,6370.25
637117,6371.17
637221,6372.21
637330,6373.3
637439,6374.39
637539,6375.39
637634,6376.34
637736,6377.36
637844,6378.44
637956,6379.56
638058,6380.58
638154,6381.54
638257,6382.57
638368,6383.68
638482,6384.82
638583,6385.83
638684,6386.84
638782,6387.82
638884,6388.84
638985,6389.85
639079,6390.79
639173,6391.73
639272,6392.72
639375,6393.75
639472,6394.72
639569,6395.69
639661,6396.61
639757,6397.57
639856,6398.56
639951,6399.51
640046,6400.46
640145,6401.45
640247,6402.47
640352,6403.52
640449,6404.49
640543,6405.43
640648,6406.48
640755,6407.55
640854,6408.54
640946,6409.46
641037,6410.37
641136,6411.36
641237,6412.37
641334,6413.34
641429,6414.29
641531,6415.31
641639,6416.39
641751,6417.51
641855,6418.55
641958,6419.58
642064,6420.64
642172,6421.72
642272,6422.72
642366,6423.66
642463,6424.63
642571,6425.71
642683,6426.83
642787,6427.87
642884,6428.84
642982,6429.82
643083,6430.83
643182,6431.82
643273,6432.73
643365,6433.65
643452,6434.52
643538,6435.38
643625,6436.25
643707,6437.07
643788,6437.88
643872,6438.72
643958,6439.58
644045,6440.45
644128,6441.28
644213,6442.13
644298,6442.98
644380,6443.8
644462,6444.62
644548,6445.48
644640,6446.4
644736,6447.36
644828,6448.28
644922,6449.22
645029,6450.29
645146,6451.46
645265,6452.65
645375,6453.75
645475,6454.75
645572,6455.72
645669,6456.69
645762,6457.62
645851,6458.51
645935,6459.35
646016,6460.16
646099,6460.99
646183,6461.83
646268,6462.68
646358,6463.58
646447,6464.47
646536,6465.36
646634,6466.34
646728,6467.28
646822,6468.22
646915,6469.15
647008,6470.08
647111,6471.11
647217,6472.17
647326,6473.26
647431,6474.31
647536,6475.36
647634,6476.34
647738,6477.38
647843,6478.43
647946,6479.46
648038,6480.38
648125,6481.25
648213,6482.13
648298,6482.98
648387,6483.87
648491,6484.91
648595,6485.95
648697,6486.97
648804,6488.04
648917,6489.17
649034,6490.34
649149,6491.49
649255,6492.55
649362,6493.62
649470,6494.7
649575,6495.75
649675,6496.75
649764,6497.64
649849,6498.49
649930,6499.3
650015,6500.15
650112,6501.12
650212,6502.12
650312,6503.12
650418,6504.18
650533,6505.33
650650,6506.5
650765,6507.65
650873,6508.73
650985,6509.85
651105,6511.05
651227,6512.27
651340,6513.4
651447,6514.47
651563,6515.63
651679,6516.79
651791,6517.91
651892,6518.92
651985,6519.85
652079,6520.79
652168,6521.68
652254,6522.54
652338,6523.38
652423,6524.23
652507,6525.07
652593,6525.93
652685,6526.85
652780,6527.8
652878,6528.78
652974,6529.74
653079,6530.79
653185,6531.85
653299,6532.99
653411,6534.11
653517,6535.17
653624,6536.24
653735,6537.35
653846,6538.46
653956,6539.56
654058,6540.58
654158,6541.58
654258,6542.58
654365,6543.65
654475,6544.75
654580,6545.8
654684,6546.84
654794,6547.94
654909,6549.09
655019,6550.19
655123,6551.23
655228,6552.28
655336,6553.36
655439,6554.39
655535,6555.35
655633,6556.33
655737,6557.37
655844,6558.44
655944,6559.44
656046,6560.46
656148,6561.48
656254,6562.54
656354,6563.54
656450,6564.5
656553,6565.53
656661,6566.61
656768,6567.68
656869,6568.69
656970,6569.7
657079,6570.79
657191,6571.91
657296,6572.96
657397,6573.97
657502,6575.02
657609,6576.09
657714,6577.14
657807,6578.07
657898,6578.98
657991,6579.91
658085,6580.85
658176,6581.76
658266,6582.66
658357,6583.57
658458,6584.58
658569,6585.69
658678,6586.78
658782,6587.82
658894,6588.94
659007,6590.07
659115,6591.15
659216,6592.16
659319,6593.19
659424,6594.24
659530,6595.3
659628,6596.28
659721,6597.21
659819,6598.19
659920,6599.2
660022,6600.22
660116,6601.16
660208,6602.08
660302,6603.02
660400,6604.0
660501,6605.01
660598,6605.98
660694,6606.94
660797,6607.97
660904,6609.04
661009,6610.09
661107,6611.07
661205,6612.05
661305,6613.05
661407,6614.07
661504,6615.04
661599,6615.99
661695,6616.95
661801,6618.01
661913,6619.13
662020,6620.2
662120,6621.2
662221,6622.21
662321,6623.21
662421,6624.21
662516,6625.16
662608,6626.08
662700,6627.0
662795,6627.95
662895,6628.95
662989,6629.89
663085,6630.85
663182,6631.82
663286,6632.86
663389,6633.89
663485,6634.85
663577,6635.77
663679,6636.79
663786,6637.86
663895,6638.95
663996,6639.96
664097,6640.97
664195,6641.95
664291,6642.91
664386,6643.86
664479,6644.79
664573,6645.73
664670,6646.7
664778,6647.78
664889,6648.89
664991,6649.91
665093,6650.93
665197,6651.97
665304,6653.04
665408,6654.08
665506,6655.06
665601,6656.01
665704,6657.04
665807,6658.07
665906,6659.06
666001,6660.01
666095,6660.95
666196,6661.96
666306,6663.06
666411,6664.11
666513,6665.13
666616,6666.16
666719,6667.19
666817,6668.17
666909,6669.09
666999,6669.99
667092,6670.92
667193,6671.93
667297,6672.97
667392,6673.92
667487,6674.87
667585,6675.85
667688,6676.88
667789,6677.89
667884,6678.84
667978,6679.78
668083,6680.83
668188,6681.88
668293,6682.93
668385,6683.85
668478,6684.78
668573,6685.73
668676,6686.76
668777,6687.77
668873,6688.73
668972,6689.72
669084,6690.84
669202,6692.02
669312,6693.12
669415,6694.15
669518,6695.18
669629,6696.29
669732,6697.32
669830,6698.3
669926,6699.26
670032,6700.32
670141,6701.41
670242,6702.42
670339,6703.39
670437,6704.37
670545,6705.45
670645,6706.45
670741,6707.41
670836,6708.36
670945,6709.45
671057,6710.57
671166,6711.66
671266,6712.66
671363,6713.63
671466,6714.66
671572,6715.72
671669,6716.69
671766,6717.66
671866,6718.66
671971,6719.71
672076,6720.76
672175,6721.75
672278,6722.78
672390,6723.9
672513,6725.13
672622,6726.22
672720,6727.2
672818,6728.18
672919,6729.19
673019,6730.19
673114,6731.14
673209,6732.09
673315,6733.15
673429,6734.29
673542,6735.42
673642,6736.42
673742,6737.42
673850,6738.5
673956,6739.56
674059,6740.59
674154,6741.54
674252,6742.52
674357,6743.57
674462,6744.62
674560,6745.6
674660,6746.6
674760,6747.6
674865,6748.65
674963,6749.63
675060,6750.6
675167,6751.67
675276,6752.76
675388,6753.88
675491,6754.91
675592,6755.92
675693,6756.93
675804,6758.04
675910,6759.1
676006,6760.06
676097,6760.97
676194,6761.94
676300,6763.0
676400,6764.0
676490,6764.9
676581,6765.81
676672,6766.72
676764,6767.64
676859,6768.59
676952,6769.52
677044,6770.44
677147,6771.47
677258,6772.58
677369,6773.69
677465,6774.65
677561,6775.61
677651,6776.51
677741,6777.41
677834,6778.34
677923,6779.23
678014,6780.14
678116,6781.16
678224,6782.24
678332,6783.32
678433,6784.33
678534,6785.34
678636,6786.36
678744,6787.44
678846,6788.46
678943,6789.43
679049,6790.49
679155,6791.55
679262,6792.62
679361,6793.61
679460,6794.6
679559,6795.59
679667,6796.67
679768,6797.68
679864,6798.64
679956,6799.56
680052,6800.52
680152,6801.52
680251,6802.51
680344,6803.44
680442,6804.42
680537,6805.37
680630,6806.3
680722,6807.22
680814,6808.14
680910,6809.1
681006,6810.06
681096,6810.96
681185,6811.85
681278,6812.78
681377,6813.77
681471,6814.71
681565,6815.65
681659,6816.59
681757,6817.57
681854,6818.54
681952,6819.52
682049,6820.49
682144,6821.44
682247,6822.47
682352,6823.52
682457,6824.57
682555,6825.55
682653,6826.53
682755,6827.55
682858,6828.58
682958,6829.58
683056,6830.56
683157,6831.57
683261,6832.61
683357,6833.57
683450,6834.5
683543,6835.43
683639,6836.39
683729,6837.29
683815,6838.15
683899,6838.99
683984,6839.84
684074,6840.74
684164,6841.64
684250,6842.5
684338,6843.38
684426,6844.26
684513,6845.13
684600,6846.0
684688,6846.88
684778,6847.78
684873,6848.73
684968,6849.68
685062,6850.62
685160,6851.6
685258,6852.58
685359,6853.59
685452,6854.52
685544,6855.44
685640,6856.4
685739,6857.39
685831,6858.31
685925,6859.25
686019,6860.19
686112,6861.12
686198,6861.98
686283,6862.83
686364,6863.64
686447,6864.47
686533,6865.33
686618,6866.18
686704,6867.04
686791,6867.91
686875,6868.75
686961,6869.61
687049,6870.49
687138,6871.38
687227,6872.27
687320,6873.2
687422,6874.22
687527,6875.27
687635,6876.35
687740,6877.4
687845,6878.45
687949,6879.49
688046,6880.46
688138,6881.38
688227,6882.27
688322,6883.22
688420,6884.2
688515,6885.15
688603,6886.03
688692,6886.92
688784,6887.84
688874,6888.74
688966,6889.66
689057,6890.57
689150,6891.5
689241,6892.41
689334,6893.34
689427,6894.27
689524,6895.24
689624,6896.24
689721,6897.21
689819,6898.19
689921,6899.21
690023,6900.23
690118,6901.18
690210,6902.1
690302,6903.02
690394,6903.94
690480,6904.8
690564,6905.64
690645,6906.45
690726,6907.26
690809,6908.09
690890,6908.9
690970,6909.7
691050,6910.5
691130,6911.3
691209,6912.09
691287,6912.87
691365,6913.65
691445,6914.45
691525,6915.25
691607,6916.07
691692,6916.92
691778,6917.78
691867,6918.67
691957,6919.57
692053,6920.53
692151,6921.51
692247,6922.47
692340,6923.4
692436,6924.36
692536,6925.36
692639,6926.39
692741,6927.41
692837,6928.37
692933,6929.33
693029,6930.29
693124,6931.24
693220,6932.2
693313,6933.13
693403,6934.03
693494,6934.94
693591,6935.91
693692,6936.92
693796,6937.96
693899,6938.99
693998,6939.98
694097,6940.97
694196,6941.96
694296,6942.96
694399,6943.99
694494,6944.94
694588,6945.88
694688,6946.88
694791,6947.91
694896,6948.96
694996,6949.96
695096,6950.96
695195,6951.95
695293,6952.93
695390,6953.9
695481,6954.81
695571,6955.71
695663,6956.63
695763,6957.63
695861,6958.61
695957,6959.57
696054,6960.54
696146,6961.46
696239,6962.39
696331,6963.31
696425,6964.25
696528,6965.28
696637,6966.37
696750,6967.5
696864,6968.64
696945,6969.45
697027,6970.27
697160,6971.6
697294,6972.94
697402,6974.02
697502,6975.02
697607,6976.07
697718,6977.18
697820,6978.2
697921,6979.21
698022,6980.22
698121,6981.21
698212,6982.12
698302,6983.02
698396,6983.96
698490,6984.9
698599,6985.99
698709,6987.09
698793,6987.93
698877,6988.77
699022,6990.22
699148,6991.48
699249,6992.49
699330,6993.3
699406,6994.06
699484,6994.84
699564,6995.64
699647,6996.47
699732,6997.32
699816,6998.16
699906,6999.06
699996,6999.96
700081,7000.81
700166,7001.66
700251,7002.51
700337,7003.37
700424,7004.24
700508,7005.08
700595,7005.95
700682,7006.82
700767,7007.67
700850,7008.5
700933,7009.33
701018,7010.18
701105,7011.05
701190,7011.9
701275,7012.75
701361,7013.61
701444,7014.44
701524,7015.24
701603,7016.03
701681,7016.81
701759,7017.59
701837,7018.37
701913,7019.13
701990,7019.9
702066,7020.66
702142,7021.42
702218,7022.18
702294,7022.94
702369,7023.69
702444,7024.44
702522,7025.22
702600,7026.0
702679,7026.79
702760,7027.6
702842,7028.42
702921,7029.21
702997,7029.97
703070,7030.7
703140,7031.4
703209,7032.09
703278,7032.78
703347,7033.47
703414,7034.14
703480,7034.8
703547,7035.47
703614,7036.14
703681,7036.81
703747,7037.47
703814,7038.14
703882,7038.82
703951,7039.51
704023,7040.23
704094,7040.94
704165,7041.65
704237,7042.37
704311,7043.11
704387,7043.87
704464,7044.64
704541,7045.41
704616,7046.16
704691,7046.91
704766,7047.66
704841,7048.41
704916,7049.16
704993,7049.93
705070,7050.7
705146,7051.46
705222,7052.22
705299,7052.99
705377,7053.77
705459,7054.59
705543,7055.43
705624,7056.24
705705,7057.05
705787,7057.87
705877,7058.77
705966,7059.66
706056,7060.56
706141,7061.41
706227,7062.27
706311,7063.11
706395,7063.95
706481,7064.81
706566,7065.66
706651,7066.51
706738,7067.38
706824,7068.24
706913,7069.13
707002,7070.02
707085,7070.85
707169,7071.69
707251,7072.51
707334,7073.34
707420,7074.2
707506,7075.06
707592,7075.92
707676,7076.76
707764,7077.64
707852,7078.52
707941,7079.41
708026,7080.26
708112,7081.12
708197,7081.97
708281,7082.81
708362,7083.62
708442,7084.42
708521,7085.21
708601,7086.01
708685,7086.85
708767,7087.67
708849,7088.49
708932,7089.32
709014,7090.14
709098,7090.98
709178,7091.78
709257,7092.57
709335,7093.35
709417,7094.17
709499,7094.99
709579,7095.79
709659,7096.59
709738,7097.38
709819,7098.19
709896,7098.96
709972,7099.72
710048,7100.48
710122,7101.22
710195,7101.95
710268,7102.68
710340,7103.4
710412,7104.12
710483,7104.83
710554,7105.54
710623,7106.23
710685,7106.85
710748,7107.48
710823,7108.23
710898,7108.98
710965,7109.65
711031,7110.31
711098,7110.98
711163,7111.63
711228,7112.28
711292,7112.92
711357,7113.57
711422,7114.22
711486,7114.86
711552,7115.52
711618,7116.18
711684,7116.84
711751,7117.51
711819,7118.19
711889,7118.89
711961,7119.61
712034,7120.34
712107,7121.07
712181,7121.81
712257,7122.57
712334,7123.34
712413,7124.13
712492,7124.92
712571,7125.71
712650,7126.5
712728,7127.28
712803,7128.03
712875,7128.75
712947,7129.47
713021,7130.21
713097,7130.97
713172,7131.72
713246,7132.46
713320,7133.2
713395,7133.95
713471,7134.71
713551,7135.51
713631,7136.31
713709,7137.09
713789,7137.89
713870,7138.7
713958,7139.58
714048,7140.48
714138,7141.38
714225,7142.25
714313,7143.13
714406,7144.06
714494,7144.94
714582,7145.82
714675,7146.75
714762,7147.62
714848,7148.48
714935,7149.35
715027,7150.27
715120,7151.2
715215,7152.15
715303,7153.03
715391,7153.91
715475,7154.75
715559,7155.59
715645,7156.45
715725,7157.25
715807,7158.07
715891,7158.91
715981,7159.81
716063,7160.63
716147,7161.47
716232,7162.32
716316,7163.16
716403,7164.03
716488,7164.88
716569,7165.69
716651,7166.51
716736,7167.36
716827,7168.27
716914,7169.14
717001,7170.01
717086,7170.86
717174,7171.74
717269,7172.69
717361,7173.61
717448,7174.48
717534,7175.34
717624,7176.24
717720,7177.2
717814,7178.14
717904,7179.04
717991,7179.91
718079,7180.79
718166,7181.66
718252,7182.52
718341,7183.41
718424,7184.24
718508,7185.08
718593,7185.93
718684,7186.84
718772,7187.72
718856,7188.56
718943,7189.43
719031,7190.31
719126,7191.26
719212,7192.12
719299,7192.99
719389,7193.89
719480,7194.8
719568,7195.68
719654,7196.54
719738,7197.38
719822,7198.22
719927,7199.27
720032,7200.32
720135,7201.35
720239,7202.39
720329,7203.29
720426,7204.26
720527,7205.27
720621,7206.21
720716,7207.16
720811,7208.11
720908,7209.08
721001,7210.01
721090,7210.9
721179,7211.79
721267,7212.67
721354,7213.54
721439,7214.39
721522,7215.22
721608,7216.08
721701,7217.01
721795,7217.95
721890,7218.9
721978,7219.78
722067,7220.67
722155,7221.55
722244,7222.44
722332,7223.32
722416,7224.16
722499,7224.99
722584,7225.84
722676,7226.76
722770,7227.7
722863,7228.63
722950,7229.5
723037,7230.37
723125,7231.25
723219,7232.19
723312,7233.12
723396,7233.96
723480,7234.8
723569,7235.69
723664,7236.64
723760,7237.6
723849,7238.49
723936,7239.36
724024,7240.24
724111,7241.11
724199,7241.99
724285,7242.85
724367,7243.67
724449,7244.49
724533,7245.33
724625,7246.25
724716,7247.16
724803,7248.03
724891,7248.91
724980,7249.8
725075,7250.75
725164,7251.64
725251,7252.51
725341,7253.41
725436,7254.36
725531,7255.31
725628,7256.28
725764,7257.64
725901,7259.01
725997,7259.97
726089,7260.89
726176,7261.76
726264,7262.64
726359,7263.59
726455,7264.55
726536,7265.36
726618,7266.18
726740,7267.4
726863,7268.63
726954,7269.54
727045,7270.45
727132,7271.32
727217,7272.17
727311,7273.11
727406,7274.06
727487,7274.87
727569,7275.69
727695,7276.95
727821,7278.21
727910,7279.1
727983,7279.83
728052,7280.52
728122,7281.22
728192,7281.92
728262,7282.62
728331,7283.31
728399,7283.99
728468,7284.68
728535,7285.35
728603,7286.03
728670,7286.7
728737,7287.37
728807,7288.07
728879,7288.79
728955,7289.55
729035,7290.35
729112,7291.12
729191,7291.91
729271,7292.71
729351,7293.51
729430,7294.3
729506,7295.06
729579,7295.79
729651,7296.51
729725,7297.25
729806,7298.06
729895,7298.95
729983,7299.83
730073,7300.73
730163,7301.63
730251,7302.51
730334,7303.34
730418,7304.18
730503,7305.03
730587,7305.87
730673,7306.73
730754,7307.54
730840,7308.4
730926,7309.26
731015,7310.15
731103,7311.03
731192,7311.92
731277,7312.77
731359,7313.59
731443,7314.43
731538,7315.38
731636,7316.36
731732,7317.32
731820,7318.2
731907,7319.07
731997,7319.97
732092,7320.92
732186,7321.86
732270,7322.7
732355,7323.55
732440,7324.4
732527,7325.27
732619,7326.19
732703,7327.03
732789,7327.89
732883,7328.83
732978,7329.78
733079,7330.79
733183,7331.83
733281,7332.81
733370,7333.7
733459,7334.59
733551,7335.51
733644,7336.44
733728,7337.28
733812,7338.12
733896,7338.96
733989,7339.89
734081,7340.81
734173,7341.73
734257,7342.57
734342,7343.42
734428,7344.28
734522,7345.22
734614,7346.14
734698,7346.98
734781,7347.81
734865,7348.65
734961,7349.61
735057,7350.57
735155,7351.55
735240,7352.4
735325,7353.25
735408,7354.08
735494,7354.94
735587,7355.87
735678,7356.78
735761,7357.61
735844,7358.44
735927,7359.27
736023,7360.23
736117,7361.17
736210,7362.1
736294,7362.94
736378,7363.78
736462,7364.62
736555,7365.55
736644,7366.44
736729,7367.29
736814,7368.14
736893,7368.93
736973,7369.73
737065,7370.65
737156,7371.56
737247,7372.47
737328,7373.28
737411,7374.11
737501,7375.01
737594,7375.94
737690,7376.9
737786,7377.86
737869,7378.69
737952,7379.52
738033,7380.33
738111,7381.11
738191,7381.91
738270,7382.7
738348,7383.48
738434,7384.34
738520,7385.2
738583,7385.83
738647,7386.47
738724,7387.24
738799,7387.99
738873,7388.73
738948,7389.48
739028,7390.28
739114,7391.14
739201,7392.01
739281,7392.81
739362,7393.62
739447,7394.47
739538,7395.38
739628,7396.28
739712,7397.12
739793,7397.93
739874,7398.74
739959,7399.59
740047,7400.47
740128,7401.28
740210,7402.1
740292,7402.92
740375,7403.75
740464,7404.64
740554,7405.54
740637,7406.37
740721,7407.21
740805,7408.05
740897,7408.97
740988,7409.88
741081,7410.81
741164,7411.64
741247,7412.47
741329,7413.29
741415,7414.15
741505,7415.05
741591,7415.91
741673,7416.73
741754,7417.54
741837,7418.37
741932,7419.32
742025,7420.25
742110,7421.1
742189,7421.89
742269,7422.69
742347,7423.47
742425,7424.25
742503,7425.03
742582,7425.82
742660,7426.6
742738,7427.38
742814,7428.14
742885,7428.85
742957,7429.57
743029,7430.29
743106,7431.06
743185,7431.85
743264,7432.64
743340,7433.4
743416,7434.16
743496,7434.96
743582,7435.82
743673,7436.73
743763,7437.63
743856,7438.56
743950,7439.5
744041,7440.41
744127,7441.27
744213,7442.13
744300,7443.0
744389,7443.89
744483,7444.83
744577,7445.77
744671,7446.71
744764,7447.64
744851,7448.51
744939,7449.39
745022,7450.22
745104,7451.04
745189,7451.89
745279,7452.79
745369,7453.69
745457,7454.57
745546,7455.46
745628,7456.28
745709,7457.09
745792,7457.92
745879,7458.79
745969,7459.69
746055,7460.55
746140,7461.4
746227,7462.27
746319,7463.19
746415,7464.15
746511,7465.11
746609,7466.09
746700,7467.0
746792,7467.92
746881,7468.81
746970,7469.7
747057,7470.57
747144,7471.44
747227,7472.27
747310,7473.1
747396,7473.96
747483,7474.83
747571,7475.71
747663,7476.63
747755,7477.55
747841,7478.41
747929,7479.29
748020,7480.2
748114,7481.14
748209,7482.09
748304,7483.04
748390,7483.9
748477,7484.77
748564,7485.64
748654,7486.54
748738,7487.38
748822,7488.22
748908,7489.08
749001,7490.01
749099,7490.99
749204,7492.04
749305,7493.05
749393,7493.93
749482,7494.82
749570,7495.7
749664,7496.64
749757,7497.57
749845,7498.45
749930,7499.3
750015,7500.15
750100,7501.0
