sample,time_sec
30110,301.1
30369,303.69
30491,304.91
30625,306.25
30748,307.48
42410,424.1
48272,482.72
54134,541.34
54211,542.11
54257,542.57
54363,543.63
54469,544.69
54551,545.51
54659,546.59
54769,547.69
54873,548.73
54973,549.73
55079,550.79
55187,551.87
55293,552.93
55405,554.05
55517,555.17
55620,556.2
55719,557.19
55820,558.2
55914,559.14
56007,560.07
56129,561.29
56249,562.49
56348,563.48
56442,564.42
56528,565.28
56612,566.12
56707,567.07
56823,568.23
56936,569.36
57049,570.49
57105,571.05
57157,571.57
57248,572.48
57344,573.44
57445,574.45
57539,575.39
57632,576.32
57720,577.2
57763,577.63
57808,578.08
57898,578.98
57989,579.89
58092,580.92
58173,581.73
58224,582.24
58257,582.57
58318,583.18
58375,583.75
58454,584.54
58551,585.51
58637,586.37
58724,587.24
59122,591.22
59361,593.61
59601,596.01
59642,596.42
59687,596.87
59771,597.71
59822,598.22
59862,598.62
59934,599.34
60006,600.06
60080,600.8
60155,601.55
60261,602.61
60362,603.62
60460,604.6
60563,605.63
60664,606.64
60763,607.63
60829,608.29
60896,608.96
60946,609.46
60997,609.97
61062,610.62
61127,611.27
61206,612.06
61285,612.85
61360,613.6
61474,614.74
61588,615.88
61690,616.9
61784,617.84
61887,618.87
61990,619.9
62081,620.81
62174,621.74
62266,622.66
62356,623.56
62441,624.41
62532,625.32
62615,626.15
62693,626.93
62780,627.8
62905,629.05
63017,630.17
63122,631.22
63230,632.3
63335,633.35
63426,634.26
63522,635.22
63623,636.23
63720,637.2
63825,638.25
63948,639.48
64056,640.56
64164,641.64
64279,642.79
64390,643.9
64506,645.06
64618,646.18
64721,647.21
64832,648.32
64944,649.44
65046,650.46
65150,651.5
65256,652.56
65356,653.56
65458,654.58
65562,655.62
65662,656.62
65756,657.56
65854,658.54
65953,659.53
66045,660.45
66146,661.46
66246,662.46
66337,663.37
66438,664.38
66541,665.41
66638,666.38
66739,667.39
66847,668.47
66950,669.5
67048,670.48
67147,671.47
67243,672.43
67332,673.32
67432,674.32
67529,675.29
67614,676.14
67701,677.01
67787,677.87
67871,678.71
67976,679.76
68088,680.88
68191,681.91
68293,682.93
68393,683.93
68485,684.85
68579,685.79
68678,686.78
68775,687.75
68876,688.76
68980,689.8
69070,690.7
69155,691.55
69243,692.43
69337,693.37
69430,694.3
69537,695.37
69647,696.47
69754,697.54
69858,698.58
69962,699.62
70063,700.63
70160,701.6
70262,702.62
70362,703.62
70473,704.73
70587,705.87
70691,706.91
70802,708.02
70910,709.1
71009,710.09
71111,711.11
71215,712.15
71317,713.17
71421,714.21
71526,715.26
71628,716.28
71733,717.33
71835,718.35
71936,719.36
72041,720.41
72145,721.45
72250,722.5
72354,723.54
72453,724.53
72553,725.53
72654,726.54
72750,727.5
72855,728.55
72958,729.58
73062,730.62
73170,731.7
73272,732.72
73376,733.76
73475,734.75
73570,735.7
73662,736.62
73762,737.62
73865,738.65
73964,739.64
74074,740.74
74182,741.82
74281,742.81
74394,743.94
74506,745.06
74611,746.11
74718,747.18
74816,748.16
74908,749.08
74996,749.96
75103,751.03
75211,752.11
75320,753.2
75426,754.26
75520,755.2
75611,756.11
75713,757.13
75811,758.11
75914,759.14
76015,760.15
76102,761.02
76192,761.92
76288,762.88
76410,764.1
76528,765.28
76644,766.44
76757,767.57
76864,768.64
76955,769.55
77048,770.48
77155,771.55
77281,772.81
77398,773.98
77500,775.0
77603,776.03
77704,777.04
77800,778.0
77895,778.95
77995,779.95
78103,781.03
78214,782.14
78313,783.13
78411,784.11
78516,785.16
78629,786.29
78736,787.36
78833,788.33
78934,789.34
79044,790.44
79162,791.62
79264,792.64
79369,793.69
79478,794.78
79578,795.78
79686,796.86
79774,797.74
79854,798.54
79940,799.4
80044,800.44
80171,801.71
80291,802.91
80409,804.09
80527,805.27
80641,806.41
80745,807.45
80845,808.45
80945,809.45
81054,810.54
81174,811.74
81292,812.92
81393,813.93
81491,814.91
81592,815.92
81711,817.11
81832,818.32
81947,819.47
82055,820.55
82161,821.61
82262,822.62
82366,823.66
82469,824.69
82567,825.67
82674,826.74
82792,827.92
82902,829.02
83004,830.04
83103,831.03
83193,831.93
83282,832.82
83364,833.64
83445,834.45
83522,835.22
83608,836.08
83696,836.96
83774,837.74
83853,838.53
83939,839.39
84024,840.24
84125,841.25
84229,842.29
84332,843.32
84429,844.29
84531,845.31
84636,846.36
84743,847.43
84849,848.49
84948,849.48
85047,850.47
85153,851.53
85270,852.7
85378,853.78
85484,854.84
85590,855.9
85687,856.87
85787,857.87
85889,858.89
85992,859.92
86084,860.84
86174,861.74
86264,862.64
86359,863.59
86462,864.62
86565,865.65
86684,866.84
86797,867.97
86898,868.98
86995,869.95
87088,870.88
87175,871.75
87269,872.69
87376,873.76
87468,874.68
87554,875.54
87648,876.48
87750,877.5
87852,878.52
87965,879.65
88067,880.67
88166,881.66
88268,882.68
88370,883.7
88477,884.77
88556,885.56
88605,886.05
88655,886.55
88706,887.06
88811,888.11
88922,889.22
89036,890.36
89143,891.43
89252,892.52
89352,893.52
89446,894.46
89544,895.44
89655,896.55
89760,897.6
89865,898.65
89975,899.75
90078,900.78
90182,901.82
90286,902.86
90381,903.81
90482,904.82
90584,905.84
90686,906.86
90786,907.86
90898,908.98
91009,910.09
91112,911.12
91215,912.15
91317,913.17
91410,914.1
91503,915.03
91597,915.97
91694,916.94
91788,917.88
91901,919.01
92013,920.13
92114,921.14
92215,922.15
92314,923.14
92405,924.05
92499,924.99
92599,925.99
92701,927.01
92795,927.95
92903,929.03
93015,930.15
93119,931.19
93222,932.22
93321,933.21
93413,934.13
93512,935.12
93615,936.15
93712,937.12
93805,938.05
93901,939.01
93993,939.93
94087,940.87
94188,941.88
94290,942.9
94386,943.86
94483,944.83
94573,945.73
94671,946.71
94773,947.73
94870,948.7
94969,949.69
95075,950.75
95182,951.82
95287,952.87
95395,953.95
95502,955.02
95600,956.0
95702,957.02
95812,958.12
95916,959.16
96016,960.16
96124,961.24
96233,962.33
96341,963.41
96441,964.41
96548,965.48
96652,966.52
96749,967.49
96846,968.46
96941,969.41
97044,970.44
97156,971.56
97255,972.55
97355,973.55
97460,974.6
97557,975.57
97653,976.53
97741,977.41
97832,978.32
97930,979.3
98035,980.35
98138,981.38
98242,982.42
98349,983.49
98449,984.49
98545,985.45
98640,986.4
98741,987.41
98834,988.34
98935,989.35
99039,990.39
99150,991.5
99259,992.59
99366,993.66
99471,994.71
99572,995.72
99671,996.71
99774,997.74
99880,998.8
99982,999.82
100088,1000.88
100202,1002.02
100304,1003.04
100401,1004.01
100498,1004.98
100591,1005.91
100693,1006.93
100814,1008.14
100935,1009.35
101046,1010.46
101157,1011.57
101256,1012.56
101351,1013.51
101453,1014.53
101556,1015.56
101653,1016.53
101758,1017.58
101866,1018.66
101971,1019.71
102083,1020.83
102197,1021.97
102298,1022.98
102398,1023.98
102497,1024.97
102591,1025.91
102699,1026.99
102822,1028.22
102937,1029.37
103031,1030.31
103122,1031.22
103204,1032.04
103282,1032.82
103363,1033.63
103452,1034.52
103548,1035.48
103652,1036.52
103757,1037.57
103854,1038.54
103953,1039.53
104046,1040.46
104138,1041.38
104232,1042.32
104329,1043.29
104421,1044.21
104519,1045.19
104626,1046.26
104729,1047.29
104826,1048.26
104926,1049.26
105036,1050.36
105146,1051.46
105252,1052.52
105361,1053.61
105464,1054.64
105555,1055.55
105644,1056.44
105729,1057.29
105812,1058.12
105890,1058.9
105968,1059.68
106044,1060.44
106118,1061.18
106179,1061.79
106245,1062.45
106323,1063.23
106406,1064.06
106516,1065.16
106627,1066.27
106735,1067.35
106839,1068.39
106938,1069.38
107033,1070.33
107132,1071.32
107238,1072.38
107341,1073.41
107451,1074.51
107561,1075.61
107662,1076.62
107766,1077.66
107872,1078.72
107972,1079.72
108067,1080.67
108168,1081.68
108268,1082.68
108361,1083.61
108462,1084.62
108572,1085.72
108680,1086.8
108790,1087.9
108898,1088.98
108999,1089.99
109099,1090.99
109207,1092.07
109301,1093.01
109396,1093.96
109489,1094.89
109582,1095.82
109670,1096.7
109766,1097.66
109867,1098.67
109954,1099.54
110048,1100.48
110167,1101.67
110291,1102.91
110404,1104.04
110514,1105.14
110626,1106.26
110732,1107.32
110842,1108.42
110958,1109.58
111065,1110.65
111169,1111.69
111287,1112.87
111405,1114.05
111510,1115.1
111615,1116.15
111730,1117.3
111854,1118.54
111970,1119.7
112080,1120.8
112192,1121.92
112306,1123.06
112414,1124.14
112520,1125.2
112638,1126.38
112764,1127.64
112866,1128.66
112969,1129.69
113089,1130.89
113210,1132.1
113320,1133.2
113428,1134.28
113536,1135.36
113642,1136.42
113743,1137.43
113850,1138.5
113963,1139.63
114072,1140.72
114182,1141.82
114298,1142.98
114409,1144.09
114517,1145.17
114628,1146.28
114741,1147.41
114848,1148.48
114954,1149.54
115075,1150.75
115192,1151.92
115306,1153.06
115424,1154.24
115538,1155.38
115640,1156.4
115745,1157.45
115852,1158.52
115957,1159.57
116053,1160.53
116150,1161.5
116248,1162.48
116348,1163.48
116449,1164.49
116569,1165.69
116690,1166.9
116803,1168.03
116918,1169.18
117033,1170.33
117139,1171.39
117242,1172.42
117346,1173.46
117446,1174.46
117548,1175.48
117641,1176.41
117735,1177.35
117829,1178.29
117915,1179.15
118008,1180.08
118104,1181.04
118203,1182.03
118299,1182.99
118404,1184.04
118504,1185.04
118600,1186.0
118696,1186.96
118787,1187.87
118878,1188.78
118975,1189.75
119077,1190.77
119179,1191.79
119285,1192.85
119395,1193.95
119501,1195.01
119609,1196.09
119721,1197.21
119826,1198.26
119922,1199.22
120022,1200.22
120133,1201.33
120245,1202.45
120362,1203.62
120479,1204.79
120590,1205.9
120704,1207.04
120822,1208.22
120938,1209.38
121044,1210.44
121154,1211.54
121270,1212.7
121368,1213.68
121467,1214.67
121574,1215.74
121699,1216.99
121817,1218.17
121930,1219.3
122038,1220.38
122141,1221.41
122239,1222.39
122344,1223.44
122461,1224.61
122576,1225.76
122687,1226.87
122802,1228.02
122916,1229.16
123019,1230.19
123126,1231.26
123237,1232.37
123338,1233.38
123443,1234.43
123549,1235.49
123642,1236.42
123735,1237.35
123828,1238.28
123922,1239.22
124026,1240.26
124125,1241.25
124227,1242.27
124329,1243.29
124427,1244.27
124518,1245.18
124608,1246.08
124697,1246.97
124790,1247.9
124882,1248.82
124974,1249.74
125073,1250.73
125166,1251.66
125252,1252.52
125345,1253.45
125448,1254.48
125544,1255.44
125638,1256.38
125736,1257.36
125839,1258.39
125937,1259.37
126037,1260.37
126138,1261.38
126232,1262.32
126330,1263.3
126438,1264.38
126545,1265.45
126647,1266.47
126755,1267.55
126862,1268.62
126966,1269.66
127068,1270.68
127162,1271.62
127243,1272.43
127324,1273.24
127400,1274.0
127488,1274.88
127614,1276.14
127726,1277.26
127835,1278.35
127949,1279.49
128061,1280.61
128163,1281.63
128260,1282.6
128363,1283.63
128476,1284.76
128584,1285.84
128701,1287.01
128814,1288.14
128921,1289.21
129029,1290.29
129139,1291.39
129232,1292.32
129314,1293.14
129396,1293.96
129490,1294.9
129616,1296.16
129733,1297.33
129844,1298.44
129946,1299.46
130031,1300.31
130113,1301.13
130229,1302.29
130342,1303.42
130456,1304.56
130570,1305.7
130677,1306.77
130769,1307.69
130850,1308.5
130936,1309.36
131054,1310.54
131168,1311.68
131280,1312.8
131393,1313.93
131506,1315.06
131620,1316.2
131732,1317.32
131843,1318.43
131944,1319.44
132048,1320.48
132156,1321.56
132265,1322.65
132373,1323.73
132480,1324.8
132587,1325.87
132695,1326.95
132799,1327.99
132900,1329.0
132990,1329.9
133071,1330.71
133150,1331.5
133242,1332.42
133363,1333.63
133482,1334.82
133600,1336.0
133715,1337.15
133829,1338.29
133941,1339.41
134050,1340.5
134159,1341.59
134263,1342.63
134366,1343.66
134467,1344.67
134567,1345.67
134669,1346.69
134769,1347.69
134868,1348.68
134966,1349.66
135063,1350.63
135161,1351.61
135259,1352.59
135357,1353.57
135454,1354.54
135552,1355.52
135650,1356.5
135750,1357.5
135851,1358.51
135951,1359.51
136052,1360.52
136154,1361.54
136255,1362.55
136359,1363.59
136462,1364.62
136564,1365.64
136666,1366.66
136767,1367.67
136867,1368.67
136969,1369.69
137073,1370.73
137178,1371.78
137284,1372.84
137390,1373.9
137496,1374.96
137601,1376.01
137707,1377.07
137816,1378.16
137924,1379.24
138029,1380.29
138135,1381.35
138244,1382.44
138355,1383.55
138465,1384.65
138575,1385.75
138673,1386.73
138760,1387.6
138842,1388.42
138921,1389.21
138998,1389.98
139076,1390.76
139150,1391.5
139260,1392.6
139371,1393.71
139474,1394.74
139581,1395.81
139682,1396.82
139785,1397.85
139880,1398.8
139968,1399.68
140052,1400.52
140135,1401.35
140217,1402.17
140305,1403.05
140395,1403.95
140482,1404.82
140561,1405.61
140645,1406.45
140730,1407.3
140823,1408.23
140907,1409.07
140994,1409.94
141079,1410.79
141170,1411.7
141257,1412.57
141338,1413.38
141418,1414.18
141503,1415.03
141586,1415.86
141676,1416.76
141771,1417.71
141864,1418.64
141948,1419.48
142028,1420.28
142106,1421.06
142185,1421.85
142263,1422.63
142343,1423.43
142427,1424.27
142508,1425.08
142587,1425.87
142657,1426.57
142727,1427.27
142812,1428.12
142897,1428.97
142975,1429.75
143058,1430.58
143141,1431.41
143224,1432.24
143309,1433.09
143397,1433.97
143485,1434.85
143579,1435.79
143670,1436.7
143767,1437.67
143839,1438.39
143914,1439.14
143986,1439.86
144048,1440.48
144110,1441.1
144222,1442.22
144334,1443.34
144439,1444.39
144545,1445.45
144652,1446.52
144760,1447.6
144859,1448.59
144949,1449.49
145036,1450.36
145117,1451.17
145203,1452.03
145305,1453.05
145404,1454.04
145494,1454.94
145578,1455.78
145668,1456.68
145760,1457.6
145850,1458.5
145940,1459.4
146028,1460.28
146112,1461.12
146193,1461.93
146278,1462.78
146364,1463.64
146454,1464.54
146545,1465.45
146637,1466.37
146727,1467.27
146812,1468.12
146898,1468.98
146983,1469.83
147070,1470.7
147158,1471.58
147239,1472.39
147319,1473.19
147398,1473.98
147481,1474.81
147572,1475.72
147662,1476.62
147751,1477.51
147834,1478.34
147922,1479.22
148004,1480.04
148082,1480.82
148166,1481.66
148245,1482.45
148323,1483.23
148399,1483.99
148475,1484.75
148550,1485.5
148631,1486.31
148709,1487.09
148788,1487.88
148877,1488.77
148969,1489.69
149066,1490.66
149161,1491.61
149255,1492.55
149346,1493.46
149438,1494.38
149527,1495.27
149623,1496.23
149725,1497.25
149827,1498.27
149931,1499.31
150036,1500.36
150140,1501.4
150237,1502.37
150334,1503.34
150429,1504.29
150517,1505.17
150614,1506.14
150734,1507.34
150849,1508.49
150957,1509.57
151066,1510.66
151173,1511.73
151274,1512.74
151373,1513.73
151467,1514.67
151565,1515.65
151650,1516.5
151739,1517.39
151829,1518.29
151922,1519.22
152021,1520.21
152111,1521.11
152203,1522.03
152294,1522.94
152386,1523.86
152476,1524.76
152574,1525.74
152663,1526.63
152757,1527.57
152846,1528.46
152949,1529.49
153051,1530.51
153149,1531.49
153250,1532.5
153348,1533.48
153439,1534.39
153536,1535.36
153637,1536.37
153738,1537.38
153836,1538.36
153931,1539.31
154023,1540.23
154111,1541.11
154189,1541.89
154269,1542.69
154349,1543.49
154434,1544.34
154518,1545.18
154595,1545.95
154678,1546.78
154765,1547.65
154847,1548.47
154935,1549.35
155019,1550.19
155101,1551.01
155185,1551.85
155272,1552.72
155373,1553.73
155467,1554.67
155569,1555.69
155679,1556.79
155789,1557.89
155883,1558.83
155975,1559.75
156067,1560.67
156158,1561.58
156249,1562.49
156335,1563.35
156418,1564.18
156511,1565.11
156624,1566.24
156729,1567.29
156830,1568.3
156924,1569.24
157012,1570.12
157106,1571.06
157197,1571.97
157288,1572.88
157371,1573.71
157458,1574.58
157542,1575.42
157644,1576.44
157747,1577.47
157845,1578.45
157943,1579.43
158033,1580.33
158119,1581.19
158197,1581.97
158274,1582.74
158352,1583.52
158431,1584.31
158516,1585.16
158602,1586.02
158692,1586.92
158788,1587.88
158879,1588.79
158973,1589.73
159064,1590.64
159146,1591.46
159228,1592.28
159309,1593.09
159393,1593.93
159479,1594.79
159573,1595.73
159664,1596.64
159762,1597.62
159862,1598.62
159958,1599.58
160058,1600.58
160159,1601.59
160259,1602.59
160348,1603.48
160446,1604.46
160549,1605.49
160653,1606.53
160757,1607.57
160859,1608.59
160959,1609.59
161061,1610.61
161163,1611.63
161260,1612.6
161346,1613.46
161437,1614.37
161531,1615.31
161635,1616.35
161737,1617.37
161828,1618.28
161910,1619.1
161989,1619.89
162076,1620.76
162173,1621.73
162274,1622.74
162379,1623.79
162482,1624.82
162585,1625.85
162686,1626.86
162789,1627.89
162882,1628.82
162976,1629.76
163072,1630.72
163172,1631.72
163264,1632.64
163360,1633.6
163460,1634.6
163559,1635.59
163651,1636.51
163745,1637.45
163840,1638.4
163940,1639.4
164030,1640.3
164125,1641.25
164226,1642.26
164321,1643.21
164420,1644.2
164522,1645.22
164622,1646.22
164714,1647.14
164811,1648.11
164907,1649.07
165000,1650.0
165101,1651.01
165200,1652.0
165296,1652.96
165393,1653.93
165492,1654.92
165588,1655.88
165681,1656.81
165782,1657.82
165887,1658.87
165991,1659.91
166095,1660.95
166201,1662.01
166306,1663.06
166404,1664.04
166504,1665.04
166611,1666.11
166721,1667.21
166824,1668.24
166931,1669.31
167038,1670.38
167140,1671.4
167246,1672.46
167352,1673.52
167457,1674.57
167554,1675.54
167654,1676.54
167761,1677.61
167872,1678.72
167969,1679.69
168059,1680.59
168153,1681.53
168262,1682.62
168371,1683.71
168483,1684.83
168600,1686.0
168712,1687.12
168817,1688.17
168920,1689.2
169016,1690.16
169108,1691.08
169207,1692.07
169314,1693.14
169426,1694.26
169540,1695.4
169655,1696.55
169760,1697.6
169860,1698.6
169960,1699.6
170059,1700.59
170154,1701.54
170255,1702.55
170363,1703.63
170472,1704.72
170582,1705.82
170695,1706.95
170801,1708.01
170907,1709.07
171017,1710.17
171121,1711.21
171217,1712.17
171315,1713.15
171424,1714.24
171527,1715.27
171625,1716.25
171734,1717.34
171854,1718.54
171967,1719.67
172073,1720.73
172186,1721.86
172303,1723.03
172412,1724.12
172523,1725.23
172637,1726.37
172751,1727.51
172858,1728.58
172967,1729.67
173078,1730.78
173188,1731.88
173296,1732.96
173406,1734.06
173517,1735.17
173620,1736.2
173726,1737.26
173838,1738.38
173945,1739.45
174043,1740.43
174144,1741.44
174251,1742.51
174353,1743.53
174450,1744.5
174558,1745.58
174669,1746.69
174776,1747.76
174884,1748.84
174992,1749.92
175090,1750.9
175186,1751.86
175300,1753.0
175424,1754.24
175542,1755.42
175661,1756.61
175775,1757.75
175883,1758.83
175989,1759.89
176092,1760.92
176198,1761.98
176303,1763.03
176408,1764.08
176519,1765.19
176631,1766.31
176737,1767.37
176843,1768.43
176954,1769.54
177063,1770.63
177165,1771.65
177259,1772.59
177353,1773.53
177447,1774.47
177543,1775.43
177649,1776.49
177769,1777.69
177889,1778.89
177999,1779.99
178110,1781.1
178220,1782.2
178328,1783.28
178435,1784.35
178542,1785.42
178646,1786.46
178751,1787.51
178857,1788.57
178965,1789.65
179071,1790.71
179177,1791.77
179285,1792.85
179391,1793.91
179495,1794.95
179602,1796.02
179709,1797.09
179814,1798.14
179920,1799.2
180029,1800.29
180137,1801.37
180243,1802.43
180349,1803.49
180458,1804.58
180566,1805.66
180673,1806.73
180784,1807.84
180896,1808.96
181004,1810.04
181115,1811.15
181229,1812.29
181338,1813.38
181443,1814.43
181552,1815.52
181661,1816.61
181769,1817.69
181877,1818.77
181985,1819.85
182091,1820.91
182194,1821.94
182300,1823.0
182409,1824.09
182516,1825.16
182621,1826.21
182731,1827.31
182841,1828.41
182949,1829.49
183057,1830.57
183166,1831.66
183275,1832.75
183379,1833.79
183480,1834.8
183587,1835.87
183690,1836.9
183793,1837.93
183906,1839.06
184021,1840.21
184129,1841.29
184234,1842.34
184346,1843.46
184458,1844.58
184562,1845.62
184665,1846.65
184767,1847.67
184869,1848.69
184965,1849.65
185066,1850.66
185184,1851.84
185303,1853.03
185410,1854.1
185519,1855.19
185626,1856.26
185731,1857.31
185834,1858.34
185942,1859.42
186051,1860.51
186157,1861.57
186264,1862.64
186375,1863.75
186483,1864.83
186587,1865.87
186693,1866.93
186802,1868.02
186909,1869.09
187013,1870.13
187120,1871.2
187231,1872.31
187341,1873.41
187446,1874.46
187554,1875.54
187666,1876.66
187773,1877.73
187878,1878.78
187987,1879.87
188095,1880.95
188201,1882.01
188308,1883.08
188416,1884.16
188521,1885.21
188624,1886.24
188729,1887.29
188835,1888.35
188939,1889.39
189043,1890.43
189149,1891.49
189256,1892.56
189362,1893.62
189465,1894.65
189570,1895.7
189676,1896.76
189780,1897.8
189884,1898.84
189989,1899.89
190097,1900.97
190203,1902.03
190307,1903.07
190412,1904.12
190519,1905.19
190624,1906.24
190729,1907.29
190839,1908.39
190948,1909.48
191055,1910.55
191161,1911.61
191271,1912.71
191379,1913.79
191482,1914.82
191586,1915.86
191692,1916.92
191799,1917.99
191903,1919.03
192010,1920.1
192122,1921.22
192235,1922.35
192343,1923.43
192452,1924.52
192562,1925.62
192673,1926.73
192781,1927.81
192886,1928.86
192994,1929.94
193106,1931.06
193215,1932.15
193322,1933.22
193432,1934.32
193542,1935.42
193650,1936.5
193757,1937.57
193864,1938.64
193972,1939.72
194077,1940.77
194183,1941.83
194293,1942.93
194407,1944.07
194512,1945.12
194615,1946.15
194719,1947.19
194819,1948.19
194913,1949.13
195003,1950.03
195103,1951.03
195204,1952.04
195293,1952.93
195374,1953.74
195456,1954.56
195536,1955.36
195617,1956.17
195721,1957.21
195834,1958.34
195947,1959.47
196047,1960.47
196143,1961.43
196241,1962.41
196360,1963.6
196472,1964.72
196582,1965.82
196696,1966.96
196810,1968.1
196924,1969.24
197038,1970.38
197149,1971.49
197260,1972.6
197371,1973.71
197482,1974.82
197590,1975.9
197701,1977.01
197814,1978.14
197926,1979.26
198038,1980.38
198155,1981.55
198273,1982.73
198387,1983.87
198502,1985.02
198621,1986.21
198738,1987.38
198850,1988.5
198965,1989.65
199083,1990.83
199194,1991.94
199305,1993.05
199420,1994.2
199535,1995.35
199646,1996.46
199751,1997.51
199856,1998.56
199960,1999.6
200060,2000.6
200181,2001.81
200301,2003.01
200412,2004.12
200517,2005.17
200621,2006.21
200737,2007.37
200843,2008.43
200944,2009.44
201049,2010.49
201160,2011.6
201271,2012.71
201379,2013.79
201499,2014.99
201611,2016.11
201714,2017.14
201811,2018.11
201912,2019.12
202029,2020.29
202141,2021.41
202251,2022.51
202361,2023.61
202464,2024.64
202565,2025.65
202682,2026.82
202804,2028.04
202913,2029.13
203021,2030.21
203129,2031.29
203237,2032.37
203343,2033.43
203450,2034.5
203559,2035.59
203669,2036.69
203776,2037.76
203882,2038.82
203989,2039.89
204095,2040.95
204200,2042.0
204294,2042.94
204414,2044.14
204534,2045.34
204644,2046.44
204756,2047.56
204871,2048.71
204984,2049.84
205093,2050.93
205203,2052.03
205313,2053.13
205420,2054.2
205514,2055.14
205608,2056.08
205716,2057.16
205833,2058.33
205943,2059.43
206050,2060.5
206164,2061.64
206274,2062.74
206377,2063.77
206479,2064.79
206582,2065.82
206682,2066.82
206781,2067.81
206886,2068.86
206992,2069.92
207094,2070.94
207191,2071.91
207305,2073.05
207415,2074.15
207516,2075.16
207618,2076.18
207732,2077.32
207845,2078.45
207945,2079.45
208035,2080.35
208127,2081.27
208229,2082.29
208338,2083.38
208448,2084.48
208560,2085.6
208671,2086.71
208779,2087.79
208882,2088.82
208980,2089.8
209086,2090.86
209192,2091.92
209293,2092.93
209397,2093.97
209510,2095.1
209619,2096.19
209723,2097.23
209832,2098.32
209944,2099.44
210051,2100.51
210153,2101.53
210260,2102.6
210364,2103.64
210462,2104.62
210551,2105.51
210640,2106.4
210733,2107.33
210834,2108.34
210931,2109.31
211060,2110.6
211183,2111.83
211297,2112.97
211409,2114.09
211517,2115.17
211615,2116.15
211705,2117.05
211796,2117.96
211903,2119.03
212028,2120.28
212140,2121.4
212251,2122.51
212363,2123.63
212472,2124.72
212575,2125.75
212670,2126.7
212762,2127.62
212860,2128.6
212958,2129.58
213082,2130.82
213203,2132.03
213317,2133.17
213422,2134.22
213515,2135.15
213606,2136.06
213699,2136.99
213796,2137.96
213889,2138.89
213984,2139.84
214092,2140.92
214220,2142.2
214342,2143.42
214460,2144.6
214578,2145.78
214689,2146.89
214796,2147.96
214898,2148.98
214997,2149.97
215093,2150.93
215193,2151.93
215287,2152.87
215378,2153.78
215477,2154.77
215597,2155.97
215717,2157.17
215827,2158.27
215939,2159.39
216053,2160.53
216161,2161.61
216268,2162.68
216377,2163.77
216481,2164.81
216576,2165.76
216665,2166.65
216747,2167.47
216825,2168.25
216907,2169.07
216993,2169.93
217072,2170.72
217147,2171.47
217221,2172.21
217297,2172.97
217377,2173.77
217455,2174.55
217544,2175.44
217636,2176.36
217730,2177.3
217820,2178.2
217912,2179.12
218009,2180.09
218108,2181.08
218207,2182.07
218303,2183.03
218407,2184.07
218520,2185.2
218635,2186.35
218748,2187.48
218860,2188.6
218973,2189.73
219087,2190.87
219203,2192.03
219319,2193.19
219429,2194.29
219536,2195.36
219644,2196.44
219755,2197.55
219864,2198.64
219982,2199.82
220104,2201.04
220218,2202.18
220324,2203.24
220421,2204.21
220514,2205.14
220604,2206.04
220690,2206.9
220794,2207.94
220891,2208.91
220979,2209.79
221064,2210.64
221141,2211.41
221224,2212.24
221319,2213.19
221410,2214.1
221505,2215.05
221631,2216.31
221750,2217.5
221866,2218.66
221984,2219.84
222105,2221.05
222222,2222.22
222339,2223.39
222457,2224.57
222574,2225.74
222686,2226.86
222792,2227.92
222906,2229.06
223021,2230.21
223127,2231.27
223233,2232.33
223346,2233.46
223465,2234.65
223574,2235.74
223681,2236.81
223786,2237.86
223893,2238.93
223999,2239.99
224118,2241.18
224245,2242.45
224361,2243.61
224475,2244.75
224590,2245.9
224706,2247.06
224821,2248.21
224935,2249.35
225050,2250.5
225161,2251.61
225261,2252.61
225363,2253.63
225479,2254.79
225593,2255.93
225709,2257.09
225829,2258.29
225946,2259.46
226051,2260.51
226154,2261.54
226260,2262.6
226367,2263.67
226467,2264.67
226567,2265.67
226674,2266.74
226782,2267.82
226883,2268.83
226988,2269.88
227111,2271.11
227228,2272.28
227330,2273.3
227426,2274.26
227520,2275.2
227617,2276.17
227715,2277.15
227814,2278.14
227945,2279.45
228068,2280.68
228184,2281.84
228300,2283.0
228409,2284.09
228504,2285.04
228592,2285.92
228686,2286.86
228815,2288.15
228934,2289.34
229048,2290.48
229168,2291.68
229288,2292.88
229403,2294.03
229517,2295.17
229631,2296.31
229736,2297.36
229839,2298.39
229946,2299.46
230071,2300.71
230187,2301.87
230298,2302.98
230410,2304.1
230522,2305.22
230628,2306.28
230716,2307.16
230803,2308.03
230893,2308.93
230983,2309.83
231103,2311.03
231221,2312.21
231337,2313.37
231447,2314.47
231563,2315.63
231678,2316.78
231790,2317.9
231899,2318.99
232003,2320.03
232098,2320.98
232190,2321.9
232284,2322.84
232389,2323.89
232506,2325.06
232624,2326.24
232731,2327.31
232839,2328.39
232947,2329.47
233050,2330.5
233154,2331.54
233259,2332.59
233364,2333.64
233467,2334.67
233570,2335.7
233676,2336.76
233783,2337.83
233887,2338.87
233989,2339.89
234094,2340.94
234198,2341.98
234302,2343.02
234408,2344.08
234523,2345.23
234639,2346.39
234750,2347.5
234862,2348.62
234975,2349.75
235084,2350.84
235190,2351.9
235298,2352.98
235408,2354.08
235518,2355.18
235625,2356.25
235735,2357.35
235847,2358.47
235956,2359.56
236064,2360.64
236175,2361.75
236289,2362.89
236400,2364.0
236509,2365.09
236622,2366.22
236733,2367.33
236839,2368.39
236943,2369.43
237054,2370.54
237168,2371.68
237279,2372.79
237390,2373.9
237504,2375.04
237618,2376.18
237727,2377.27
237838,2378.38
237951,2379.51
238064,2380.64
238172,2381.72
238278,2382.78
238387,2383.87
238498,2384.98
238606,2386.06
238715,2387.15
238826,2388.26
238936,2389.36
239042,2390.42
239152,2391.52
239263,2392.63
239372,2393.72
239479,2394.79
239588,2395.88
239694,2396.94
239800,2398.0
239902,2399.02
239998,2399.98
240094,2400.94
240214,2402.14
240335,2403.35
240444,2404.44
240557,2405.57
240669,2406.69
240777,2407.77
240880,2408.8
240984,2409.84
241081,2410.81
241184,2411.84
241286,2412.86
241388,2413.88
241505,2415.05
241624,2416.24
241735,2417.35
241847,2418.47
241961,2419.61
242077,2420.77
242186,2421.86
242298,2422.98
242411,2424.11
242522,2425.22
242629,2426.29
242738,2427.38
242851,2428.51
242963,2429.63
243070,2430.7
243177,2431.77
243286,2432.86
243395,2433.95
243497,2434.97
243589,2435.89
243682,2436.82
243809,2438.09
243925,2439.25
244040,2440.4
244160,2441.6
244278,2442.78
244392,2443.92
244497,2444.97
244598,2445.98
244703,2447.03
244805,2448.05
244902,2449.02
245009,2450.09
245124,2451.24
245230,2452.3
245338,2453.38
245451,2454.51
245560,2455.6
245664,2456.64
245773,2457.73
245886,2458.86
245992,2459.92
246097,2460.97
246210,2462.1
246317,2463.17
246417,2464.17
246518,2465.18
246626,2466.26
246735,2467.35
246844,2468.44
246961,2469.61
247077,2470.77
247185,2471.85
247285,2472.85
247383,2473.83
247485,2474.85
247582,2475.82
247673,2476.73
247778,2477.78
247892,2478.92
248006,2480.06
248112,2481.12
248220,2482.2
248323,2483.23
248420,2484.2
248520,2485.2
248627,2486.27
248733,2487.33
248839,2488.39
248959,2489.59
249084,2490.84
249198,2491.98
249311,2493.11
249427,2494.27
249541,2495.41
249651,2496.51
249763,2497.63
249876,2498.76
249986,2499.86
250092,2500.92
250202,2502.02
250313,2503.13
250419,2504.19
250528,2505.28
250644,2506.44
250756,2507.56
250858,2508.58
250959,2509.59
251062,2510.62
251168,2511.68
251275,2512.75
251392,2513.92
251512,2515.12
251622,2516.22
251723,2517.23
251833,2518.33
251950,2519.5
252061,2520.61
252172,2521.72
252286,2522.86
252402,2524.02
252508,2525.08
252614,2526.14
252730,2527.3
252843,2528.43
252948,2529.48
253056,2530.56
253168,2531.68
253272,2532.72
253369,2533.69
253461,2534.61
253555,2535.55
253650,2536.5
253746,2537.46
253843,2538.43
253969,2539.69
254089,2540.89
254204,2542.04
254319,2543.19
254435,2544.35
254547,2545.47
254656,2546.56
254770,2547.7
254881,2548.81
254988,2549.88
255099,2550.99
255211,2552.11
255321,2553.21
255431,2554.31
255543,2555.43
255652,2556.52
255759,2557.59
255863,2558.63
255965,2559.65
256085,2560.85
256205,2562.05
256315,2563.15
256428,2564.28
256541,2565.41
256650,2566.5
256760,2567.6
256872,2568.72
256981,2569.81
257090,2570.9
257199,2571.99
257309,2573.09
257417,2574.17
257526,2575.26
257637,2576.37
257744,2577.44
257848,2578.48
257943,2579.43
258038,2580.38
258158,2581.58
258278,2582.78
258394,2583.94
258512,2585.12
258627,2586.27
258740,2587.4
258856,2588.56
258971,2589.71
259084,2590.84
259189,2591.89
259292,2592.92
259397,2593.97
259501,2595.01
259599,2595.99
259691,2596.91
259784,2597.84
259901,2599.01
260020,2600.2
260132,2601.32
260247,2602.47
260364,2603.64
260477,2604.77
260590,2605.9
260705,2607.05
260819,2608.19
260927,2609.27
261025,2610.25
261122,2611.22
261232,2612.32
261340,2613.4
261448,2614.48
261561,2615.61
261673,2616.73
261776,2617.76
261873,2618.73
261975,2619.75
262084,2620.84
262191,2621.91
262293,2622.93
262399,2623.99
262513,2625.13
262620,2626.2
262725,2627.25
262836,2628.36
262948,2629.48
263055,2630.55
263167,2631.67
263282,2632.82
263393,2633.93
263499,2634.99
263607,2636.07
263720,2637.2
263832,2638.32
263935,2639.35
264042,2640.42
264150,2641.5
264252,2642.52
264359,2643.59
264470,2644.7
264578,2645.78
264679,2646.79
264788,2647.88
264904,2649.04
265016,2650.16
265121,2651.21
265235,2652.35
265353,2653.53
265463,2654.63
265563,2655.63
265669,2656.69
265777,2657.77
265877,2658.77
265977,2659.77
266083,2660.83
266194,2661.94
266301,2663.01
266416,2664.16
266535,2665.35
266645,2666.45
266752,2667.52
266861,2668.61
266967,2669.67
267066,2670.66
267169,2671.69
267274,2672.74
267372,2673.72
267464,2674.64
267561,2675.61
267653,2676.53
267753,2677.53
267851,2678.51
267955,2679.55
268077,2680.77
268194,2681.94
268303,2683.03
268415,2684.15
268528,2685.28
268633,2686.33
268737,2687.37
268853,2688.53
268968,2689.68
269075,2690.75
269183,2691.83
269294,2692.94
269404,2694.04
269507,2695.07
269613,2696.13
269722,2697.22
269831,2698.31
269932,2699.32
270034,2700.34
270139,2701.39
270249,2702.49
270361,2703.61
270472,2704.72
270581,2705.81
270691,2706.91
270797,2707.97
270896,2708.96
271007,2710.07
271122,2711.22
271232,2712.32
271340,2713.4
271452,2714.52
271559,2715.59
271663,2716.63
271771,2717.71
271887,2718.87
272006,2720.06
272116,2721.16
272222,2722.22
272335,2723.35
272449,2724.49
272558,2725.58
272663,2726.63
272773,2727.73
272875,2728.75
272970,2729.7
273062,2730.62
273180,2731.8
273308,2733.08
273426,2734.26
273545,2735.45
273665,2736.65
273781,2737.81
273895,2738.95
274011,2740.11
274124,2741.24
274227,2742.27
274336,2743.36
274449,2744.49
274560,2745.6
274660,2746.6
274761,2747.61
274869,2748.69
274981,2749.81
275089,2750.89
275198,2751.98
275309,2753.09
275414,2754.14
275512,2755.12
275610,2756.1
275716,2757.16
275817,2758.17
275916,2759.16
276028,2760.28
276139,2761.39
276243,2762.43
276344,2763.44
276456,2764.56
276572,2765.72
276679,2766.79
276788,2767.88
276905,2769.05
277016,2770.16
277128,2771.28
277242,2772.42
277351,2773.51
277453,2774.53
277562,2775.62
277680,2776.8
277791,2777.91
277903,2779.03
278022,2780.22
278137,2781.37
278243,2782.43
278346,2783.46
278455,2784.55
278565,2785.65
278670,2786.7
278776,2787.76
278889,2788.89
279001,2790.01
279107,2791.07
279209,2792.09
279315,2793.15
279425,2794.25
279527,2795.27
279635,2796.35
279751,2797.51
279864,2798.64
279972,2799.72
280074,2800.74
280181,2801.81
280292,2802.92
280401,2804.01
280505,2805.05
280622,2806.22
280733,2807.33
280838,2808.38
280942,2809.42
281055,2810.55
281165,2811.65
281268,2812.68
281374,2813.74
281481,2814.81
281580,2815.8
281669,2816.69
281760,2817.6
281849,2818.49
281945,2819.45
282043,2820.43
282153,2821.53
282280,2822.8
282396,2823.96
282512,2825.12
282631,2826.31
282746,2827.46
282857,2828.57
282969,2829.69
283081,2830.81
283182,2831.82
283279,2832.79
283387,2833.87
283507,2835.07
283621,2836.21
283729,2837.29
283843,2838.43
283958,2839.58
284064,2840.64
284169,2841.69
284282,2842.82
284391,2843.91
284501,2845.01
284617,2846.17
284729,2847.29
284834,2848.34
284936,2849.36
285050,2850.5
285163,2851.63
285268,2852.68
285374,2853.74
285484,2854.84
285592,2855.92
285691,2856.91
285787,2857.87
285890,2858.9
285995,2859.95
286095,2860.95
286193,2861.93
286309,2863.09
286429,2864.29
286540,2865.4
286654,2866.54
286769,2867.69
286880,2868.8
286989,2869.89
287102,2871.02
287215,2872.15
287324,2873.24
287432,2874.32
287543,2875.43
287648,2876.48
287748,2877.48
287849,2878.49
287962,2879.62
288081,2880.81
288194,2881.94
288302,2883.02
288412,2884.12
288528,2885.28
288636,2886.36
288743,2887.43
288855,2888.55
288965,2889.65
289067,2890.67
289159,2891.59
289256,2892.56
289359,2893.59
289462,2894.62
289562,2895.62
289675,2896.75
289792,2897.92
289900,2899.0
290003,2900.03
290108,2901.08
290213,2902.13
290313,2903.13
290414,2904.14
290529,2905.29
290641,2906.41
290749,2907.49
290853,2908.53
290953,2909.53
291044,2910.44
291134,2911.34
291232,2912.32
291340,2913.4
291449,2914.49
291548,2915.48
291648,2916.48
291776,2917.76
291894,2918.94
292011,2920.11
292130,2921.3
292248,2922.48
292360,2923.6
292466,2924.66
292573,2925.73
292683,2926.83
292785,2927.85
292882,2928.82
292990,2929.9
293097,2930.97
293203,2932.03
293304,2933.04
293410,2934.1
293521,2935.21
293627,2936.27
293729,2937.29
293827,2938.27
293926,2939.26
294030,2940.3
294128,2941.28
294223,2942.23
294322,2943.22
294429,2944.29
294530,2945.3
294622,2946.22
294704,2947.04
294780,2947.8
294856,2948.56
294929,2949.29
295002,2950.02
295079,2950.79
295157,2951.57
295233,2952.33
295309,2953.09
295387,2953.87
295473,2954.73
295553,2955.53
295630,2956.3
295708,2957.08
295788,2957.88
295876,2958.76
295983,2959.83
296098,2960.98
296211,2962.11
296322,2963.22
296434,2964.34
296546,2965.46
296653,2966.53
296761,2967.61
296869,2968.69
296975,2969.75
297079,2970.79
297185,2971.85
297279,2972.79
297374,2973.74
297477,2974.77
297596,2975.96
297710,2977.1
297829,2978.29
297948,2979.48
298061,2980.61
298169,2981.69
298262,2982.62
298355,2983.55
298446,2984.46
298547,2985.47
298663,2986.63
298780,2987.8
298902,2989.02
299018,2990.18
299131,2991.31
299246,2992.46
299357,2993.57
299466,2994.66
299580,2995.8
299698,2996.98
299810,2998.1
299922,2999.22
300036,3000.36
300150,3001.5
300259,3002.59
300366,3003.66
300474,3004.74
300586,3005.86
300697,3006.97
300805,3008.05
300917,3009.17
301029,3010.29
301138,3011.38
301248,3012.48
301361,3013.61
301474,3014.74
301585,3015.85
301693,3016.93
301801,3018.01
301914,3019.14
302027,3020.27
302139,3021.39
302253,3022.53
302368,3023.68
302482,3024.82
302595,3025.95
302711,3027.11
302830,3028.3
302943,3029.43
303058,3030.58
303171,3031.71
303281,3032.81
303382,3033.82
303479,3034.79
303598,3035.98
303711,3037.11
303831,3038.31
303945,3039.45
304061,3040.61
304176,3041.76
304287,3042.87
304400,3044.0
304512,3045.12
304618,3046.18
304723,3047.23
304840,3048.4
304953,3049.53
305061,3050.61
305170,3051.7
305280,3052.8
305390,3053.9
305495,3054.95
305595,3055.95
305699,3056.99
305812,3058.12
305918,3059.18
306022,3060.22
306131,3061.31
306247,3062.47
306351,3063.51
306443,3064.43
306536,3065.36
306629,3066.29
306724,3067.24
306818,3068.18
306935,3069.35
307057,3070.57
307171,3071.71
307284,3072.84
307398,3073.98
307507,3075.07
307613,3076.13
307723,3077.23
307832,3078.32
307938,3079.38
308045,3080.45
308154,3081.54
308264,3082.64
308372,3083.72
308479,3084.79
308590,3085.9
308701,3087.01
308806,3088.06
308909,3089.09
309001,3090.01
309092,3090.92
309182,3091.82
309276,3092.76
309370,3093.7
309499,3094.99
309624,3096.24
309740,3097.4
309855,3098.55
309971,3099.71
310088,3100.88
310201,3102.01
310313,3103.13
310423,3104.23
310532,3105.32
310635,3106.35
310736,3107.36
310848,3108.48
310962,3109.62
311071,3110.71
311181,3111.81
311298,3112.98
311413,3114.13
311520,3115.2
311619,3116.19
311726,3117.26
311842,3118.42
311952,3119.52
312066,3120.66
312181,3121.81
312289,3122.89
312395,3123.95
312508,3125.08
312623,3126.23
312733,3127.33
312844,3128.44
312960,3129.6
313071,3130.71
313169,3131.69
313260,3132.6
313357,3133.57
313470,3134.7
313581,3135.81
313690,3136.9
313808,3138.08
313926,3139.26
314036,3140.36
314144,3141.44
314256,3142.56
314370,3143.7
314477,3144.77
314576,3145.76
314680,3146.8
314788,3147.88
314891,3148.91
314993,3149.93
315107,3151.07
315224,3152.24
315332,3153.32
315434,3154.34
315549,3155.49
315669,3156.69
315780,3157.8
315884,3158.84
315997,3159.97
316112,3161.12
316218,3162.18
316317,3163.17
316419,3164.19
316536,3165.36
316649,3166.49
316760,3167.6
316878,3168.78
316993,3169.93
317099,3170.99
317202,3172.02
317315,3173.15
317433,3174.33
317543,3175.43
317647,3176.47
317757,3177.57
317869,3178.69
317978,3179.78
318084,3180.84
318192,3181.92
318297,3182.97
318396,3183.96
318493,3184.93
318602,3186.02
318717,3187.17
318825,3188.25
318926,3189.26
319035,3190.35
319145,3191.45
319249,3192.49
319356,3193.56
319465,3194.65
319573,3195.73
319676,3196.76
319790,3197.9
319908,3199.08
320018,3200.18
320120,3201.2
320220,3202.2
320324,3203.24
320419,3204.19
320509,3205.09
320602,3206.02
320699,3206.99
320823,3208.23
320937,3209.37
321052,3210.52
321170,3211.7
321285,3212.85
321397,3213.97
321511,3215.11
321623,3216.23
321730,3217.3
321830,3218.3
321934,3219.34
322047,3220.47
322161,3221.61
322267,3222.67
322364,3223.64
322462,3224.62
322570,3225.7
322677,3226.77
322785,3227.85
322909,3229.09
323027,3230.27
323140,3231.4
323254,3232.54
323369,3233.69
323479,3234.79
323581,3235.81
323686,3236.86
323806,3238.06
323923,3239.23
324029,3240.29
324131,3241.31
324246,3242.46
324362,3243.62
324472,3244.72
324580,3245.8
324692,3246.92
324807,3248.07
324914,3249.14
325018,3250.18
325125,3251.25
325231,3252.31
325329,3253.29
325418,3254.18
325502,3255.02
325593,3255.93
325694,3256.94
325787,3257.87
325874,3258.74
325961,3259.61
326048,3260.48
326132,3261.32
326211,3262.11
326288,3262.88
326364,3263.64
326439,3264.39
326514,3265.14
326598,3265.98
326714,3267.14
326822,3268.22
326930,3269.3
327044,3270.44
327159,3271.59
327273,3272.73
327387,3273.87
327503,3275.03
327617,3276.17
327727,3277.27
327835,3278.35
327949,3279.49
328061,3280.61
328174,3281.74
328295,3282.95
328416,3284.16
328532,3285.32
328643,3286.43
328759,3287.59
328877,3288.77
328990,3289.9
329100,3291.0
329213,3292.13
329329,3293.29
329443,3294.43
329554,3295.54
329669,3296.69
329786,3297.86
329899,3298.99
330010,3300.1
330124,3301.24
330234,3302.34
330339,3303.39
330435,3304.35
330534,3305.34
330640,3306.4
330748,3307.48
330853,3308.53
330963,3309.63
331086,3310.86
331200,3312.0
331311,3313.11
331421,3314.21
331526,3315.26
331629,3316.29
331726,3317.26
331820,3318.2
331928,3319.28
332047,3320.47
332167,3321.67
332274,3322.74
332384,3323.84
332502,3325.02
332615,3326.15
332717,3327.17
332820,3328.2
332937,3329.37
333050,3330.5
333157,3331.57
333266,3332.66
333384,3333.84
333498,3334.98
333607,3336.07
333719,3337.19
333836,3338.36
333946,3339.46
334047,3340.47
334148,3341.48
334252,3342.52
334359,3343.59
334460,3344.6
334568,3345.68
334691,3346.91
334805,3348.05
334919,3349.19
335035,3350.35
335152,3351.52
335268,3352.68
335379,3353.79
335491,3354.91
335599,3355.99
335703,3357.03
335799,3357.99
335891,3358.91
335986,3359.86
336111,3361.11
336229,3362.29
336344,3363.44
336460,3364.6
336578,3365.78
336693,3366.93
336804,3368.04
336918,3369.18
337034,3370.34
337146,3371.46
337257,3372.57
337369,3373.69
337480,3374.8
337589,3375.89
337696,3376.96
337793,3377.93
337889,3378.89
337979,3379.79
338066,3380.66
338156,3381.56
338281,3382.81
338400,3384.0
338516,3385.16
338636,3386.36
338755,3387.55
338873,3388.73
338989,3389.89
339104,3391.04
339219,3392.19
339332,3393.32
339438,3394.38
339545,3395.45
339665,3396.65
339779,3397.79
339884,3398.84
339988,3399.88
340101,3401.01
340215,3402.15
340320,3403.2
340425,3404.25
340536,3405.36
340646,3406.46
340748,3407.48
340842,3408.42
340941,3409.41
341046,3410.46
341157,3411.57
341261,3412.61
341365,3413.65
341482,3414.82
341592,3415.92
341692,3416.92
341795,3417.95
341916,3419.16
342034,3420.34
342145,3421.45
342260,3422.6
342380,3423.8
342502,3425.02
342619,3426.19
342734,3427.34
342851,3428.51
342966,3429.66
343072,3430.72
343174,3431.74
343287,3432.87
343406,3434.06
343521,3435.21
343633,3436.33
343751,3437.51
343866,3438.66
343974,3439.74
344080,3440.8
344194,3441.94
344313,3443.13
344426,3444.26
344538,3445.38
344652,3446.52
344764,3447.64
344864,3448.64
344963,3449.63
345065,3450.65
345175,3451.75
345283,3452.83
345389,3453.89
345501,3455.01
345611,3456.11
345717,3457.17
345825,3458.25
345933,3459.33
346035,3460.35
346135,3461.35
346239,3462.39
346349,3463.49
346454,3464.54
346557,3465.57
346669,3466.69
346781,3467.81
346887,3468.87
346989,3469.89
347102,3471.02
347216,3472.16
347327,3473.27
347427,3474.27
347534,3475.34
347660,3476.6
347774,3477.74
347887,3478.87
348004,3480.04
348122,3481.22
348237,3482.37
348350,3483.5
348464,3484.64
348578,3485.78
348690,3486.9
348793,3487.93
348894,3488.94
349015,3490.15
349129,3491.29
349234,3492.34
349348,3493.48
349465,3494.65
349576,3495.76
349689,3496.89
349799,3497.99
349903,3499.03
350015,3500.15
350131,3501.31
350246,3502.46
350348,3503.48
350454,3504.54
350565,3505.65
350674,3506.74
350775,3507.75
350878,3508.78
350989,3509.89
351100,3511.0
351206,3512.06
351313,3513.13
351431,3514.31
351549,3515.49
351661,3516.61
351767,3517.67
351877,3518.77
351994,3519.94
352101,3521.01
352200,3522.0
352306,3523.06
352421,3524.21
352532,3525.32
352640,3526.4
352751,3527.51
352860,3528.6
352962,3529.62
353066,3530.66
353172,3531.72
353282,3532.82
353388,3533.88
353489,3534.89
353599,3535.99
353715,3537.15
353824,3538.24
353923,3539.23
354024,3540.24
354128,3541.28
354230,3542.3
354332,3543.32
354460,3544.6
354582,3545.82
354699,3546.99
354816,3548.16
354934,3549.34
355049,3550.49
355154,3551.54
355261,3552.61
355376,3553.76
355489,3554.89
355597,3555.97
355710,3557.1
355825,3558.25
355936,3559.36
356041,3560.41
356146,3561.46
356258,3562.58
356371,3563.71
356475,3564.75
356574,3565.74
356679,3566.79
356789,3567.89
356895,3568.95
356997,3569.97
357103,3571.03
357220,3572.2
357333,3573.33
357439,3574.39
357546,3575.46
357657,3576.57
357771,3577.71
357881,3578.81
357989,3579.89
358099,3580.99
358208,3582.08
358310,3583.1
358412,3584.12
358526,3585.26
358640,3586.4
358749,3587.49
358861,3588.61
358975,3589.75
359087,3590.87
359193,3591.93
359302,3593.02
359415,3594.15
359527,3595.27
359633,3596.33
359738,3597.38
359851,3598.51
359964,3599.64
360072,3600.72
360183,3601.83
360300,3603.0
360414,3604.14
360521,3605.21
360626,3606.26
360735,3607.35
360847,3608.47
360954,3609.54
361058,3610.58
361168,3611.68
361280,3612.8
361386,3613.86
361485,3614.85
361590,3615.9
361706,3617.06
361822,3618.22
361929,3619.29
362039,3620.39
362157,3621.57
362268,3622.68
362371,3623.71
362482,3624.82
362603,3626.03
362716,3627.16
362821,3628.21
362927,3629.27
363035,3630.35
363135,3631.35
363233,3632.33
363338,3633.38
363453,3634.53
363560,3635.6
363661,3636.61
363770,3637.7
363886,3638.86
363999,3639.99
364104,3641.04
364213,3642.13
364332,3643.32
364447,3644.47
364558,3645.58
364671,3646.71
364787,3647.87
364896,3648.96
364998,3649.98
365104,3651.04
365213,3652.13
365324,3653.24
365429,3654.29
365537,3655.37
365649,3656.49
365757,3657.57
365859,3658.59
365964,3659.64
366077,3660.77
366189,3661.89
366291,3662.91
366397,3663.97
366505,3665.05
366613,3666.13
366713,3667.13
366814,3668.14
366924,3669.24
367039,3670.39
367146,3671.46
367245,3672.45
367354,3673.54
367473,3674.73
367584,3675.84
367692,3676.92
367805,3678.05
367921,3679.21
368029,3680.29
368128,3681.28
368233,3682.33
368349,3683.49
368462,3684.62
368568,3685.68
368680,3686.8
368795,3687.95
368902,3689.02
369005,3690.05
369116,3691.16
369222,3692.22
369321,3693.21
369415,3694.15
369517,3695.17
369621,3696.21
369732,3697.32
369833,3698.33
369941,3699.41
370056,3700.56
370178,3701.78
370292,3702.92
370406,3704.06
370525,3705.25
370645,3706.45
370758,3707.58
370873,3708.73
370990,3709.9
371107,3711.07
371221,3712.21
371336,3713.36
371447,3714.47
371559,3715.59
371665,3716.65
371770,3717.7
371877,3718.77
371983,3719.83
372084,3720.84
372184,3721.84
372291,3722.91
372403,3724.03
372508,3725.08
372611,3726.11
372721,3727.21
372830,3728.3
372937,3729.37
373044,3730.44
373157,3731.57
373268,3732.68
373372,3733.72
373472,3734.72
373576,3735.76
373688,3736.88
373795,3737.95
373900,3739.0
374013,3740.13
374123,3741.23
374225,3742.25
374324,3743.24
374433,3744.33
374550,3745.5
374660,3746.6
374772,3747.72
374885,3748.85
374998,3749.98
375106,3751.06
375211,3752.11
375321,3753.21
375434,3754.34
375539,3755.39
375640,3756.4
375748,3757.48
375861,3758.61
375969,3759.69
376081,3760.81
376202,3762.02
376323,3763.23
376435,3764.35
376541,3765.41
376649,3766.49
376762,3767.62
376868,3768.68
376968,3769.68
377081,3770.81
377203,3772.03
377316,3773.16
377431,3774.31
377549,3775.49
377659,3776.59
377761,3777.61
377868,3778.68
377983,3779.83
378091,3780.91
378200,3782.0
378317,3783.17
378432,3784.32
378541,3785.41
378646,3786.46
378755,3787.55
378867,3788.67
378974,3789.74
379077,3790.77
379189,3791.89
379305,3793.05
379414,3794.14
379517,3795.17
379619,3796.19
379727,3797.27
379839,3798.39
379942,3799.42
380050,3800.5
380162,3801.62
380271,3802.71
380375,3803.75
380482,3804.82
380599,3805.99
380709,3807.09
380811,3808.11
380918,3809.18
381037,3810.37
381152,3811.52
381257,3812.57
381368,3813.68
381480,3814.8
381589,3815.89
381690,3816.9
381787,3817.87
381894,3818.94
382007,3820.07
382117,3821.17
382226,3822.26
382341,3823.41
382457,3824.57
382564,3825.64
382663,3826.63
382765,3827.65
382870,3828.7
382982,3829.82
383094,3830.94
383203,3832.03
383317,3833.17
383434,3834.34
383543,3835.43
383647,3836.47
383760,3837.6
383877,3838.77
383985,3839.85
384086,3840.86
384195,3841.95
384312,3843.12
384424,3844.24
384527,3845.27
384628,3846.28
384731,3847.31
384832,3848.32
384930,3849.3
385036,3850.36
385143,3851.43
385252,3852.52
385367,3853.67
385476,3854.76
385578,3855.78
385681,3856.81
385799,3857.99
385920,3859.2
386031,3860.31
386143,3861.43
386255,3862.55
386362,3863.62
386461,3864.61
386554,3865.54
386653,3866.53
386766,3867.66
386875,3868.75
386980,3869.8
387091,3870.91
387204,3872.04
387314,3873.14
387416,3874.16
387519,3875.19
387634,3876.34
387750,3877.5
387858,3878.58
387962,3879.62
388074,3880.74
388188,3881.88
388299,3882.99
388406,3884.06
388516,3885.16
388626,3886.26
388730,3887.3
388835,3888.35
388948,3889.48
389059,3890.59
389161,3891.61
389262,3892.62
389369,3893.69
389480,3894.8
389588,3895.88
389691,3896.91
389803,3898.03
389922,3899.22
390031,3900.31
390133,3901.33
390239,3902.39
390349,3903.49
390455,3904.55
390556,3905.56
390660,3906.6
390771,3907.71
390884,3908.84
390986,3909.86
391088,3910.88
391197,3911.97
391306,3913.06
391409,3914.09
391512,3915.12
391623,3916.23
391737,3917.37
391845,3918.45
391950,3919.5
392060,3920.6
392170,3921.7
392274,3922.74
392376,3923.76
392491,3924.91
392608,3926.08
392717,3927.17
392819,3928.19
392928,3929.28
393041,3930.41
393153,3931.53
393256,3932.56
393362,3933.62
393479,3934.79
393591,3935.91
393697,3936.97
393809,3938.09
393921,3939.21
394030,3940.3
394128,3941.28
394226,3942.26
394330,3943.3
394436,3944.36
394538,3945.38
394639,3946.39
394756,3947.56
394877,3948.77
394991,3949.91
395094,3950.94
395202,3952.02
395317,3953.17
395429,3954.29
395534,3955.34
395637,3956.37
395754,3957.54
395872,3958.72
395985,3959.85
396092,3960.92
396200,3962.0
396317,3963.17
396430,3964.3
396535,3965.35
396647,3966.47
396761,3967.61
396867,3968.67
396964,3969.64
397067,3970.67
397184,3971.84
397303,3973.03
397411,3974.11
397520,3975.2
397634,3976.34
397746,3977.46
397849,3978.49
397948,3979.48
398054,3980.54
398165,3981.65
398270,3982.7
398374,3983.74
398489,3984.89
398606,3986.06
398716,3987.16
398823,3988.23
398934,3989.34
399050,3990.5
399158,3991.58
399259,3992.59
399366,3993.66
399479,3994.79
399593,3995.93
399696,3996.96
399797,3997.97
399905,3999.05
400017,4000.17
400126,4001.26
400231,4002.31
400347,4003.47
400465,4004.65
400577,4005.77
400682,4006.82
400789,4007.89
400900,4009.0
401008,4010.08
401107,4011.07
401202,4012.02
401300,4013.0
401409,4014.09
401515,4015.15
401613,4016.13
401717,4017.17
401832,4018.32
401946,4019.46
402058,4020.58
402169,4021.69
402282,4022.82
402390,4023.9
402492,4024.92
402597,4025.97
402720,4027.2
402836,4028.36
402947,4029.47
403059,4030.59
403172,4031.72
403280,4032.8
403379,4033.79
403476,4034.76
403581,4035.81
403688,4036.88
403790,4037.9
403896,4038.96
404019,4040.19
404137,4041.37
404246,4042.46
404351,4043.51
404457,4044.57
404566,4045.66
404669,4046.69
404767,4047.67
404871,4048.71
404974,4049.74
405080,4050.8
405180,4051.8
405280,4052.8
405390,4053.9
405501,4055.01
405609,4056.09
405721,4057.21
405839,4058.39
405954,4059.54
406066,4060.66
406183,4061.83
406296,4062.96
406402,4064.02
406500,4065.0
406602,4066.02
406718,4067.18
406834,4068.34
406942,4069.42
407051,4070.51
407166,4071.66
407272,4072.72
407374,4073.74
407481,4074.81
407597,4075.97
407708,4077.08
407813,4078.13
407926,4079.26
408040,4080.4
408149,4081.49
408255,4082.55
408368,4083.68
408478,4084.78
408579,4085.79
408679,4086.79
408788,4087.88
408898,4088.98
409001,4090.01
409099,4090.99
409202,4092.02
409315,4093.15
409426,4094.26
409532,4095.32
409651,4096.51
409774,4097.74
409888,4098.88
410003,4100.03
410120,4101.2
410235,4102.35
410342,4103.42
410449,4104.49
410563,4105.63
410675,4106.75
410779,4107.79
410887,4108.87
411003,4110.03
411119,4111.19
411230,4112.3
411339,4113.39
411453,4114.53
411567,4115.67
411674,4116.74
411778,4117.78
411881,4118.81
411989,4119.89
412095,4120.95
412200,4122.0
412308,4123.08
412421,4124.21
412539,4125.39
412649,4126.49
412757,4127.57
412870,4128.7
412984,4129.84
413089,4130.89
413189,4131.89
413291,4132.91
413397,4133.97
413496,4134.96
413594,4135.94
413695,4136.95
413802,4138.02
413908,4139.08
414011,4140.11
414121,4141.21
414237,4142.37
414351,4143.51
414460,4144.6
414572,4145.72
414685,4146.85
414789,4147.89
414890,4148.9
414999,4149.99
415109,4151.09
415213,4152.13
415317,4153.17
415432,4154.32
415548,4155.48
415655,4156.55
415755,4157.55
415861,4158.61
415974,4159.74
416077,4160.77
416174,4161.74
416274,4162.74
416377,4163.77
416501,4165.01
416612,4166.12
416726,4167.26
416841,4168.41
416949,4169.49
417050,4170.5
417153,4171.53
417259,4172.59
417357,4173.57
417453,4174.53
417555,4175.55
417672,4176.72
417786,4177.86
417890,4178.9
417995,4179.95
418102,4181.02
418209,4182.09
418313,4183.13
418421,4184.21
418534,4185.34
418640,4186.4
418738,4187.38
418837,4188.37
418944,4189.44
419063,4190.63
419179,4191.79
419293,4192.93
419410,4194.1
419524,4195.24
419628,4196.28
419733,4197.33
419848,4198.48
419963,4199.63
420072,4200.72
420181,4201.81
420292,4202.92
420407,4204.07
420513,4205.13
420607,4206.07
420703,4207.03
420819,4208.19
420933,4209.33
421040,4210.4
421146,4211.46
421260,4212.6
421373,4213.73
421477,4214.77
421582,4215.82
421701,4217.01
421818,4218.18
421927,4219.27
422038,4220.38
422155,4221.55
422273,4222.73
422383,4223.83
422494,4224.94
422599,4225.99
422697,4226.97
422798,4227.98
422910,4229.1
423020,4230.2
423121,4231.21
423229,4232.29
423346,4233.46
423457,4234.57
423564,4235.64
423679,4236.79
423798,4237.98
423911,4239.11
424020,4240.2
424133,4241.33
424246,4242.46
424348,4243.48
424446,4244.46
424547,4245.47
424652,4246.52
424760,4247.6
424865,4248.65
424972,4249.72
425087,4250.87
425198,4251.98
425303,4253.03
425407,4254.07
425515,4255.15
425623,4256.23
425723,4257.23
425821,4258.21
425923,4259.23
426031,4260.31
426134,4261.34
426235,4262.35
426350,4263.5
426462,4264.62
426566,4265.66
426663,4266.63
426765,4267.65
426878,4268.78
426986,4269.86
427091,4270.91
427200,4272.0
427314,4273.14
427422,4274.22
427524,4275.24
427631,4276.31
427741,4277.41
427849,4278.49
427950,4279.5
428053,4280.53
428164,4281.64
428268,4282.68
428363,4283.63
428456,4284.56
428568,4285.68
428685,4286.85
428793,4287.93
428894,4288.94
429002,4290.02
429111,4291.11
429212,4292.12
429311,4293.11
429421,4294.21
429538,4295.38
429646,4296.46
429746,4297.46
429847,4298.47
429956,4299.56
430073,4300.73
430179,4301.79
430288,4302.88
430400,4304.0
430512,4305.12
430616,4306.16
430716,4307.16
430824,4308.24
430938,4309.38
431048,4310.48
431153,4311.53
431267,4312.67
431380,4313.8
431488,4314.88
431592,4315.92
431706,4317.06
431818,4318.18
431923,4319.23
432024,4320.24
432137,4321.37
432254,4322.54
432366,4323.66
432471,4324.71
432583,4325.83
432695,4326.95
432802,4328.02
432904,4329.04
433013,4330.13
433130,4331.3
433244,4332.44
433350,4333.5
433458,4334.58
433572,4335.72
433682,4336.82
433785,4337.85
433891,4338.91
434003,4340.03
434111,4341.11
434210,4342.1
434311,4343.11
434416,4344.16
434526,4345.26
434627,4346.27
434722,4347.22
434826,4348.26
434935,4349.35
435038,4350.38
435140,4351.4
435248,4352.48
435361,4353.61
435471,4354.71
435575,4355.75
435683,4356.83
435800,4358.0
435914,4359.14
436023,4360.23
436130,4361.3
436240,4362.4
436346,4363.46
436448,4364.48
436550,4365.5
436658,4366.58
436770,4367.7
436870,4368.7
436971,4369.71
437078,4370.78
437196,4371.96
437308,4373.08
437413,4374.13
437524,4375.24
437639,4376.39
437745,4377.45
437843,4378.43
437946,4379.46
438057,4380.57
438165,4381.65
438264,4382.64
438362,4383.62
438465,4384.65
438581,4385.81
438692,4386.92
438796,4387.96
438906,4389.06
439018,4390.18
439124,4391.24
439224,4392.24
439319,4393.19
439421,4394.21
439529,4395.29
439630,4396.3
439730,4397.3
439838,4398.38
439962,4399.62
440082,4400.82
440192,4401.92
440305,4403.05
440423,4404.23
440537,4405.37
440644,4406.44
440755,4407.55
440870,4408.7
440981,4409.81
441084,4410.84
441181,4411.81
441283,4412.83
441402,4414.02
441513,4415.13
441614,4416.14
441720,4417.2
441833,4418.33
441942,4419.42
442041,4420.41
442146,4421.46
442248,4422.48
442348,4423.48
442443,4424.43
442544,4425.44
442664,4426.64
442785,4427.85
442895,4428.95
443004,4430.04
443120,4431.2
443230,4432.3
443333,4433.33
443432,4434.32
443536,4435.36
443645,4436.45
443747,4437.47
443843,4438.43
443942,4439.42
444050,4440.5
444162,4441.62
444268,4442.68
444372,4443.72
444484,4444.84
444596,4445.96
444699,4446.99
444794,4447.94
444894,4448.94
445006,4450.06
445116,4451.16
445217,4452.17
445321,4453.21
445427,4454.27
445530,4455.3
445626,4456.26
445725,4457.25
445851,4458.51
445970,4459.7
446084,4460.84
446196,4461.96
446310,4463.1
446424,4464.24
446532,4465.32
446633,4466.33
446748,4467.48
446864,4468.64
446968,4469.68
447074,4470.74
447189,4471.89
447298,4472.98
447400,4474.0
447506,4475.06
447621,4476.21
447731,4477.31
447832,4478.32
447936,4479.36
448049,4480.49
448157,4481.57
448259,4482.59
448361,4483.61
448468,4484.68
448574,4485.74
448676,4486.76
448779,4487.79
448883,4488.83
448988,4489.88
449085,4490.85
449177,4491.77
449277,4492.77
449402,4494.02
449517,4495.17
449628,4496.28
449742,4497.42
449857,4498.57
449968,4499.68
450072,4500.72
450179,4501.79
450291,4502.91
450406,4504.06
450513,4505.13
450618,4506.18
450732,4507.32
450846,4508.46
450949,4509.49
451044,4510.44
451145,4511.45
451260,4512.6
451372,4513.72
451475,4514.75
451579,4515.79
451696,4516.96
451812,4518.12
451916,4519.16
452016,4520.16
452136,4521.36
452250,4522.5
452353,4523.53
452449,4524.49
452551,4525.51
452659,4526.59
452767,4527.67
452865,4528.65
452956,4529.56
453051,4530.51
453172,4531.72
453280,4532.8
453389,4533.89
453503,4535.03
453618,4536.18
453729,4537.29
453841,4538.41
453955,4539.55
454069,4540.69
454179,4541.79
454281,4542.81
454375,4543.75
454471,4544.71
454578,4545.78
454678,4546.78
454784,4547.84
454909,4549.09
455027,4550.27
455139,4551.39
455251,4552.51
455373,4553.73
455485,4554.85
455586,4555.86
455684,4556.84
455785,4557.85
455894,4558.94
455998,4559.98
456096,4560.96
456208,4562.08
456331,4563.31
456445,4564.45
456548,4565.48
456650,4566.5
456756,4567.56
456862,4568.62
456961,4569.61
457057,4570.57
457164,4571.64
457287,4572.87
457403,4574.03
457508,4575.08
457613,4576.13
457718,4577.18
457820,4578.2
457917,4579.17
458010,4580.1
458113,4581.13
458227,4582.27
458334,4583.34
458438,4584.38
458555,4585.55
458676,4586.76
458789,4587.89
458892,4588.92
459006,4590.06
459121,4591.21
459229,4592.29
459329,4593.29
459434,4594.34
459554,4595.54
459667,4596.67
459770,4597.7
459877,4598.77
459988,4599.88
460094,4600.94
460192,4601.92
460291,4602.91
460404,4604.04
460518,4605.18
460626,4606.26
460729,4607.29
460837,4608.37
460954,4609.54
461058,4610.58
461153,4611.53
461249,4612.49
461352,4613.52
461472,4614.72
461581,4615.81
461686,4616.86
461792,4617.92
461898,4618.98
461998,4619.98
462093,4620.93
462186,4621.86
462288,4622.88
462399,4623.99
462516,4625.16
462625,4626.25
462739,4627.39
462855,4628.55
462968,4629.68
463074,4630.74
463185,4631.85
463304,4633.04
463412,4634.12
463514,4635.14
463614,4636.14
463723,4637.23
463835,4638.35
463940,4639.4
464033,4640.33
464131,4641.31
464236,4642.36
464361,4643.61
464474,4644.74
464585,4645.85
464703,4647.03
464816,4648.16
464918,4649.18
465015,4650.15
465123,4651.23
465237,4652.37
465344,4653.44
465442,4654.42
465548,4655.48
465665,4656.65
465775,4657.75
465874,4658.74
465977,4659.77
466090,4660.9
466200,4662.0
466302,4663.02
466402,4664.02
466513,4665.13
466629,4666.29
466738,4667.38
466842,4668.42
466953,4669.53
467068,4670.68
467173,4671.73
467272,4672.72
467377,4673.77
467491,4674.91
467606,4676.06
467711,4677.11
467809,4678.09
467917,4679.17
468035,4680.35
468148,4681.48
468254,4682.54
468364,4683.64
468481,4684.81
468588,4685.88
468692,4686.92
468812,4688.12
468929,4689.29
469037,4690.37
469142,4691.42
469259,4692.59
469380,4693.8
469486,4694.86
469588,4695.88
469692,4696.92
469807,4698.07
469919,4699.19
470026,4700.26
470132,4701.32
470248,4702.48
470362,4703.62
470464,4704.64
470561,4705.61
470667,4706.67
470778,4707.78
470887,4708.87
470993,4709.93
471105,4711.05
471219,4712.19
471323,4713.23
471420,4714.2
471522,4715.22
471624,4716.24
471729,4717.29
471827,4718.27
471924,4719.24
472030,4720.3
472152,4721.52
472269,4722.69
472373,4723.73
472476,4724.76
472589,4725.89
472704,4727.04
472810,4728.1
472909,4729.09
473015,4730.15
473125,4731.25
473228,4732.28
473325,4733.25
473444,4734.44
473565,4735.65
473676,4736.76
473775,4737.75
473881,4738.81
473992,4739.92
474104,4741.04
474206,4742.06
474307,4743.07
474412,4744.12
474528,4745.28
474639,4746.39
474741,4747.41
474843,4748.43
474949,4749.49
475052,4750.52
475151,4751.51
475246,4752.46
475356,4753.56
475476,4754.76
475589,4755.89
475693,4756.93
475803,4758.03
475920,4759.2
476025,4760.25
476123,4761.23
476216,4762.16
476316,4763.16
476433,4764.33
476545,4765.45
476647,4766.47
476742,4767.42
476844,4768.44
476962,4769.62
477076,4770.76
477178,4771.78
477280,4772.8
477385,4773.85
477494,4774.94
477599,4775.99
477693,4776.93
477794,4777.94
477897,4778.97
478003,4780.03
478105,4781.05
478203,4782.03
478307,4783.07
478421,4784.21
478529,4785.29
478631,4786.31
478737,4787.37
478846,4788.46
478948,4789.48
479042,4790.42
479135,4791.35
479235,4792.35
479333,4793.33
479425,4794.25
479516,4795.16
479607,4796.07
479723,4797.23
479839,4798.39
479940,4799.4
480035,4800.35
480130,4801.3
480222,4802.22
480312,4803.12
480399,4803.99
480500,4805.0
480608,4806.08
480718,4807.18
480823,4808.23
480935,4809.35
481062,4810.62
481182,4811.82
481298,4812.98
481409,4814.09
481526,4815.26
481637,4816.37
481744,4817.44
481847,4818.47
481944,4819.44
482043,4820.43
482143,4821.43
482256,4822.56
482366,4823.66
482469,4824.69
482578,4825.78
482682,4826.82
482782,4827.82
482888,4828.88
483001,4830.01
483110,4831.1
483208,4832.08
483302,4833.02
483401,4834.01
483519,4835.19
483630,4836.3
483738,4837.38
483849,4838.49
483968,4839.68
484073,4840.73
484171,4841.71
484272,4842.72
484390,4843.9
484505,4845.05
484609,4846.09
484709,4847.09
484825,4848.25
484940,4849.4
485049,4850.49
485150,4851.5
485258,4852.58
485376,4853.76
485485,4854.85
485581,4855.81
485680,4856.8
485793,4857.93
485904,4859.04
486009,4860.09
486111,4861.11
486229,4862.29
486350,4863.5
486465,4864.65
486568,4865.68
486674,4866.74
486780,4867.8
486888,4868.88
486990,4869.9
487089,4870.89
487205,4872.05
487328,4873.28
487441,4874.41
487545,4875.45
487656,4876.56
487775,4877.75
487885,4878.85
487987,4879.87
488085,4880.85
488195,4881.95
488312,4883.12
488421,4884.21
488519,4885.19
488619,4886.19
488732,4887.32
488845,4888.45
488948,4889.48
489044,4890.44
489145,4891.45
489263,4892.63
489370,4893.7
489470,4894.7
489568,4895.68
489678,4896.78
489794,4897.94
489903,4899.03
490007,4900.07
490125,4901.25
490247,4902.47
490357,4903.57
490454,4904.54
490552,4905.52
490659,4906.59
490769,4907.69
490877,4908.77
490985,4909.85
491114,4911.14
491238,4912.38
491356,4913.56
491471,4914.71
491583,4915.83
491703,4917.03
491817,4918.17
491918,4919.18
492011,4920.11
492114,4921.14
492233,4922.33
492349,4923.49
492451,4924.51
492552,4925.52
492666,4926.66
492784,4927.84
492894,4928.94
492992,4929.92
493094,4930.94
493202,4932.02
493315,4933.15
493417,4934.17
493512,4935.12
493611,4936.11
493720,4937.2
493820,4938.2
493917,4939.17
494019,4940.19
494131,4941.31
494243,4942.43
494354,4943.54
494456,4944.56
494564,4945.64
494685,4946.85
494794,4947.94
494896,4948.96
495003,4950.03
495115,4951.15
495228,4952.28
495331,4953.31
495429,4954.29
495532,4955.32
495647,4956.47
495764,4957.64
495869,4958.69
495978,4959.78
496090,4960.9
496204,4962.04
496306,4963.06
496403,4964.03
496507,4965.07
496633,4966.33
496748,4967.48
496857,4968.57
496955,4969.55
497055,4970.55
497163,4971.63
497264,4972.64
497360,4973.6
497460,4974.6
497586,4975.86
497704,4977.04
497810,4978.1
497904,4979.04
498006,4980.06
498118,4981.18
498222,4982.22
498321,4983.21
498427,4984.27
498546,4985.46
498664,4986.64
498771,4987.71
498863,4988.63
498956,4989.56
499051,4990.51
499148,4991.48
499237,4992.37
499325,4993.25
499452,4994.52
499576,4995.76
499697,4996.97
499815,4998.15
499937,4999.37
500059,5000.59
500174,5001.74
500271,5002.71
500369,5003.69
500493,5004.93
500611,5006.11
500714,5007.14
500814,5008.14
500922,5009.22
501038,5010.38
501146,5011.46
501246,5012.46
501348,5013.48
501463,5014.63
501580,5015.8
501688,5016.88
501785,5017.85
501885,5018.85
501992,5019.92
502113,5021.13
502224,5022.24
502329,5023.29
502444,5024.44
502559,5025.59
502662,5026.62
502760,5027.6
502862,5028.62
502990,5029.9
503106,5031.06
503218,5032.18
503325,5033.25
503435,5034.35
503544,5035.44
503645,5036.45
503736,5037.36
503836,5038.36
503939,5039.39
504057,5040.57
504164,5041.64
504267,5042.67
504383,5043.83
504503,5045.03
504611,5046.11
504709,5047.09
504814,5048.14
504933,5049.33
505053,5050.53
505159,5051.59
505254,5052.54
505347,5053.47
505455,5054.55
505581,5055.81
505692,5056.92
505806,5058.06
505925,5059.25
506044,5060.44
506155,5061.55
506269,5062.69
506386,5063.86
506504,5065.04
506611,5066.11
506706,5067.06
506801,5068.01
506927,5069.27
507046,5070.46
507158,5071.58
507255,5072.55
507357,5073.57
507464,5074.64
507567,5075.67
507664,5076.64
507759,5077.59
507865,5078.65
507968,5079.68
508071,5080.71
508170,5081.7
508265,5082.65
508373,5083.73
508469,5084.69
508564,5085.64
508652,5086.52
508736,5087.36
508824,5088.24
508918,5089.18
509012,5090.12
509109,5091.09
509209,5092.09
509318,5093.18
509418,5094.18
509513,5095.13
509608,5096.08
509735,5097.35
509852,5098.52
509962,5099.62
510069,5100.69
510166,5101.66
510262,5102.62
510353,5103.53
510444,5104.44
510539,5105.39
510669,5106.69
510794,5107.94
510917,5109.17
511037,5110.37
511158,5111.58
511279,5112.79
511400,5114.0
511518,5115.18
511629,5116.29
511742,5117.42
511857,5118.57
511969,5119.69
512076,5120.76
512184,5121.84
512286,5122.86
512394,5123.94
512495,5124.95
512593,5125.93
512698,5126.98
512814,5128.14
512940,5129.4
513056,5130.56
513160,5131.6
513259,5132.59
513359,5133.59
513467,5134.67
513575,5135.75
513683,5136.83
513801,5138.01
513929,5139.29
514048,5140.48
514158,5141.58
514275,5142.75
514397,5143.97
514510,5145.1
514615,5146.15
514712,5147.12
514809,5148.09
514906,5149.06
514993,5149.93
515081,5150.81
515198,5151.98
515306,5153.06
515423,5154.23
515518,5155.18
515609,5156.09
515704,5157.04
515833,5158.33
515951,5159.51
516069,5160.69
516190,5161.9
516313,5163.13
516429,5164.29
516539,5165.39
516646,5166.46
516764,5167.64
516880,5168.8
516989,5169.89
517101,5171.01
517220,5172.2
517338,5173.38
517441,5174.41
517541,5175.41
517647,5176.47
517751,5177.51
517851,5178.51
517946,5179.46
518046,5180.46
518173,5181.73
518291,5182.91
518406,5184.06
518511,5185.11
518613,5186.13
518721,5187.21
518831,5188.31
518933,5189.33
519039,5190.39
519160,5191.6
519282,5192.82
519383,5193.83
519481,5194.81
519582,5195.82
519676,5196.76
519765,5197.65
519855,5198.55
519950,5199.5
520044,5200.44
520144,5201.44
520276,5202.76
520406,5204.06
520531,5205.31
520651,5206.51
520774,5207.74
520896,5208.96
521010,5210.1
521106,5211.06
521202,5212.02
521305,5213.05
521422,5214.22
521539,5215.39
521664,5216.64
521788,5217.88
521906,5219.06
522014,5220.14
522127,5221.27
522247,5222.47
522363,5223.63
522474,5224.74
522588,5225.88
522712,5227.12
522828,5228.28
522936,5229.36
523039,5230.39
523149,5231.49
523279,5232.79
523395,5233.95
523507,5235.07
523614,5236.14
523728,5237.28
523843,5238.43
523951,5239.51
524056,5240.56
524171,5241.71
524294,5242.94
524406,5244.06
524507,5245.07
524612,5246.12
524725,5247.25
524840,5248.4
524946,5249.46
525047,5250.47
525166,5251.66
525290,5252.9
525398,5253.98
525496,5254.96
525593,5255.93
525690,5256.9
525802,5258.02
525903,5259.03
525994,5259.94
526095,5260.95
526222,5262.22
526338,5263.38
526445,5264.45
526552,5265.52
526661,5266.61
526770,5267.7
526877,5268.77
526984,5269.84
527092,5270.92
527201,5272.01
527306,5273.06
527409,5274.09
527509,5275.09
527611,5276.11
527720,5277.2
527835,5278.35
527941,5279.41
528042,5280.42
528168,5281.68
528285,5282.85
528395,5283.95
528503,5285.03
528615,5286.15
528725,5287.25
528836,5288.36
528934,5289.34
529028,5290.28
529129,5291.29
529249,5292.49
529361,5293.61
529464,5294.64
529568,5295.68
529680,5296.8
529783,5297.83
529879,5298.79
529972,5299.72
530078,5300.78
530196,5301.96
530309,5303.09
530409,5304.09
530505,5305.05
530602,5306.02
530704,5307.04
530799,5307.99
530887,5308.87
530978,5309.78
531089,5310.89
531206,5312.06
531320,5313.2
531426,5314.26
531523,5315.23
531628,5316.28
531742,5317.42
531854,5318.54
531951,5319.51
532041,5320.41
532135,5321.35
532231,5322.31
532346,5323.46
532460,5324.6
532565,5325.65
532675,5326.75
532797,5327.97
532908,5329.08
533015,5330.15
533119,5331.19
533225,5332.25
533331,5333.31
533426,5334.26
533517,5335.17
533606,5336.06
533704,5337.04
533826,5338.26
533948,5339.48
534056,5340.56
534168,5341.68
534278,5342.78
534388,5343.88
534493,5344.93
534595,5345.95
534687,5346.87
534781,5347.81
534906,5349.06
535024,5350.24
535138,5351.38
535244,5352.44
535347,5353.47
535451,5354.51
535552,5355.52
535650,5356.5
535745,5357.45
535841,5358.41
535968,5359.68
536086,5360.86
536194,5361.94
536292,5362.92
536384,5363.84
536477,5364.77
536602,5366.02
536713,5367.13
536822,5368.22
536929,5369.29
537041,5370.41
537151,5371.51
537257,5372.57
537362,5373.62
537463,5374.63
537561,5375.61
537660,5376.6
537750,5377.5
537833,5378.33
537925,5379.25
538021,5380.21
538143,5381.43
538255,5382.55
538362,5383.62
538468,5384.68
538566,5385.66
538658,5386.58
538748,5387.48
538833,5388.33
538918,5389.18
539012,5390.12
539109,5391.09
539210,5392.1
539300,5393.0
539385,5393.85
539471,5394.71
539562,5395.62
539653,5396.53
539744,5397.44
539830,5398.3
539918,5399.18
540011,5400.11
540106,5401.06
540200,5402.0
540290,5402.9
540376,5403.76
540464,5404.64
540559,5405.59
540661,5406.61
540756,5407.56
540847,5408.47
540934,5409.34
541029,5410.29
541129,5411.29
541237,5412.37
541337,5413.37
541430,5414.3
541522,5415.22
541624,5416.24
541737,5417.37
541838,5418.38
541930,5419.3
542019,5420.19
542115,5421.15
542213,5422.13
542317,5423.17
542413,5424.13
542505,5425.05
542610,5426.1
542724,5427.24
542830,5428.3
542925,5429.25
543015,5430.15
543110,5431.1
543206,5432.06
543307,5433.07
543400,5434.0
543486,5434.86
543579,5435.79
543678,5436.78
543781,5437.81
543874,5438.74
543962,5439.62
544048,5440.48
544140,5441.4
544237,5442.37
544329,5443.29
544416,5444.16
544504,5445.04
544600,5446.0
544708,5447.08
544827,5448.27
544934,5449.34
545029,5450.29
545123,5451.23
545223,5452.23
545325,5453.25
545418,5454.18
545508,5455.08
545595,5455.95
545690,5456.9
545796,5457.96
545900,5459.0
545999,5459.99
546095,5460.95
546189,5461.89
546281,5462.81
546370,5463.7
546458,5464.58
546546,5465.46
546673,5466.73
546786,5467.86
546896,5468.96
547000,5470.0
547094,5470.94
547186,5471.86
547274,5472.74
547368,5473.68
547461,5474.61
547550,5475.5
547640,5476.4
547757,5477.57
547879,5478.79
547988,5479.88
548082,5480.82
548170,5481.7
548263,5482.63
548354,5483.54
548454,5484.54
548545,5485.45
548634,5486.34
548724,5487.24
548822,5488.22
548925,5489.25
549024,5490.24
549118,5491.18
549212,5492.12
549318,5493.18
549419,5494.19
549521,5495.21
549616,5496.16
549707,5497.07
549806,5498.06
549916,5499.16
550031,5500.31
550136,5501.36
550230,5502.3
550331,5503.31
550434,5504.34
550534,5505.34
550628,5506.28
550726,5507.26
550832,5508.32
550945,5509.45
551049,5510.49
551145,5511.45
551242,5512.42
551346,5513.46
551453,5514.53
551556,5515.56
551651,5516.51
551741,5517.41
551830,5518.3
551931,5519.31
552034,5520.34
552132,5521.32
552225,5522.25
552313,5523.13
552410,5524.1
552513,5525.13
552619,5526.19
552714,5527.14
552804,5528.04
552890,5528.9
552974,5529.74
553062,5530.62
553156,5531.56
553263,5532.63
553361,5533.61
553456,5534.56
553545,5535.45
553633,5536.33
553731,5537.31
553824,5538.24
553924,5539.24
554016,5540.16
554104,5541.04
554198,5541.98
554292,5542.92
554388,5543.88
554482,5544.82
554571,5545.71
554658,5546.58
554753,5547.53
554847,5548.47
554945,5549.45
555038,5550.38
555132,5551.32
555228,5552.28
555343,5553.43
555459,5554.59
555568,5555.68
555667,5556.67
555762,5557.62
555859,5558.59
555954,5559.54
556049,5560.49
556142,5561.42
556232,5562.32
556347,5563.47
556456,5564.56
556570,5565.7
556685,5566.85
556785,5567.85
556879,5568.79
556974,5569.74
557070,5570.7
557165,5571.65
557258,5572.58
557349,5573.49
557444,5574.44
557547,5575.47
557648,5576.48
557743,5577.43
557841,5578.41
557944,5579.44
558043,5580.43
558138,5581.38
558231,5582.31
558333,5583.33
558440,5584.4
558542,5585.42
558636,5586.36
558724,5587.24
558812,5588.12
558906,5589.06
559003,5590.03
559100,5591.0
559189,5591.89
559277,5592.77
559367,5593.67
559456,5594.56
559550,5595.5
559640,5596.4
559726,5597.26
559810,5598.1
559899,5598.99
559988,5599.88
560081,5600.81
560168,5601.68
560255,5602.55
560346,5603.46
560440,5604.4
560538,5605.38
560629,5606.29
560715,5607.15
560807,5608.07
560902,5609.02
561003,5610.03
561099,5610.99
561189,5611.89
561279,5612.79
561375,5613.75
561474,5614.74
561575,5615.75
561670,5616.7
561761,5617.61
561853,5618.53
561946,5619.46
562039,5620.39
562131,5621.31
562222,5622.22
562314,5623.14
562412,5624.12
562511,5625.11
562607,5626.07
562699,5626.99
562789,5627.89
562878,5628.78
562974,5629.74
563070,5630.7
563164,5631.64
563253,5632.53
563340,5633.4
563435,5634.35
563531,5635.31
563625,5636.25
563715,5637.15
563802,5638.02
563888,5638.88
563981,5639.81
564077,5640.77
564180,5641.8
564283,5642.83
564370,5643.7
564453,5644.53
564532,5645.32
564609,5646.09
564685,5646.85
564790,5647.9
564904,5649.04
565012,5650.12
565129,5651.29
565248,5652.48
565370,5653.7
565490,5654.9
565603,5656.03
565716,5657.16
565817,5658.17
565916,5659.16
566010,5660.1
566101,5661.01
566189,5661.89
566300,5663.0
566426,5664.26
566544,5665.44
566652,5666.52
566748,5667.48
566845,5668.45
566941,5669.41
567038,5670.38
567130,5671.3
567216,5672.16
567304,5673.04
567398,5673.98
567498,5674.98
567612,5676.12
567731,5677.31
567844,5678.44
567950,5679.5
568054,5680.54
568158,5681.58
568260,5682.6
568358,5683.58
568457,5684.57
568571,5685.71
568695,5686.95
568816,5688.16
568926,5689.26
569031,5690.31
569134,5691.34
569247,5692.47
569360,5693.6
569465,5694.65
569566,5695.66
569668,5696.68
569780,5697.8
569893,5698.93
569999,5699.99
570098,5700.98
570195,5701.95
570297,5702.97
570399,5703.99
570491,5704.91
570589,5705.89
570683,5706.83
570773,5707.73
570867,5708.67
570958,5709.58
571044,5710.44
571130,5711.3
571215,5712.15
571305,5713.05
571394,5713.94
571499,5714.99
571596,5715.96
571691,5716.91
571785,5717.85
571883,5718.83
571984,5719.84
572077,5720.77
572164,5721.64
572249,5722.49
572336,5723.36
572424,5724.24
572526,5725.26
572620,5726.2
572711,5727.11
572806,5728.06
572903,5729.03
573007,5730.07
573104,5731.04
573197,5731.97
573290,5732.9
573390,5733.9
573490,5734.9
573588,5735.88
573681,5736.81
573769,5737.69
573864,5738.64
573957,5739.57
574054,5740.54
574149,5741.49
574239,5742.39
574330,5743.3
574426,5744.26
574524,5745.24
574628,5746.28
574724,5747.24
574818,5748.18
574915,5749.15
575017,5750.17
575121,5751.21
575214,5752.14
575300,5753.0
575384,5753.84
575470,5754.7
575560,5755.6
575663,5756.63
575751,5757.51
575841,5758.41
575936,5759.36
576043,5760.43
576162,5761.62
576282,5762.82
576383,5763.83
576478,5764.78
576573,5765.73
576672,5766.72
576770,5767.7
576867,5768.67
576973,5769.73
577091,5770.91
577206,5772.06
577312,5773.12
577410,5774.1
577508,5775.08
577607,5776.07
577701,5777.01
577792,5777.92
577879,5778.79
577970,5779.7
578068,5780.68
578167,5781.67
578261,5782.61
578355,5783.55
578447,5784.47
578546,5785.46
578663,5786.63
578784,5787.84
578897,5788.97
578998,5789.98
579092,5790.92
579188,5791.88
579284,5792.84
579382,5793.82
579477,5794.77
579572,5795.72
579682,5796.82
579798,5797.98
579908,5799.08
580007,5800.07
580104,5801.04
580204,5802.04
580301,5803.01
580395,5803.95
580490,5804.9
580598,5805.98
580710,5807.1
580816,5808.16
580911,5809.11
581003,5810.03
581097,5810.97
581191,5811.91
581289,5812.89
581382,5813.82
581468,5814.68
581552,5815.52
581636,5816.36
581730,5817.3
581853,5818.53
581969,5819.69
582081,5820.81
582190,5821.9
582302,5823.02
582407,5824.07
582506,5825.06
582599,5825.99
582689,5826.89
582777,5827.77
582871,5828.71
582965,5829.65
583059,5830.59
583149,5831.49
583237,5832.37
583332,5833.32
583427,5834.27
583530,5835.3
583627,5836.27
583722,5837.22
583811,5838.11
583897,5838.97
583981,5839.81
584065,5840.65
584153,5841.53
584279,5842.79
584402,5844.02
584523,5845.23
584635,5846.35
584746,5847.46
584846,5848.46
584943,5849.43
585036,5850.36
585125,5851.25
585212,5852.12
585299,5852.99
585396,5853.96
585521,5855.21
585635,5856.35
585746,5857.46
585854,5858.54
585957,5859.57
586058,5860.58
586158,5861.58
586249,5862.49
586337,5863.37
586430,5864.3
586524,5865.24
586632,5866.32
586734,5867.34
586835,5868.35
586934,5869.34
587043,5870.43
587161,5871.61
587273,5872.73
587371,5873.71
587463,5874.63
587558,5875.58
587653,5876.53
587759,5877.59
587856,5878.56
587950,5879.5
588043,5880.43
588147,5881.47
588249,5882.49
588343,5883.43
588433,5884.33
588530,5885.3
588625,5886.25
588722,5887.22
588818,5888.18
588911,5889.11
589007,5890.07
589107,5891.07
589213,5892.13
589307,5893.07
589397,5893.97
589486,5894.86
589582,5895.82
589691,5896.91
589797,5897.97
589897,5898.97
589990,5899.9
590093,5900.93
590204,5902.04
590316,5903.16
590415,5904.15
590507,5905.07
590603,5906.03
590705,5907.05
590833,5908.33
590946,5909.46
591055,5910.55
591165,5911.65
591266,5912.66
591364,5913.64
591456,5914.56
591542,5915.42
591634,5916.34
591729,5917.29
591826,5918.26
591930,5919.3
592025,5920.25
592119,5921.19
592224,5922.24
592343,5923.43
592461,5924.61
592564,5925.64
592656,5926.56
592748,5927.48
592838,5928.38
592931,5929.31
593022,5930.22
593111,5931.11
593203,5932.03
593304,5933.04
593416,5934.16
593529,5935.29
593634,5936.34
593732,5937.32
593836,5938.36
593933,5939.33
594031,5940.31
594124,5941.24
594217,5942.17
594314,5943.14
594413,5944.13
594526,5945.26
594633,5946.33
594730,5947.3
594827,5948.27
594929,5949.29
595050,5950.5
595170,5951.7
595274,5952.74
595369,5953.69
595465,5954.65
595559,5955.59
595668,5956.68
595771,5957.71
595869,5958.69
595969,5959.69
596084,5960.84
596203,5962.03
596308,5963.08
596405,5964.05
596504,5965.04
596604,5966.04
596706,5967.06
596805,5968.05
596903,5969.03
597001,5970.01
597106,5971.06
597220,5972.2
597330,5973.3
597426,5974.26
597522,5975.22
597617,5976.17
597714,5977.14
597808,5978.08
597901,5979.01
597996,5979.96
598109,5981.09
598229,5982.29
598338,5983.38
598436,5984.36
598532,5985.32
598627,5986.27
598720,5987.2
598817,5988.17
598912,5989.12
599005,5990.05
599094,5990.94
599194,5991.94
599300,5993.0
599414,5994.14
599529,5995.29
599639,5996.39
599743,5997.43
599845,5998.45
599937,5999.37
600028,6000.28
600123,6001.23
600223,6002.23
600343,6003.43
600458,6004.58
600562,6005.62
600657,6006.57
600754,6007.54
600852,6008.52
600944,6009.44
601034,6010.34
601120,6011.2
601205,6012.05
601286,6012.86
601369,6013.69
601482,6014.82
601588,6015.88
601704,6017.04
601812,6018.12
601924,6019.24
602031,6020.31
602127,6021.27
602216,6022.16
602301,6023.01
602392,6023.92
602481,6024.81
602574,6025.74
602663,6026.63
602748,6027.48
602834,6028.34
602922,6029.22
603017,6030.17
603119,6031.19
603222,6032.22
603315,6033.15
603403,6034.03
603491,6034.91
603583,6035.83
603680,6036.8
603780,6037.8
603875,6038.75
603969,6039.69
604067,6040.67
604170,6041.7
604277,6042.77
604379,6043.79
604471,6044.71
604559,6045.59
604648,6046.48
604748,6047.48
604858,6048.58
604958,6049.58
605056,6050.56
605152,6051.52
605257,6052.57
605374,6053.74
605480,6054.8
605575,6055.75
605666,6056.66
605759,6057.59
605855,6058.55
605952,6059.52
606045,6060.45
606133,6061.33
606229,6062.29
606328,6063.28
606430,6064.3
606524,6065.24
606612,6066.12
606703,6067.03
606792,6067.92
606888,6068.88
606978,6069.78
607066,6070.66
607151,6071.51
607243,6072.43
607352,6073.52
607469,6074.69
607570,6075.7
607661,6076.61
607754,6077.54
607848,6078.48
607946,6079.46
608041,6080.41
608131,6081.31
608229,6082.29
608337,6083.37
608447,6084.47
608564,6085.64
608671,6086.71
608767,6087.67
608864,6088.64
608959,6089.59
609057,6090.57
609152,6091.52
609247,6092.47
609341,6093.41
609448,6094.48
609570,6095.7
609683,6096.83
609782,6097.82
609875,6098.75
609970,6099.7
610067,6100.67
610172,6101.72
610270,6102.7
610365,6103.65
610467,6104.67
610595,6105.95
610714,6107.14
610829,6108.29
610930,6109.3
611026,6110.26
611123,6111.23
611217,6112.17
611308,6113.08
611395,6113.95
611484,6114.84
611596,6115.96
611724,6117.24
611835,6118.35
611933,6119.33
612019,6120.19
612101,6121.01
612183,6121.83
612276,6122.76
612407,6124.07
612527,6125.27
612648,6126.48
612772,6127.72
612890,6128.9
613002,6130.02
613103,6131.03
613201,6132.01
613297,6132.97
613389,6133.89
613478,6134.78
613575,6135.75
613677,6136.77
613795,6137.95
613906,6139.06
614008,6140.08
614105,6141.05
614206,6142.06
614315,6143.15
614421,6144.21
614518,6145.18
614610,6146.1
614708,6147.08
614800,6148.0
614908,6149.08
615018,6150.18
615125,6151.25
615232,6152.32
615348,6153.48
615464,6154.64
615572,6155.72
615669,6156.69
615762,6157.62
615861,6158.61
615965,6159.65
616081,6160.81
616193,6161.93
616297,6162.97
616401,6164.01
616506,6165.06
616613,6166.13
616715,6167.15
616817,6168.17
616928,6169.28
617045,6170.45
617157,6171.57
617258,6172.58
617358,6173.58
617459,6174.59
617564,6175.64
617669,6176.69
617767,6177.67
617866,6178.66
617971,6179.71
618078,6180.78
618186,6181.86
618287,6182.87
618384,6183.84
618483,6184.83
618589,6185.89
618698,6186.98
618808,6188.08
618915,6189.15
619012,6190.12
619107,6191.07
619207,6192.07
619309,6193.09
619408,6194.08
619506,6195.06
619609,6196.09
619730,6197.3
619847,6198.47
619951,6199.51
620046,6200.46
620139,6201.39
620238,6202.38
620352,6203.52
620459,6204.59
620556,6205.56
620652,6206.52
620745,6207.45
620843,6208.43
620935,6209.35
621024,6210.24
621111,6211.11
621211,6212.11
621318,6213.18
621413,6214.13
621502,6215.02
621587,6215.87
621672,6216.72
621758,6217.58
621848,6218.48
621937,6219.37
622029,6220.29
622143,6221.43
622264,6222.64
622379,6223.79
622482,6224.82
622577,6225.77
622675,6226.75
622782,6227.82
622891,6228.91
622996,6229.96
623094,6230.94
623194,6231.94
623296,6232.96
623407,6234.07
623515,6235.15
623613,6236.13
623715,6237.15
623818,6238.18
623925,6239.25
624027,6240.27
624124,6241.24
624225,6242.25
624326,6243.26
624422,6244.22
624517,6245.17
624608,6246.08
624701,6247.01
624813,6248.13
624941,6249.41
625062,6250.62
625180,6251.8
625299,6252.99
625419,6254.19
625537,6255.37
625645,6256.45
625752,6257.52
625865,6258.65
625979,6259.79
626093,6260.93
626199,6261.99
626307,6263.07
626421,6264.21
626535,6265.35
626645,6266.45
626750,6267.5
626858,6268.58
626979,6269.79
627095,6270.95
627200,6272.0
627295,6272.95
627391,6273.91
627497,6274.97
627606,6276.06
627715,6277.15
627820,6278.2
627927,6279.27
628041,6280.41
628154,6281.54
628260,6282.6
628357,6283.57
628459,6284.59
628578,6285.78
628697,6286.97
628806,6288.06
628907,6289.07
629015,6290.15
629126,6291.26
629241,6292.41
629345,6293.45
629451,6294.51
629552,6295.52
629654,6296.54
629751,6297.51
629841,6298.41
629933,6299.33
630061,6300.61
630181,6301.81
630296,6302.96
630413,6304.13
630530,6305.3
630645,6306.45
630753,6307.53
630846,6308.46
630941,6309.41
631036,6310.36
631137,6311.37
631236,6312.36
631334,6313.34
631443,6314.43
631561,6315.61
631677,6316.77
631786,6317.86
631887,6318.87
631992,6319.92
632098,6320.98
632202,6322.02
632301,6323.01
632398,6323.98
632503,6325.03
632612,6326.12
632713,6327.13
632817,6328.17
632928,6329.28
633042,6330.42
633152,6331.52
633257,6332.57
633367,6333.67
633487,6334.87
633604,6336.04
633713,6337.13
633818,6338.18
633932,6339.32
634049,6340.49
634163,6341.63
634263,6342.63
634359,6343.59
634466,6344.66
634588,6345.88
634706,6347.06
634813,6348.13
634917,6349.17
635030,6350.3
635145,6351.45
635255,6352.55
635358,6353.58
635460,6354.6
635570,6355.7
635686,6356.86
635796,6357.96
635900,6359.0
636012,6360.12
636129,6361.29
636237,6362.37
636333,6363.33
636425,6364.25
636522,6365.22
636628,6366.28
636738,6367.38
636839,6368.39
636935,6369.35
637035,6370.35
637136,6371.36
637241,6372.41
637341,6373.41
637440,6374.4
637547,6375.47
637657,6376.57
637770,6377.7
637877,6378.77
637977,6379.77
638082,6380.82
638187,6381.87
638290,6382.9
638388,6383.88
638491,6384.91
638602,6386.02
638719,6387.19
638833,6388.33
638938,6389.38
639045,6390.45
639157,6391.57
639265,6392.65
639364,6393.64
639458,6394.58
639561,6395.61
639676,6396.76
639790,6397.9
639892,6398.92
639984,6399.84
640077,6400.77
640165,6401.65
640252,6402.52
640337,6403.37
640423,6404.23
640521,6405.21
640652,6406.52
640775,6407.75
640897,6408.97
641019,6410.19
641135,6411.35
641238,6412.38
641340,6413.4
641443,6414.43
641542,6415.42
641637,6416.37
641728,6417.28
641822,6418.22
641918,6419.18
642017,6420.17
642116,6421.16
642244,6422.44
642369,6423.69
642492,6424.92
642612,6426.12
642735,6427.35
642856,6428.56
642976,6429.76
643079,6430.79
643183,6431.83
643286,6432.86
643405,6434.05
643524,6435.24
643639,6436.39
643758,6437.58
643876,6438.76
643988,6439.88
644087,6440.87
644188,6441.88
644295,6442.95
644418,6444.18
644534,6445.34
644640,6446.4
644747,6447.47
644852,6448.52
644960,6449.6
645064,6450.64
645167,6451.67
645289,6452.89
645414,6454.14
645533,6455.33
645645,6456.45
645754,6457.54
645861,6458.61
645969,6459.69
646073,6460.73
646172,6461.72
646274,6462.74
646388,6463.88
646498,6464.98
646600,6466.0
646704,6467.04
646808,6468.08
646913,6469.13
647013,6470.13
647110,6471.1
647215,6472.15
647342,6473.42
647460,6474.6
647570,6475.7
647679,6476.79
647789,6477.89
647899,6478.99
648001,6480.01
648097,6480.97
648199,6481.99
648314,6483.14
648435,6484.35
648550,6485.5
648656,6486.56
648767,6487.67
648884,6488.84
649002,6490.02
649115,6491.15
649221,6492.21
649332,6493.32
649449,6494.49
649562,6495.62
649671,6496.71
649788,6497.88
649906,6499.06
650020,6500.2
650128,6501.28
650234,6502.34
650349,6503.49
650469,6504.69
650585,6505.85
650696,6506.96
650812,6508.12
650925,6509.25
651033,6510.33
651134,6511.34
651241,6512.41
651355,6513.55
651467,6514.67
651571,6515.71
651678,6516.78
651785,6517.85
651889,6518.89
651987,6519.87
652091,6520.91
652200,6522.0
652311,6523.11
652420,6524.2
652525,6525.25
652637,6526.37
652750,6527.5
652860,6528.6
652957,6529.57
653050,6530.5
653144,6531.44
653244,6532.44
653352,6533.52
653460,6534.6
653567,6535.67
653686,6536.86
653806,6538.06
653918,6539.18
654021,6540.21
654121,6541.21
654226,6542.26
654331,6543.31
654431,6544.31
654528,6545.28
654633,6546.33
654744,6547.44
654858,6548.58
654966,6549.66
655071,6550.71
655167,6551.67
655253,6552.53
655342,6553.42
655432,6554.32
655522,6555.22
655622,6556.22
655740,6557.4
655857,6558.57
655964,6559.64
656066,6560.66
656162,6561.62
656254,6562.54
656344,6563.44
656437,6564.37
656567,6565.67
656692,6566.92
656813,6568.13
656935,6569.35
657059,6570.59
657183,6571.83
657303,6573.03
657418,6574.18
657531,6575.31
657644,6576.44
657753,6577.53
657857,6578.57
657962,6579.62
658066,6580.66
658170,6581.7
658267,6582.67
658364,6583.64
658473,6584.73
658598,6585.98
658718,6587.18
658829,6588.29
658939,6589.39
659055,6590.55
659169,6591.69
659278,6592.78
659381,6593.81
659487,6594.87
659607,6596.07
659726,6597.26
659835,6598.35
659936,6599.36
660038,6600.38
660144,6601.44
660247,6602.47
660346,6603.46
660447,6604.47
660555,6605.55
660663,6606.63
660764,6607.64
660864,6608.64
660975,6609.75
661089,6610.89
661202,6612.02
661307,6613.07
661419,6614.19
661535,6615.35
661641,6616.41
661738,6617.38
661843,6618.43
661956,6619.56
662071,6620.71
662180,6621.8
662290,6622.9
662405,6624.05
662516,6625.16
662620,6626.2
662718,6627.18
662821,6628.21
662935,6629.35
663048,6630.48
663151,6631.51
663249,6632.49
663357,6633.57
663474,6634.74
663586,6635.86
663687,6636.87
663788,6637.88
663889,6638.89
663996,6639.96
664099,6640.99
664199,6641.99
664310,6643.1
664435,6644.35
664554,6645.54
664664,6646.64
664765,6647.65
664871,6648.71
664974,6649.74
665076,6650.76
665194,6651.94
665320,6653.2
665441,6654.41
665549,6655.49
665660,6656.6
665773,6657.73
665885,6658.85
665990,6659.9
666095,6660.95
666210,6662.1
666327,6663.27
666437,6664.37
666543,6665.43
666655,6666.55
666771,6667.71
666884,6668.84
666989,6669.89
667093,6670.93
667201,6672.01
667311,6673.11
667411,6674.11
667507,6675.07
667608,6676.08
667718,6677.18
667826,6678.26
667929,6679.29
668036,6680.36
668156,6681.56
668274,6682.74
668383,6683.83
668485,6684.85
668596,6685.96
668712,6687.12
668821,6688.21
668922,6689.22
669025,6690.25
669132,6691.32
669241,6692.41
669346,6693.46
669449,6694.49
669555,6695.55
669664,6696.64
669767,6697.67
669867,6698.67
669975,6699.75
670087,6700.87
670198,6701.98
670301,6703.01
670402,6704.02
670505,6705.05
670611,6706.11
670719,6707.19
670825,6708.25
670938,6709.38
671055,6710.55
671168,6711.68
671274,6712.74
671386,6713.86
671501,6715.01
671611,6716.11
671715,6717.15
671824,6718.24
671940,6719.4
672052,6720.52
672158,6721.58
672270,6722.7
672382,6723.82
672485,6724.85
672588,6725.88
672696,6726.96
672805,6728.05
672908,6729.08
673003,6730.03
673104,6731.04
673211,6732.11
673316,6733.16
673417,6734.17
673518,6735.18
673623,6736.23
673729,6737.29
673826,6738.26
673921,6739.21
674032,6740.32
674149,6741.49
674262,6742.62
674371,6743.71
674483,6744.83
674594,6745.94
674699,6746.99
674798,6747.98
674906,6749.06
675028,6750.28
675145,6751.45
675254,6752.54
675363,6753.63
675480,6754.8
675595,6755.95
675701,6757.01
675806,6758.06
675922,6759.22
676038,6760.38
676148,6761.48
676250,6762.5
676357,6763.57
676463,6764.63
676566,6765.66
676665,6766.65
676769,6767.69
676883,6768.83
676998,6769.98
677108,6771.08
677208,6772.08
677311,6773.11
677418,6774.18
677518,6775.18
677615,6776.15
677720,6777.2
677831,6778.31
677942,6779.42
678049,6780.49
678156,6781.56
678264,6782.64
678374,6783.74
678474,6784.74
678566,6785.66
678659,6786.59
678754,6787.54
678848,6788.48
678944,6789.44
679047,6790.47
679179,6791.79
679301,6793.01
679420,6794.2
679540,6795.4
679660,6796.6
679776,6797.76
679884,6798.84
679990,6799.9
680099,6800.99
680208,6802.08
680321,6803.21
680446,6804.46
680568,6805.68
680683,6806.83
680789,6807.89
680901,6809.01
681019,6810.19
681131,6811.31
681236,6812.36
681341,6813.41
681448,6814.48
681553,6815.53
681653,6816.53
681757,6817.57
681865,6818.65
681966,6819.66
682065,6820.65
682172,6821.72
682277,6822.77
682378,6823.78
682475,6824.75
682572,6825.72
682672,6826.72
682773,6827.73
682873,6828.73
682970,6829.7
683075,6830.75
683193,6831.93
683308,6833.08
683416,6834.16
683508,6835.08
683598,6835.98
683697,6836.97
683795,6837.95
683898,6838.98
684015,6840.15
684141,6841.41
684260,6842.6
684368,6843.68
684476,6844.76
684602,6846.02
684723,6847.23
684837,6848.37
684956,6849.56
685071,6850.71
685176,6851.76
685275,6852.75
685369,6853.69
685474,6854.74
685585,6855.85
685700,6857.0
685810,6858.1
685924,6859.24
686054,6860.54
686177,6861.77
686296,6862.96
686415,6864.15
686534,6865.34
686654,6866.54
686772,6867.72
686881,6868.81
686993,6869.93
687112,6871.12
687229,6872.29
687335,6873.35
687436,6874.36
687544,6875.44
687664,6876.64
687783,6877.83
687893,6878.93
687996,6879.96
688107,6881.07
688223,6882.23
688331,6883.31
688431,6884.31
688537,6885.37
688656,6886.56
688769,6887.69
688873,6888.73
688977,6889.77
689086,6890.86
689201,6892.01
689309,6893.09
689412,6894.12
689519,6895.19
689630,6896.3
689739,6897.39
689841,6898.41
689941,6899.41
690047,6900.47
690154,6901.54
690257,6902.57
690359,6903.59
690487,6904.87
690606,6906.06
690723,6907.23
690837,6908.37
690952,6909.52
691068,6910.68
691176,6911.76
691280,6912.8
691390,6913.9
691509,6915.09
691624,6916.24
691732,6917.32
691836,6918.36
691952,6919.52
692072,6920.72
692185,6921.85
692293,6922.93
692410,6924.1
692526,6925.26
692637,6926.37
692742,6927.42
692853,6928.53
692979,6929.79
693101,6931.01
693215,6932.15
693328,6933.28
693441,6934.41
693546,6935.46
693644,6936.44
693744,6937.44
693852,6938.52
693958,6939.58
694059,6940.59
694162,6941.62
694269,6942.69
694379,6943.79
694485,6944.85
694586,6945.86
694693,6946.93
694807,6948.07
694916,6949.16
695018,6950.18
695124,6951.24
695240,6952.4
695349,6953.49
695452,6954.52
695555,6955.55
695666,6956.66
695774,6957.74
695876,6958.76
695981,6959.81
696091,6960.91
696204,6962.04
696305,6963.05
696400,6964.0
696499,6964.99
696600,6966.0
696699,6966.99
696797,6967.97
696912,6969.12
697041,6970.41
697161,6971.61
697278,6972.78
697397,6973.97
697516,6975.16
697633,6976.33
697748,6977.48
697860,6978.6
697974,6979.74
698087,6980.87
698195,6981.95
698301,6983.01
698422,6984.22
698540,6985.4
698651,6986.51
698754,6987.54
698860,6988.6
698978,6989.78
699090,6990.9
699196,6991.96
699299,6992.99
699409,6994.09
699518,6995.18
699623,6996.23
699738,6997.38
699849,6998.49
699957,6999.57
700063,7000.63
700178,7001.78
700301,7003.01
700420,7004.2
700530,7005.3
700639,7006.39
700754,7007.54
700870,7008.7
700977,7009.77
701083,7010.83
701198,7011.98
701317,7013.17
701426,7014.26
701528,7015.28
701635,7016.35
701747,7017.47
701856,7018.56
701957,7019.57
702065,7020.65
702175,7021.75
702283,7022.83
702383,7023.83
702486,7024.86
702596,7025.96
702710,7027.1
702814,7028.14
702914,7029.14
703024,7030.24
703139,7031.39
703248,7032.48
703347,7033.47
703449,7034.49
703564,7035.64
703679,7036.79
703784,7037.84
703889,7038.89
704005,7040.05
704127,7041.27
704243,7042.43
704352,7043.52
704462,7044.62
704573,7045.73
704678,7046.78
704778,7047.78
704887,7048.87
705009,7050.09
705120,7051.2
705227,7052.27
705339,7053.39
705454,7054.54
705562,7055.62
705663,7056.63
705769,7057.69
705888,7058.88
706006,7060.06
706116,7061.16
706225,7062.25
706342,7063.42
706461,7064.61
706572,7065.72
706677,7066.77
706788,7067.88
706904,7069.04
707013,7070.13
707117,7071.17
707229,7072.29
707340,7073.4
707445,7074.45
707548,7075.48
707655,7076.55
707764,7077.64
707869,7078.69
707967,7079.67
708069,7080.69
708178,7081.78
708282,7082.82
708382,7083.82
708484,7084.84
708596,7085.96
708708,7087.08
708814,7088.14
708920,7089.2
709027,7090.27
709139,7091.39
709244,7092.44
709342,7093.42
709453,7094.53
709574,7095.74
709689,7096.89
709793,7097.93
709896,7098.96
710003,7100.03
710105,7101.05
710202,7102.02
710308,7103.08
710420,7104.2
710529,7105.29
710633,7106.33
710737,7107.37
710846,7108.46
710955,7109.55
711058,7110.58
711160,7111.6
711279,7112.79
711400,7114.0
711511,7115.11
711611,7116.11
711713,7117.13
711821,7118.21
711927,7119.27
712026,7120.26
712127,7121.27
712234,7122.34
712349,7123.49
712460,7124.6
712564,7125.64
712672,7126.72
712784,7127.84
712895,7128.95
712997,7129.97
713097,7130.97
713199,7131.99
713305,7133.05
713406,7134.06
713502,7135.02
713613,7136.13
713726,7137.26
713833,7138.33
713933,7139.33
714035,7140.35
714145,7141.45
714262,7142.62
714373,7143.73
714479,7144.79
714593,7145.93
714711,7147.11
714822,7148.22
714934,7149.34
715047,7150.47
715155,7151.55
715255,7152.55
715355,7153.55
715461,7154.61
715573,7155.73
715682,7156.82
715785,7157.85
715895,7158.95
716005,7160.05
716114,7161.14
716214,7162.14
716315,7163.15
716427,7164.27
716538,7165.38
716640,7166.4
716738,7167.38
716840,7168.4
716937,7169.37
717029,7170.29
717117,7171.17
717203,7172.03
717300,7173.0
717412,7174.12
717533,7175.33
717651,7176.51
717770,7177.7
717892,7178.92
718011,7180.11
718128,7181.28
718245,7182.45
718362,7183.62
718476,7184.76
718587,7185.87
718689,7186.89
718798,7187.98
718916,7189.16
719030,7190.3
719135,7191.35
719246,7192.46
719358,7193.58
719468,7194.68
719572,7195.72
719678,7196.78
719793,7197.93
719907,7199.07
720012,7200.12
720110,7201.1
720210,7202.1
720313,7203.13
720417,7204.17
720516,7205.16
720613,7206.13
720722,7207.22
720843,7208.43
720954,7209.54
721056,7210.56
721157,7211.57
721261,7212.61
721384,7213.84
721498,7214.98
721606,7216.06
721721,7217.21
721840,7218.4
721948,7219.48
722049,7220.49
722149,7221.49
722261,7222.61
722378,7223.78
722487,7224.87
722589,7225.89
722693,7226.93
722795,7227.95
722895,7228.95
722991,7229.91
723085,7230.85
723189,7231.89
723307,7233.07
723427,7234.27
723536,7235.36
723644,7236.44
723757,7237.57
723869,7238.69
723971,7239.71
724068,7240.68
724170,7241.7
724272,7242.72
724370,7243.7
724467,7244.67
724570,7245.7
724691,7246.91
724804,7248.04
724909,7249.09
725018,7250.18
725133,7251.33
725243,7252.43
725342,7253.42
725439,7254.39
725539,7255.39
725650,7256.5
725755,7257.55
725855,7258.55
725965,7259.65
726080,7260.8
726185,7261.85
726283,7262.83
726380,7263.8
726481,7264.81
726586,7265.86
726689,7266.89
726790,7267.9
726903,7269.03
727028,7270.28
727148,7271.48
727257,7272.57
727364,7273.64
727479,7274.79
727596,7275.96
727704,7277.04
727809,7278.09
727919,7279.19
728033,7280.33
728138,7281.38
728238,7282.38
728342,7283.42
728453,7284.53
728565,7285.65
728672,7286.72
728778,7287.78
728894,7288.94
729009,7290.09
729114,7291.14
729210,7292.1
729307,7293.07
729412,7294.12
729525,7295.25
729631,7296.31
729732,7297.32
729844,7298.44
729961,7299.61
730068,7300.68
730170,7301.7
730279,7302.79
730396,7303.96
730508,7305.08
730611,7306.11
730714,7307.14
730821,7308.21
730928,7309.28
731027,7310.27
731123,7311.23
731223,7312.23
731337,7313.37
731452,7314.52
731563,7315.63
731665,7316.65
731774,7317.74
731887,7318.87
731994,7319.94
732093,7320.93
732196,7321.96
732307,7323.07
732420,7324.2
732528,7325.28
732630,7326.3
732737,7327.37
732855,7328.55
732974,7329.74
733076,7330.76
733183,7331.83
733297,7332.97
733411,7334.11
733511,7335.11
733612,7336.12
733727,7337.27
733845,7338.45
733957,7339.57
734061,7340.61
734176,7341.76
734290,7342.9
734394,7343.94
734491,7344.91
734599,7345.99
734719,7347.19
734834,7348.34
734941,7349.41
735049,7350.49
735163,7351.63
735271,7352.71
735372,7353.72
735473,7354.73
735578,7355.78
735687,7356.87
735790,7357.9
735889,7358.89
736000,7360.0
736114,7361.14
736226,7362.26
736327,7363.27
736431,7364.31
736538,7365.38
736644,7366.44
736743,7367.43
736841,7368.41
736952,7369.52
737071,7370.71
737181,7371.81
737283,7372.83
737390,7373.9
737499,7374.99
737604,7376.04
737701,7377.01
737791,7377.91
737888,7378.88
737985,7379.85
738090,7380.9
738187,7381.87
738284,7382.84
738400,7384.0
738522,7385.22
738641,7386.41
738748,7387.48
738855,7388.55
738973,7389.73
739089,7390.89
739194,7391.94
739299,7392.99
739420,7394.2
739537,7395.37
739643,7396.43
739743,7397.43
739847,7398.47
739959,7399.59
740064,7400.64
740163,7401.63
740267,7402.67
740386,7403.86
740501,7405.01
740605,7406.05
740707,7407.07
740816,7408.16
740928,7409.28
741029,7410.29
741124,7411.24
741223,7412.23
741333,7413.33
741440,7414.4
741537,7415.37
741630,7416.3
741729,7417.29
741828,7418.28
741920,7419.2
742009,7420.09
742103,7421.03
742197,7421.97
742293,7422.93
742391,7423.91
742486,7424.86
742594,7425.94
742719,7427.19
742837,7428.37
742944,7429.44
743048,7430.48
743157,7431.57
743264,7432.64
743366,7433.66
743470,7434.7
743594,7435.94
743717,7437.17
743827,7438.27
743930,7439.3
744039,7440.39
744151,7441.51
744257,7442.57
744359,7443.59
744460,7444.6
744572,7445.72
744688,7446.88
744796,7447.96
744900,7449.0
745012,7450.12
745121,7451.21
745225,7452.25
745321,7453.21
745417,7454.17
745523,7455.23
745636,7456.36
745740,7457.4
745841,7458.41
745954,7459.54
746070,7460.7
746179,7461.79
746279,7462.79
746390,7463.9
746504,7465.04
746611,7466.11
746708,7467.08
746805,7468.05
746903,7469.03
747003,7470.03
747101,7471.01
747196,7471.96
747297,7472.97
747414,7474.14
747529,7475.29
747637,7476.37
747740,7477.4
747858,7478.58
747974,7479.74
748083,7480.83
748184,7481.84
748282,7482.82
748383,7483.83
748492,7484.92
748596,7485.96
748692,7486.92
748795,7487.95
748912,7489.12
749030,7490.3
749136,7491.36
749233,7492.33
749333,7493.33
749434,7494.34
749541,7495.41
749639,7496.39
749736,7497.36
749839,7498.39
749952,7499.52
750068,7500.68
750174,7501.74
750278,7502.78
750385,7503.85
750490,7504.9
750587,7505.87
750688,7506.88
750795,7507.95
750909,7509.09
751014,7510.14
751116,7511.16
751221,7512.21
751334,7513.34
751442,7514.42
751540,7515.4
751639,7516.39
751741,7517.41
751849,7518.49
751950,7519.5
752047,7520.47
752152,7521.52
752258,7522.58
752358,7523.58
752454,7524.54
752555,7525.55
752665,7526.65
752773,7527.73
752879,7528.79
752983,7529.83
753097,7530.97
753212,7532.12
753314,7533.14
753410,7534.1
753516,7535.16
753639,7536.39
753750,7537.5
753855,7538.55
753959,7539.59
754070,7540.7
754179,7541.79
754277,7542.77
754374,7543.74
754477,7544.77
754586,7545.86
754691,7546.91
754790,7547.9
754892,7548.92
755007,7550.07
755122,7551.22
755230,7552.3
755337,7553.37
755455,7554.55
755565,7555.65
755669,7556.69
755768,7557.68
755874,7558.74
755984,7559.84
756087,7560.87
756186,7561.86
756293,7562.93
756398,7563.98
756500,7565.0
756613,7566.13
756727,7567.27
756833,7568.33
756926,7569.26
757022,7570.22
757124,7571.24
757227,7572.27
757326,7573.26
757428,7574.28
757555,7575.55
757677,7576.77
757795,7577.95
757906,7579.06
758017,7580.17
758131,7581.31
758236,7582.36
758334,7583.34
758439,7584.39
758549,7585.49
758648,7586.48
758742,7587.42
758835,7588.35
758936,7589.36
759041,7590.41
759147,7591.47
759249,7592.49
759360,7593.6
759481,7594.81
759599,7595.99
759706,7597.06
759809,7598.09
759916,7599.16
760022,7600.22
760122,7601.22
760217,7602.17
760313,7603.13
760415,7604.15
760534,7605.34
760645,7606.45
760755,7607.55
760875,7608.75
760992,7609.92
761096,7610.96
761195,7611.95
761302,7613.02
761407,7614.07
761506,7615.06
761610,7616.1
761733,7617.33
761851,7618.51
761959,7619.59
762059,7620.59
762165,7621.65
762276,7622.76
762380,7623.8
762478,7624.78
762578,7625.78
762689,7626.89
762804,7628.04
762913,7629.13
763013,7630.13
763119,7631.19
763230,7632.3
763339,7633.39
763439,7634.39
763541,7635.41
763647,7636.47
763760,7637.6
763866,7638.66
763969,7639.69
764075,7640.75
764182,7641.82
764279,7642.79
764374,7643.74
764469,7644.69
764570,7645.7
764667,7646.67
764763,7647.63
764870,7648.7
764986,7649.86
765096,7650.96
765197,7651.97
765304,7653.04
765417,7654.17
765522,7655.22
765618,7656.18
765719,7657.19
765822,7658.22
765934,7659.34
766038,7660.38
766144,7661.44
766260,7662.6
766378,7663.78
766487,7664.87
766591,7665.91
766700,7667.0
766814,7668.14
766921,7669.21
767022,7670.22
767131,7671.31
767249,7672.49
767364,7673.64
767468,7674.68
767570,7675.7
767679,7676.79
767794,7677.94
767903,7679.03
768000,7680.0
768103,7681.03
768206,7682.06
768310,7683.1
768407,7684.07
768504,7685.04
768609,7686.09
768731,7687.31
768843,7688.43
768945,7689.45
769050,7690.5
769155,7691.55
769253,7692.53
769349,7693.49
769445,7694.45
769558,7695.58
769675,7696.75
769781,7697.81
769880,7698.8
769988,7699.88
770100,7701.0
770205,7702.05
770304,7703.04
770403,7704.03
770510,7705.1
770616,7706.16
770718,7707.18
770819,7708.19
770930,7709.3
771036,7710.36
771135,7711.35
771238,7712.38
771350,7713.5
771457,7714.57
771558,7715.58
771661,7716.61
771770,7717.7
771886,7718.86
771991,7719.91
772089,7720.89
772193,7721.93
772301,7723.01
772402,7724.02
772498,7724.98
772598,7725.98
772704,7727.04
772808,7728.08
772905,7729.05
773000,7730.0
773103,7731.03
773212,7732.12
773320,7733.2
773418,7734.18
773518,7735.18
773617,7736.17
773718,7737.18
773814,7738.14
773907,7739.07
774010,7740.1
774127,7741.27
774240,7742.4
774347,7743.47
774454,7744.54
774570,7745.7
774683,7746.83
774789,7747.89
774885,7748.85
774983,7749.83
775082,7750.82
775178,7751.78
775273,7752.73
775382,7753.82
775510,7755.1
775630,7756.3
775739,7757.39
775845,7758.45
775957,7759.57
776061,7760.61
776159,7761.59
776257,7762.57
776365,7763.65
776470,7764.7
776571,7765.71
776668,7766.68
776771,7767.71
776876,7768.76
776976,7769.76
777073,7770.73
777170,7771.7
777284,7772.84
777402,7774.02
777507,7775.07
777606,7776.06
777713,7777.13
777824,7778.24
777929,7779.29
778029,7780.29
778134,7781.34
778242,7782.42
778350,7783.5
778449,7784.49
778551,7785.51
778659,7786.59
778771,7787.71
778875,7788.75
778970,7789.7
779074,7790.74
779177,7791.77
779278,7792.78
779372,7793.72
779464,7794.64
779575,7795.75
779695,7796.95
779810,7798.1
779914,7799.14
780018,7800.18
780124,7801.24
780221,7802.21
780313,7803.13
780403,7804.03
780504,7805.04
780610,7806.1
780714,7807.14
780816,7808.16
780926,7809.26
781051,7810.51
781167,7811.67
781270,7812.7
781368,7813.68
781476,7814.76
781594,7815.94
781701,7817.01
781801,7818.01
781904,7819.04
782011,7820.11
782117,7821.17
782215,7822.15
782309,7823.09
782407,7824.07
782505,7825.05
782614,7826.14
782720,7827.2
782819,7828.19
782928,7829.28
783047,7830.47
783155,7831.55
783255,7832.55
783367,7833.67
783482,7834.82
783583,7835.83
783678,7836.78
783778,7837.78
783884,7838.84
783992,7839.92
784092,7840.92
784187,7841.87
784292,7842.92
784406,7844.06
784505,7845.05
784600,7846.0
784699,7846.99
784801,7848.01
784901,7849.01
784997,7849.97
785091,7850.91
785199,7851.99
785322,7853.22
785430,7854.3
785528,7855.28
785627,7856.27
785727,7857.27
785831,7858.31
785929,7859.29
786026,7860.26
786132,7861.32
786251,7862.51
786361,7863.61
786455,7864.55
786543,7865.43
786630,7866.3
786721,7867.21
786810,7868.1
786897,7868.97
786986,7869.86
787114,7871.14
787237,7872.37
787356,7873.56
787474,7874.74
787594,7875.94
787711,7877.11
787812,7878.12
787906,7879.06
788009,7880.09
788131,7881.31
788247,7882.47
788353,7883.53
788460,7884.6
788578,7885.78
788695,7886.95
788796,7887.96
788895,7888.95
789002,7890.02
789125,7891.25
789235,7892.35
789336,7893.36
789447,7894.47
789564,7895.64
789678,7896.78
789777,7897.77
789878,7898.78
789983,7899.83
790088,7900.88
790184,7901.84
790277,7902.77
790379,7903.79
790506,7905.06
790626,7906.26
790732,7907.32
790834,7908.34
790942,7909.42
791051,7910.51
791152,7911.52
791246,7912.46
791344,7913.44
791456,7914.56
791572,7915.72
791677,7916.77
791780,7917.8
791891,7918.91
792008,7920.08
792111,7921.11
792209,7922.09
792312,7923.12
792430,7924.3
792545,7925.45
792646,7926.46
792745,7927.45
792850,7928.5
792969,7929.69
793077,7930.77
793176,7931.76
793279,7932.79
793389,7933.89
793501,7935.01
793603,7936.03
793704,7937.04
793820,7938.2
793942,7939.42
794048,7940.48
794147,7941.47
794251,7942.51
794367,7943.67
794483,7944.83
794586,7945.86
794685,7946.85
794792,7947.92
794902,7949.02
795004,7950.04
795099,7950.99
795196,7951.96
795298,7952.98
795404,7954.04
795502,7955.02
795595,7955.95
795692,7956.92
795799,7957.99
795914,7959.14
796021,7960.21
796120,7961.2
796229,7962.29
796342,7963.42
796451,7964.51
796549,7965.49
796645,7966.45
796747,7967.47
796860,7968.6
796963,7969.63
797059,7970.59
797158,7971.58
797271,7972.71
797382,7973.82
797488,7974.88
797594,7975.94
797709,7977.09
797827,7978.27
797935,7979.35
798035,7980.35
798140,7981.4
798255,7982.55
798363,7983.63
798464,7984.64
798575,7985.75
798687,7986.87
798790,7987.9
798883,7988.83
798976,7989.76
799075,7990.75
799194,7991.94
799304,7993.04
799406,7994.06
799510,7995.1
799618,7996.18
799724,7997.24
799820,7998.2
799912,7999.12
800009,8000.09
800114,8001.14
800221,8002.21
800324,8003.24
800431,8004.31
800556,8005.56
800674,8006.74
800783,8007.83
800888,8008.88
800999,8009.99
801113,8011.13
801216,8012.16
801311,8013.11
801411,8014.11
801517,8015.17
801618,8016.18
801715,8017.15
801815,8018.15
801925,8019.25
802034,8020.34
802133,8021.33
802227,8022.27
802324,8023.24
802431,8024.31
802538,8025.38
802638,8026.38
802735,8027.35
802840,8028.4
802957,8029.57
803064,8030.64
803163,8031.63
803263,8032.63
803371,8033.71
803476,8034.76
803572,8035.72
803664,8036.64
803758,8037.58
803856,8038.56
803960,8039.6
804056,8040.56
804149,8041.49
804257,8042.57
804372,8043.72
804485,8044.85
804587,8045.87
804684,8046.84
804788,8047.88
804890,8048.9
804985,8049.85
805075,8050.75
805178,8051.78
805287,8052.87
805393,8053.93
805493,8054.93
805586,8055.86
805689,8056.89
805803,8058.03
805911,8059.11
806009,8060.09
806106,8061.06
806213,8062.13
806323,8063.23
806423,8064.23
806519,8065.19
806617,8066.17
806722,8067.22
806825,8068.25
806920,8069.2
807009,8070.09
807103,8071.03
807201,8072.01
807301,8073.01
807395,8073.95
807487,8074.87
807591,8075.91
807712,8077.12
807823,8078.23
807921,8079.21
808023,8080.23
808136,8081.36
808248,8082.48
808351,8083.51
808444,8084.44
808543,8085.43
808647,8086.47
808749,8087.49
808845,8088.45
808942,8089.42
809057,8090.57
809178,8091.78
809284,8092.84
809383,8093.83
809490,8094.9
809598,8095.98
809698,8096.98
809793,8097.93
809891,8098.91
809992,8099.92
810101,8101.01
810199,8101.99
810297,8102.97
810404,8104.04
810508,8105.08
810602,8106.02
810696,8106.96
810791,8107.91
810886,8108.86
810986,8109.86
811083,8110.83
811178,8111.78
811286,8112.86
811410,8114.1
811525,8115.25
811627,8116.27
811724,8117.24
811827,8118.27
811932,8119.32
812030,8120.3
812123,8121.23
812219,8122.19
812321,8123.21
812433,8124.33
812540,8125.4
812638,8126.38
812738,8127.38
812845,8128.45
812953,8129.53
813050,8130.5
813146,8131.46
813250,8132.5
813366,8133.66
813477,8134.77
813577,8135.77
813678,8136.78
813782,8137.82
813891,8138.91
813989,8139.89
814089,8140.89
814197,8141.97
814298,8142.98
814393,8143.93
814499,8144.99
814613,8146.13
814726,8147.26
814825,8148.25
814922,8149.22
815025,8150.25
815132,8151.32
815231,8152.31
815329,8153.29
815436,8154.36
815557,8155.57
815668,8156.68
815771,8157.71
815873,8158.73
815980,8159.8
816088,8160.88
816186,8161.86
816279,8162.79
816380,8163.8
816484,8164.84
816589,8165.89
816685,8166.85
816779,8167.79
816882,8168.82
816990,8169.9
817096,8170.96
817196,8171.96
817303,8173.03
817426,8174.26
817545,8175.45
817653,8176.53
817752,8177.52
817856,8178.56
817964,8179.64
818066,8180.66
818163,8181.63
818273,8182.73
818393,8183.93
818506,8185.06
818607,8186.07
818709,8187.09
818811,8188.11
818919,8189.19
819015,8190.15
819108,8191.08
819205,8192.05
819305,8193.05
819413,8194.13
819512,8195.12
819609,8196.09
819707,8197.07
819813,8198.13
819922,8199.22
820021,8200.21
820117,8201.17
820218,8202.18
820323,8203.23
820424,8204.24
820521,8205.21
820614,8206.14
820718,8207.18
820830,8208.3
820932,8209.32
821028,8210.28
821127,8211.27
821236,8212.36
821338,8213.38
821434,8214.34
821532,8215.32
821634,8216.34
821735,8217.35
821830,8218.3
821923,8219.23
822021,8220.21
822131,8221.31
822243,8222.43
822345,8223.45
822442,8224.42
822546,8225.46
822656,8226.56
822762,8227.62
822859,8228.59
822953,8229.53
823051,8230.51
823149,8231.49
823247,8232.47
823337,8233.37
823434,8234.34
823541,8235.41
823663,8236.63
823774,8237.74
823877,8238.77
823988,8239.88
824103,8241.03
824207,8242.07
824303,8243.03
824401,8244.01
824503,8245.03
824604,8246.04
824700,8247.0
824791,8247.91
824892,8248.92
824997,8249.97
825097,8250.97
825192,8251.92
825283,8252.83
825382,8253.82
825478,8254.78
825570,8255.7
825660,8256.6
825751,8257.51
825852,8258.52
825964,8259.64
826067,8260.67
826164,8261.64
826262,8262.62
826369,8263.69
826473,8264.73
826572,8265.72
826674,8266.74
826783,8267.83
826895,8268.95
826995,8269.95
827090,8270.9
827189,8271.89
827293,8272.93
827393,8273.93
827477,8274.77
827561,8275.61
827649,8276.49
827744,8277.44
827835,8278.35
827924,8279.24
828012,8280.12
828103,8281.03
828188,8281.88
828272,8282.72
828355,8283.55
828440,8284.4
828528,8285.28
828614,8286.14
828700,8287.0
828802,8288.02
828896,8288.96
828984,8289.84
829070,8290.7
829165,8291.65
829256,8292.56
829351,8293.51
829442,8294.42
829554,8295.54
829685,8296.85
829811,8298.11
829932,8299.32
830053,8300.53
830173,8301.73
830287,8302.87
830397,8303.97
830501,8305.01
830603,8306.03
830698,8306.98
830791,8307.91
830883,8308.83
830979,8309.79
831080,8310.8
831185,8311.85
831302,8313.02
831420,8314.2
831548,8315.48
831679,8316.79
831806,8318.06
831930,8319.3
832051,8320.51
832166,8321.66
832282,8322.82
832390,8323.9
832492,8324.92
832603,8326.03
832723,8327.23
832841,8328.41
832950,8329.5
833054,8330.54
833163,8331.63
833276,8332.76
833382,8333.82
833481,8334.81
833585,8335.85
833707,8337.07
833827,8338.27
833936,8339.36
834038,8340.38
834150,8341.5
834269,8342.69
834381,8343.81
834486,8344.86
834588,8345.88
834699,8346.99
834810,8348.1
834915,8349.15
835014,8350.14
835123,8351.23
835230,8352.3
835334,8353.34
835435,8354.35
835535,8355.35
835645,8356.45
835768,8357.68
835882,8358.82
835992,8359.92
836103,8361.03
836226,8362.26
836338,8363.38
836444,8364.44
836563,8365.63
836686,8366.86
836801,8368.01
836903,8369.03
837007,8370.07
837115,8371.15
837227,8372.27
837330,8373.3
837428,8374.28
837525,8375.25
837625,8376.25
837718,8377.18
837804,8378.04
837893,8378.93
837980,8379.8
838067,8380.67
838157,8381.57
838244,8382.44
838328,8383.28
838408,8384.08
838486,8384.86
838563,8385.63
838639,8386.39
838714,8387.14
838789,8387.89
838864,8388.64
838939,8389.39
839013,8390.13
839089,8390.89
839166,8391.66
839243,8392.43
839321,8393.21
839399,8393.99
839473,8394.73
839548,8395.48
839622,8396.22
839694,8396.94
839765,8397.65
839836,8398.36
839905,8399.05
839972,8399.72
840039,8400.39
840106,8401.06
840175,8401.75
840249,8402.49
840344,8403.44
840450,8404.5
840556,8405.56
840665,8406.65
840775,8407.75
840885,8408.85
840997,8409.97
841110,8411.1
841222,8412.22
841329,8413.29
841442,8414.42
841559,8415.59
841671,8416.71
841780,8417.8
841868,8418.68
841946,8419.46
842023,8420.23
842097,8420.97
842179,8421.79
842292,8422.92
842405,8424.05
842509,8425.09
842622,8426.22
842739,8427.39
842850,8428.5
842960,8429.6
843070,8430.7
843170,8431.7
843260,8432.6
843347,8433.47
843472,8434.72
843590,8435.9
843706,8437.06
843820,8438.2
843933,8439.33
844052,8440.52
844174,8441.74
844302,8443.02
844424,8444.24
844539,8445.39
844646,8446.46
844754,8447.54
844883,8448.83
845002,8450.02
845118,8451.18
845240,8452.4
845362,8453.62
845480,8454.8
845595,8455.95
845705,8457.05
845803,8458.03
845894,8458.94
845980,8459.8
846068,8460.68
846164,8461.64
846250,8462.5
846338,8463.38
846469,8464.69
846588,8465.88
846712,8467.12
846840,8468.4
846967,8469.67
847088,8470.88
847205,8472.05
847318,8473.18
847437,8474.37
847552,8475.52
847671,8476.71
847795,8477.95
847916,8479.16
848030,8480.3
848145,8481.45
848258,8482.58
848377,8483.77
848495,8484.95
848603,8486.03
848715,8487.15
848826,8488.26
848942,8489.42
849048,8490.48
849159,8491.59
849279,8492.79
849398,8493.98
849514,8495.14
849623,8496.23
849738,8497.38
849858,8498.58
849973,8499.73
850078,8500.78
850186,8501.86
850311,8503.11
850426,8504.26
850537,8505.37
850649,8506.49
850762,8507.62
850876,8508.76
850986,8509.86
851096,8510.96
851204,8512.04
851309,8513.09
851412,8514.12
851514,8515.14
851636,8516.36
851757,8517.57
851873,8518.73
851988,8519.88
852104,8521.04
852220,8522.2
852334,8523.34
852445,8524.45
852559,8525.59
852676,8526.76
852792,8527.92
852905,8529.05
853019,8530.19
853134,8531.34
853249,8532.49
853361,8533.61
853473,8534.73
853582,8535.82
853693,8536.93
853796,8537.96
853897,8538.97
854008,8540.08
854126,8541.26
854242,8542.42
854340,8543.4
854428,8544.28
854508,8545.08
854588,8545.88
854672,8546.72
854792,8547.92
854904,8549.04
855017,8550.17
855129,8551.29
855246,8552.46
855363,8553.63
855476,8554.76
855594,8555.94
855715,8557.15
855836,8558.36
855955,8559.55
856076,8560.76
856196,8561.96
856316,8563.16
856432,8564.32
856547,8565.47
856663,8566.63
856777,8567.77
856890,8568.9
857005,8570.05
857120,8571.2
857233,8572.33
857345,8573.45
857460,8574.6
857574,8575.74
857684,8576.84
857796,8577.96
857914,8579.14
858033,8580.33
858152,8581.52
858266,8582.66
858381,8583.81
858498,8584.98
858612,8586.12
858723,8587.23
858835,8588.35
858951,8589.51
859061,8590.61
859164,8591.64
859277,8592.77
859401,8594.01
859521,8595.21
859633,8596.33
859744,8597.44
859862,8598.62
859958,8599.58
860055,8600.55
860174,8601.74
860295,8602.95
860412,8604.12
860526,8605.26
860641,8606.41
860758,8607.58
860872,8608.72
860974,8609.74
861068,8610.68
861160,8611.6
861245,8612.45
861329,8613.29
861411,8614.11
861494,8614.94
861576,8615.76
861656,8616.56
861737,8617.37
861821,8618.21
861903,8619.03
861991,8619.91
862095,8620.95
862221,8622.21
862339,8623.39
862459,8624.59
862581,8625.81
862706,8627.06
862829,8628.29
862949,8629.49
863071,8630.71
863194,8631.94
863313,8633.13
863424,8634.24
863528,8635.28
863635,8636.35
863752,8637.52
863865,8638.65
863971,8639.71
864083,8640.83
864197,8641.97
864308,8643.08
864403,8644.03
864491,8644.91
864580,8645.8
864705,8647.05
864824,8648.24
864943,8649.43
865061,8650.61
865187,8651.87
865313,8653.13
865434,8654.34
865552,8655.52
865675,8656.75
865797,8657.97
865915,8659.15
866025,8660.25
866140,8661.4
866263,8662.63
866378,8663.78
866481,8664.81
866585,8665.85
866698,8666.98
866809,8668.09
866914,8669.14
867019,8670.19
867142,8671.42
867262,8672.62
867376,8673.76
867480,8674.8
867587,8675.87
867706,8677.06
867816,8678.16
867923,8679.23
868039,8680.39
868167,8681.67
868287,8682.87
868397,8683.97
868508,8685.08
868624,8686.24
868740,8687.4
868848,8688.48
868961,8689.61
869086,8690.86
869206,8692.06
869316,8693.16
869424,8694.24
869535,8695.35
869650,8696.5
869762,8697.62
869870,8698.7
869989,8699.89
870106,8701.06
870214,8702.14
870313,8703.13
870414,8704.14
870518,8705.18
870620,8706.2
870719,8707.19
870822,8708.22
870951,8709.51
871074,8710.74
871193,8711.93
871309,8713.09
871424,8714.24
871537,8715.37
871639,8716.39
871735,8717.35
871840,8718.4
871960,8719.6
872074,8720.74
872178,8721.78
872284,8722.84
872400,8724.0
872516,8725.16
872624,8726.24
872725,8727.25
872838,8728.38
872954,8729.54
873064,8730.64
873164,8731.64
873262,8732.62
873364,8733.64
873469,8734.69
873569,8735.69
873666,8736.66
873772,8737.72
873897,8738.97
874013,8740.13
874121,8741.21
874234,8742.34
874356,8743.56
874470,8744.7
874577,8745.77
874694,8746.94
874810,8748.1
874922,8749.22
875027,8750.27
875130,8751.3
875239,8752.39
875352,8753.52
875455,8754.55
875553,8755.53
875656,8756.56
875772,8757.72
875888,8758.88
875995,8759.95
876104,8761.04
876218,8762.18
876332,8763.32
876434,8764.34
876528,8765.28
876630,8766.3
876744,8767.44
876862,8768.62
876969,8769.69
877080,8770.8
877207,8772.07
877325,8773.25
877432,8774.32
877538,8775.38
877648,8776.48
877757,8777.57
877858,8778.58
877958,8779.58
878085,8780.85
878207,8782.07
878320,8783.2
878427,8784.27
878535,8785.35
878646,8786.46
878747,8787.47
878844,8788.44
878948,8789.48
879065,8790.65
879180,8791.8
879288,8792.88
879392,8793.92
879504,8795.04
879622,8796.22
879730,8797.3
879826,8798.26
879926,8799.26
880039,8800.39
880161,8801.61
880275,8802.75
880392,8803.92
880503,8805.03
880602,8806.02
880694,8806.94
880788,8807.88
880892,8808.92
881025,8810.25
881145,8811.45
881264,8812.64
881387,8813.87
881509,8815.09
881625,8816.25
881737,8817.37
881844,8818.44
881955,8819.55
882063,8820.63
882163,8821.63
882265,8822.65
882377,8823.77
882497,8824.97
882609,8826.09
882716,8827.16
882824,8828.24
882933,8829.33
883034,8830.34
883131,8831.31
883240,8832.4
883367,8833.67
883486,8834.86
883594,8835.94
883704,8837.04
883818,8838.18
883926,8839.26
884027,8840.27
884129,8841.29
884252,8842.52
884365,8843.65
884468,8844.68
884573,8845.73
884690,8846.9
884806,8848.06
884913,8849.13
885021,8850.21
885130,8851.3
885241,8852.41
885347,8853.47
885447,8854.47
885557,8855.57
885676,8856.76
885793,8857.93
885904,8859.04
886017,8860.17
886133,8861.33
886244,8862.44
886344,8863.44
886443,8864.43
886543,8865.43
886647,8866.47
886751,8867.51
886853,8868.53
886972,8869.72
887090,8870.9
887199,8871.99
887305,8873.05
887414,8874.14
887525,8875.25
887630,8876.3
887733,8877.33
887848,8878.48
887968,8879.68
888077,8880.77
888176,8881.76
888276,8882.76
888382,8883.82
888485,8884.85
888586,8885.86
888692,8886.92
888797,8887.97
888902,8889.02
889003,8890.03
889106,8891.06
889233,8892.33
889354,8893.54
889462,8894.62
889569,8895.69
889674,8896.74
889779,8897.79
889882,8898.82
889991,8899.91
890117,8901.17
890240,8902.4
890354,8903.54
890462,8904.62
890582,8905.82
890705,8907.05
890819,8908.19
890926,8909.26
891033,8910.33
891142,8911.42
891244,8912.44
891340,8913.4
891436,8914.36
891546,8915.46
891664,8916.64
891777,8917.77
891885,8918.85
892001,8920.01
892119,8921.19
892228,8922.28
892329,8923.29
892433,8924.33
892545,8925.45
892657,8926.57
892764,8927.64
892876,8928.76
892992,8929.92
893106,8931.06
893211,8932.11
893317,8933.17
893431,8934.31
893547,8935.47
893657,8936.57
893764,8937.64
893869,8938.69
893976,8939.76
894076,8940.76
894175,8941.75
894293,8942.93
894416,8944.16
894529,8945.29
894640,8946.4
894757,8947.57
894871,8948.71
894979,8949.79
895086,8950.86
895200,8952.0
895310,8953.1
895415,8954.15
895514,8955.14
895626,8956.26
895744,8957.44
895853,8958.53
895954,8959.54
896058,8960.58
896168,8961.68
896274,8962.74
896375,8963.75
896472,8964.72
896572,8965.72
896677,8966.77
896776,8967.76
896873,8968.73
896975,8969.75
897096,8970.96
897217,8972.17
897318,8973.18
897411,8974.11
897508,8975.08
897616,8976.16
897725,8977.25
897828,8978.28
897934,8979.34
898049,8980.49
898165,8981.65
898274,8982.74
898381,8983.81
898495,8984.95
898617,8986.17
898728,8987.28
898833,8988.33
898946,8989.46
899067,8990.67
899181,8991.81
899288,8992.88
899403,8994.03
899520,8995.2
899631,8996.31
899737,8997.37
899849,8998.49
899962,8999.62
900069,9000.69
900172,9001.72
900283,9002.83
900403,9004.03
900514,9005.14
900620,9006.2
900727,9007.27
900834,9008.34
900935,9009.35
901031,9010.31
901135,9011.35
901256,9012.56
901377,9013.77
901485,9014.85
901589,9015.89
901695,9016.95
901801,9018.01
901904,9019.04
902003,9020.03
902107,9021.07
902219,9022.19
902327,9023.27
902427,9024.27
902527,9025.27
902638,9026.38
902752,9027.52
902856,9028.56
902956,9029.56
903065,9030.65
903180,9031.8
903290,9032.9
903390,9033.9
903489,9034.89
903594,9035.94
903703,9037.03
903805,9038.05
903902,9039.02
904006,9040.06
904115,9041.15
904224,9042.24
904327,9043.27
904427,9044.27
904533,9045.33
904646,9046.46
904754,9047.54
904858,9048.58
904966,9049.66
905081,9050.81
905196,9051.96
905300,9053.0
905399,9053.99
905505,9055.05
905620,9056.2
905731,9057.31
905834,9058.34
905942,9059.42
906062,9060.62
906177,9061.77
906283,9062.83
906393,9063.93
906498,9064.98
906601,9066.01
906697,9066.97
906793,9067.93
906897,9068.97
907011,9070.11
