sample,time_sec
28027,280.27
28177,281.77
28223,282.23
28265,282.65
28307,283.07
28348,283.48
28412,284.12
28480,284.8
28522,285.22
28566,285.66
28616,286.16
28656,286.56
28703,287.03
28767,287.67
28841,288.41
28878,288.78
28910,289.1
28965,289.65
29095,290.95
29196,291.96
29271,292.71
42994,429.94
50066,500.66
57139,571.39
57561,575.61
57681,576.81
57780,577.8
57820,578.2
57859,578.59
57983,579.83
58066,580.66
58097,580.97
58193,581.93
58308,583.08
58346,583.46
58395,583.95
58491,584.91
58584,585.84
58678,586.78
58772,587.72
58865,588.65
58955,589.55
59044,590.44
59134,591.34
59224,592.24
59315,593.15
59406,594.06
59496,594.96
59583,595.83
59614,596.14
59682,596.82
59724,597.24
59767,597.67
59817,598.17
59963,599.63
60047,600.47
60157,601.57
60280,602.8
60403,604.03
60494,604.94
60591,605.91
60682,606.82
60771,607.71
60861,608.61
60953,609.53
61043,610.43
61132,611.32
61224,612.24
61316,613.16
61406,614.06
61499,614.99
61591,615.91
61680,616.8
61771,617.71
61862,618.62
61951,619.51
62039,620.39
62129,621.29
62222,622.22
62312,623.12
62399,623.99
62490,624.9
62582,625.82
62674,626.74
62765,627.65
62855,628.55
62947,629.47
63041,630.41
63131,631.31
63224,632.24
63318,633.18
63409,634.09
63497,634.97
63586,635.86
63675,636.75
63767,637.67
63857,638.57
63945,639.45
64036,640.36
64127,641.27
64217,642.17
64303,643.03
64392,643.92
64482,644.82
64572,645.72
64662,646.62
64751,647.51
64840,648.4
64929,649.29
65019,650.19
65109,651.09
65199,651.99
65285,652.85
65372,653.72
65457,654.57
65543,655.43
65632,656.32
65721,657.21
65801,658.01
65883,658.83
65964,659.64
66044,660.44
66121,661.21
66225,662.25
66329,663.29
66422,664.22
66495,664.95
66567,665.67
66637,666.37
66707,667.07
66775,667.75
66843,668.43
66911,669.11
66978,669.78
67046,670.46
67114,671.14
67178,671.78
67242,672.42
67317,673.17
67393,673.93
67462,674.62
67533,675.33
67605,676.05
67679,676.79
67756,677.56
67836,678.36
67916,679.16
67997,679.97
68077,680.77
68156,681.56
68234,682.34
68311,683.11
68393,683.93
68467,684.67
68542,685.42
68622,686.22
68706,687.06
68792,687.92
68874,688.74
68957,689.57
69041,690.41
69123,691.23
69203,692.03
69282,692.82
69361,693.61
69442,694.42
69525,695.25
69603,696.03
69682,696.82
69769,697.69
69857,698.57
69940,699.4
70025,700.25
70109,701.09
70193,701.93
70274,702.74
70355,703.55
70436,704.36
70517,705.17
70598,705.98
70679,706.79
70758,707.58
70837,708.37
70916,709.16
70997,709.97
71078,710.78
71156,711.56
71234,712.34
71312,713.12
71392,713.92
71472,714.72
71552,715.52
71631,716.31
71710,717.1
71789,717.89
71867,718.67
71943,719.43
72019,720.19
72097,720.97
72176,721.76
72256,722.56
72335,723.35
72415,724.15
72497,724.97
72581,725.81
72662,726.62
72744,727.44
72826,728.26
72907,729.07
72987,729.87
73066,730.66
73146,731.46
73229,732.29
73314,733.14
73396,733.96
73479,734.79
73564,735.64
73651,736.51
73739,737.39
73827,738.27
73909,739.09
73991,739.91
74072,740.72
74154,741.54
74237,742.37
74320,743.2
74405,744.05
74490,744.9
74576,745.76
74660,746.6
74744,747.44
74829,748.29
74916,749.16
75004,750.04
75090,750.9
75177,751.77
75264,752.64
75349,753.49
75432,754.32
75514,755.14
75597,755.97
75680,756.8
75754,757.54
75829,758.29
75907,759.07
75987,759.87
76068,760.68
76153,761.53
76239,762.39
76323,763.23
76408,764.08
76496,764.96
76584,765.84
76672,766.72
76787,767.87
76903,769.03
77001,770.01
77099,770.99
77175,771.75
77250,772.5
77322,773.22
77395,773.95
77460,774.6
77526,775.26
77608,776.08
77690,776.9
77768,777.68
77846,778.46
77924,779.24
78003,780.03
78087,780.87
78171,781.71
78255,782.55
78339,783.39
78425,784.25
78513,785.13
78597,785.97
78683,786.83
78767,787.67
78852,788.52
78937,789.37
79023,790.23
79110,791.1
79196,791.96
79283,792.83
79369,793.69
79457,794.57
79545,795.45
79634,796.34
79723,797.23
79810,798.1
79898,798.98
79986,799.86
80070,800.7
80157,801.57
80244,802.44
80335,803.35
80422,804.22
80511,805.11
80599,805.99
80685,806.85
80768,807.68
80853,808.53
80938,809.38
81023,810.23
81106,811.06
81188,811.88
81272,812.72
81360,813.6
81449,814.49
81532,815.32
81618,816.18
81706,817.06
81796,817.96
81886,818.86
81973,819.73
82060,820.6
82145,821.45
82228,822.28
82312,823.12
82400,824.0
82491,824.91
82584,825.84
82677,826.77
82765,827.65
82855,828.55
82946,829.46
83037,830.37
83127,831.27
83213,832.13
83301,833.01
83389,833.89
83478,834.78
83567,835.67
83650,836.5
83733,837.33
83811,838.11
83892,838.92
83976,839.76
84062,840.62
84146,841.46
84233,842.33
84322,843.22
84412,844.12
84497,844.97
84583,845.83
84672,846.72
84763,847.63
84855,848.55
84946,849.46
85033,850.33
85123,851.23
85213,852.13
85305,853.05
85395,853.95
85482,854.82
85574,855.74
85664,856.64
85749,857.49
85837,858.37
85921,859.21
86005,860.05
86098,860.98
86191,861.91
86273,862.73
86352,863.52
86430,864.3
86507,865.07
86584,865.84
86661,866.61
86741,867.41
86817,868.17
86892,868.92
86968,869.68
87053,870.53
87139,871.39
87238,872.38
87337,873.37
87425,874.25
87512,875.12
87595,875.95
87678,876.78
87760,877.6
87840,878.4
87924,879.24
88009,880.09
88096,880.96
88180,881.8
88265,882.65
88348,883.48
88428,884.28
88506,885.06
88586,885.86
88670,886.7
88755,887.55
88843,888.43
88931,889.31
89019,890.19
89108,891.08
89194,891.94
89280,892.8
89369,893.69
89464,894.64
89558,895.58
89648,896.48
89740,897.4
89832,898.32
89924,899.24
90014,900.14
90105,901.05
90192,901.92
90279,902.79
90371,903.71
90470,904.7
90568,905.68
90661,906.61
90754,907.54
90851,908.51
90946,909.46
91042,910.42
91134,911.34
91227,912.27
91323,913.23
91420,914.2
91518,915.18
91614,916.14
91709,917.09
91802,918.02
91891,918.91
91982,919.82
92076,920.76
92171,921.71
92268,922.68
92360,923.6
92452,924.52
92542,925.42
92638,926.38
92735,927.35
92830,928.3
92922,929.22
93016,930.16
93107,931.07
93197,931.97
93286,932.86
93375,933.75
93463,934.63
93554,935.54
93644,936.44
93735,937.35
93825,938.25
93912,939.12
93999,939.99
94089,940.89
94178,941.78
94268,942.68
94353,943.53
94436,944.36
94519,945.19
94600,946.0
94679,946.79
94761,947.61
94847,948.47
94939,949.39
95028,950.28
95118,951.18
95204,952.04
95288,952.88
95370,953.7
95449,954.49
95529,955.29
95605,956.05
95680,956.8
95754,957.54
95828,958.28
95901,959.01
95974,959.74
96048,960.48
96124,961.24
96200,962.0
96277,962.77
96356,963.56
96438,964.38
96523,965.23
96609,966.09
96696,966.96
96783,967.83
96870,968.7
96954,969.54
97038,970.38
97153,971.53
97250,972.5
97355,973.55
97441,974.41
97538,975.38
97622,976.22
97708,977.08
97792,977.92
97873,978.73
97950,979.5
98030,980.3
98112,981.12
98195,981.95
98282,982.82
98372,983.72
98463,984.63
98554,985.54
98644,986.44
98736,987.36
98824,988.24
98913,989.13
99004,990.04
99097,990.97
99187,991.87
99279,992.79
99368,993.68
99460,994.6
99552,995.52
99643,996.43
99737,997.37
99825,998.25
99914,999.14
100004,1000.04
100096,1000.96
100191,1001.91
100285,1002.85
100381,1003.81
100470,1004.7
100562,1005.62
100656,1006.56
100751,1007.51
100842,1008.42
100934,1009.34
101026,1010.26
101119,1011.19
101208,1012.08
101299,1012.99
101392,1013.92
101480,1014.8
101563,1015.63
101644,1016.44
101731,1017.31
101818,1018.18
101900,1019.0
101982,1019.82
102069,1020.69
102156,1021.56
102239,1022.39
102352,1023.52
102465,1024.65
102568,1025.68
102649,1026.49
102730,1027.3
102807,1028.07
102882,1028.82
102956,1029.56
103032,1030.32
103109,1031.09
103187,1031.87
103267,1032.67
103347,1033.47
103428,1034.28
103507,1035.07
103588,1035.88
103670,1036.7
103756,1037.56
103841,1038.41
103927,1039.27
104013,1040.13
104099,1040.99
104184,1041.84
104269,1042.69
104354,1043.54
104438,1044.38
104520,1045.2
104603,1046.03
104683,1046.83
104760,1047.6
104839,1048.39
104919,1049.19
104999,1049.99
105078,1050.78
105160,1051.6
105243,1052.43
105327,1053.27
105410,1054.1
105493,1054.93
105577,1055.77
105657,1056.57
105737,1057.37
105816,1058.16
105899,1058.99
105984,1059.84
106071,1060.71
106156,1061.56
106240,1062.4
106322,1063.22
106404,1064.04
106487,1064.87
106570,1065.7
106654,1066.54
106739,1067.39
106825,1068.25
106911,1069.11
106997,1069.97
107081,1070.81
107166,1071.66
107251,1072.51
107337,1073.37
107424,1074.24
107513,1075.13
107598,1075.98
107682,1076.82
107764,1077.64
107847,1078.47
107930,1079.3
108012,1080.12
108095,1080.95
108178,1081.78
108261,1082.61
108343,1083.43
108421,1084.21
108499,1084.99
108578,1085.78
108661,1086.61
108748,1087.48
108838,1088.38
108927,1089.27
109017,1090.17
109104,1091.04
109190,1091.9
109274,1092.74
109366,1093.66
109459,1094.59
109551,1095.51
109645,1096.45
109740,1097.4
109833,1098.33
109925,1099.25
110017,1100.17
110108,1101.08
110198,1101.98
110288,1102.88
110376,1103.76
110463,1104.63
110551,1105.51
110644,1106.44
110738,1107.38
110833,1108.33
110928,1109.28
111023,1110.23
111117,1111.17
111209,1112.09
111300,1113.0
111390,1113.9
111480,1114.8
111574,1115.74
111671,1116.71
111769,1117.69
111865,1118.65
111960,1119.6
112054,1120.54
112144,1121.44
112233,1122.33
112321,1123.21
112417,1124.17
112515,1125.15
112613,1126.13
112711,1127.11
112808,1128.08
112902,1129.02
112995,1129.95
113086,1130.86
113175,1131.75
113263,1132.63
113353,1133.53
113446,1134.46
113541,1135.41
113635,1136.35
113728,1137.28
113820,1138.2
113912,1139.12
114003,1140.03
114093,1140.93
114181,1141.81
114267,1142.67
114356,1143.56
114444,1144.44
114533,1145.33
114620,1146.2
114705,1147.05
114788,1147.88
114883,1148.83
114979,1149.79
115070,1150.7
115161,1151.61
115256,1152.56
115356,1153.56
115452,1154.52
115554,1155.54
115653,1156.53
115751,1157.51
115852,1158.52
115945,1159.45
116037,1160.37
116126,1161.26
116214,1162.14
116300,1163.0
116384,1163.84
116466,1164.66
116547,1165.47
116628,1166.28
116706,1167.06
116784,1167.84
116862,1168.62
116939,1169.39
117017,1170.17
117095,1170.95
117172,1171.72
117249,1172.49
117324,1173.24
117401,1174.01
117483,1174.83
117585,1175.85
117689,1176.89
117785,1177.85
117877,1178.77
117964,1179.64
118047,1180.47
118127,1181.27
118205,1182.05
118283,1182.83
118359,1183.59
118437,1184.37
118533,1185.33
118636,1186.36
118747,1187.47
118859,1188.59
118959,1189.59
119052,1190.52
119141,1191.41
119226,1192.26
119310,1193.1
119393,1193.93
119475,1194.75
119570,1195.7
119660,1196.6
119750,1197.5
119864,1198.64
119968,1199.68
120065,1200.65
120157,1201.57
120245,1202.45
120328,1203.28
120409,1204.09
120489,1204.89
120577,1205.77
120685,1206.85
120786,1207.86
120883,1208.83
120977,1209.77
121066,1210.66
121150,1211.5
121231,1212.31
121310,1213.1
121387,1213.87
121468,1214.68
121563,1215.63
121664,1216.64
121762,1217.62
121859,1218.59
121957,1219.57
122053,1220.53
122148,1221.48
122240,1222.4
122331,1223.31
122420,1224.2
122509,1225.09
122596,1225.96
122683,1226.83
122767,1227.67
122852,1228.52
122939,1229.39
123026,1230.26
123114,1231.14
123202,1232.02
123290,1232.9
123379,1233.79
123468,1234.68
123556,1235.56
123645,1236.45
123728,1237.28
123805,1238.05
123882,1238.82
123966,1239.66
124057,1240.57
124152,1241.52
124247,1242.47
124343,1243.43
124439,1244.39
124535,1245.35
124632,1246.32
124729,1247.29
124826,1248.26
124923,1249.23
125019,1250.19
125118,1251.18
125216,1252.16
125313,1253.13
125411,1254.11
125507,1255.07
125603,1256.03
125699,1256.99
125795,1257.95
125890,1258.9
125985,1259.85
126081,1260.81
126176,1261.76
126271,1262.71
126366,1263.66
126461,1264.61
126554,1265.54
126648,1266.48
126742,1267.42
126836,1268.36
126930,1269.3
127023,1270.23
127115,1271.15
127209,1272.09
127303,1273.03
127398,1273.98
127491,1274.91
127586,1275.86
127680,1276.8
127775,1277.75
127869,1278.69
127963,1279.63
128055,1280.55
128148,1281.48
128241,1282.41
128333,1283.33
128424,1284.24
128515,1285.15
128609,1286.09
128704,1287.04
128800,1288.0
128895,1288.95
128987,1289.87
129080,1290.8
129174,1291.74
129267,1292.67
129359,1293.59
129449,1294.49
129539,1295.39
129630,1296.3
129721,1297.21
129813,1298.13
129902,1299.02
129991,1299.91
130078,1300.78
130166,1301.66
130255,1302.55
130343,1303.43
130432,1304.32
130519,1305.19
130606,1306.06
130693,1306.93
130779,1307.79
130867,1308.67
130955,1309.55
131040,1310.4
131126,1311.26
131204,1312.04
131277,1312.77
131349,1313.49
131414,1314.14
131478,1314.78
131542,1315.42
131607,1316.07
131674,1316.74
131742,1317.42
131815,1318.15
131889,1318.89
131962,1319.62
132034,1320.34
132107,1321.07
132182,1321.82
132259,1322.59
132337,1323.37
132416,1324.16
132497,1324.97
132580,1325.8
132664,1326.64
132747,1327.47
132832,1328.32
132917,1329.17
132999,1329.99
133083,1330.83
133165,1331.65
133246,1332.46
133329,1333.29
133412,1334.12
133495,1334.95
133578,1335.78
133659,1336.59
133739,1337.39
133817,1338.17
133895,1338.95
133974,1339.74
134055,1340.55
134136,1341.36
134218,1342.18
134300,1343.0
134381,1343.81
134457,1344.57
134534,1345.34
134610,1346.1
134689,1346.89
134771,1347.71
134854,1348.54
134936,1349.36
135018,1350.18
135102,1351.02
135188,1351.88
135274,1352.74
135361,1353.61
135448,1354.48
135533,1355.33
135616,1356.16
135700,1357.0
135787,1357.87
135873,1358.73
135961,1359.61
136048,1360.48
136135,1361.35
136220,1362.2
136303,1363.03
136386,1363.86
136469,1364.69
136559,1365.59
136648,1366.48
136740,1367.4
136829,1368.29
136919,1369.19
137007,1370.07
137095,1370.95
137182,1371.82
137269,1372.69
137356,1373.56
137444,1374.44
137532,1375.32
137621,1376.21
137710,1377.1
137798,1377.98
137887,1378.87
137974,1379.74
138060,1380.6
138144,1381.44
138228,1382.28
138317,1383.17
138407,1384.07
138500,1385.0
138593,1385.93
138685,1386.85
138775,1387.75
138862,1388.62
138949,1389.49
139035,1390.35
139123,1391.23
139214,1392.14
139308,1393.08
139401,1394.01
139493,1394.93
139583,1395.83
139672,1396.72
139761,1397.61
139848,1398.48
139934,1399.34
140019,1400.19
140107,1401.07
140197,1401.97
140288,1402.88
140379,1403.79
140468,1404.68
140557,1405.57
140647,1406.47
140737,1407.37
140825,1408.25
140913,1409.13
141001,1410.01
141088,1410.88
141175,1411.75
141262,1412.62
141350,1413.5
141439,1414.39
141527,1415.27
141616,1416.16
141705,1417.05
141794,1417.94
141883,1418.83
141970,1419.7
142057,1420.57
142144,1421.44
142229,1422.29
142311,1423.11
142393,1423.93
142476,1424.76
142558,1425.58
142640,1426.4
142722,1427.22
142804,1428.04
142886,1428.86
142967,1429.67
143049,1430.49
143129,1431.29
143211,1432.11
143293,1432.93
143376,1433.76
143459,1434.59
143545,1435.45
143632,1436.32
143720,1437.2
143806,1438.06
143890,1438.9
143974,1439.74
144059,1440.59
144146,1441.46
144235,1442.35
144326,1443.26
144414,1444.14
144500,1445.0
144585,1445.85
144672,1446.72
144762,1447.62
144851,1448.51
144940,1449.4
145027,1450.27
145115,1451.15
145204,1452.04
145292,1452.92
145378,1453.78
145464,1454.64
145550,1455.5
145636,1456.36
145723,1457.23
145809,1458.09
145897,1458.97
145983,1459.83
146070,1460.7
146158,1461.58
146241,1462.41
146325,1463.25
146411,1464.11
146498,1464.98
146587,1465.87
146676,1466.76
146764,1467.64
146853,1468.53
146940,1469.4
147028,1470.28
147116,1471.16
147204,1472.04
147293,1472.93
147380,1473.8
147466,1474.66
147552,1475.52
147641,1476.41
147734,1477.34
147825,1478.25
147915,1479.15
148003,1480.03
148092,1480.92
148183,1481.83
148274,1482.74
148363,1483.63
148452,1484.52
148541,1485.41
148630,1486.3
148720,1487.2
148808,1488.08
148896,1488.96
148985,1489.85
149072,1490.72
149156,1491.56
149236,1492.36
149313,1493.13
149390,1493.9
149469,1494.69
149550,1495.5
149635,1496.35
149722,1497.22
149808,1498.08
149892,1498.92
149975,1499.75
150060,1500.6
150146,1501.46
150233,1502.33
150320,1503.2
150405,1504.05
150493,1504.93
150583,1505.83
150675,1506.75
150765,1507.65
150855,1508.55
150946,1509.46
151037,1510.37
151129,1511.29
151220,1512.2
151311,1513.11
151401,1514.01
151493,1514.93
151584,1515.84
151675,1516.75
151766,1517.66
151857,1518.57
151948,1519.48
152039,1520.39
152129,1521.29
152221,1522.21
152311,1523.11
152400,1524.0
152491,1524.91
152583,1525.83
152674,1526.74
152762,1527.62
152846,1528.46
152931,1529.31
153018,1530.18
153111,1531.11
153205,1532.05
153297,1532.97
153389,1533.89
153477,1534.77
153564,1535.64
153652,1536.52
153741,1537.41
153830,1538.3
153918,1539.18
154005,1540.05
154093,1540.93
154185,1541.85
154278,1542.78
154361,1543.61
154448,1544.48
154538,1545.38
154629,1546.29
154719,1547.19
154809,1548.09
154898,1548.98
154986,1549.86
155073,1550.73
155160,1551.6
155247,1552.47
155333,1553.33
155418,1554.18
155503,1555.03
155593,1555.93
155683,1556.83
155774,1557.74
155863,1558.63
155952,1559.52
156039,1560.39
156123,1561.23
156206,1562.06
156288,1562.88
156371,1563.71
156456,1564.56
156545,1565.45
156637,1566.37
156729,1567.29
156820,1568.2
156912,1569.12
157003,1570.03
157092,1570.92
157179,1571.79
157266,1572.66
157353,1573.53
157439,1574.39
157528,1575.28
157619,1576.19
157711,1577.11
157803,1578.03
157895,1578.95
157985,1579.85
158075,1580.75
158162,1581.62
158249,1582.49
158335,1583.35
158421,1584.21
158509,1585.09
158600,1586.0
158692,1586.92
158783,1587.83
158873,1588.73
158963,1589.63
159050,1590.5
159137,1591.37
159223,1592.23
159308,1593.08
159395,1593.95
159486,1594.86
159578,1595.78
159670,1596.7
159761,1597.61
159850,1598.5
159937,1599.37
160023,1600.23
160109,1601.09
160194,1601.94
160277,1602.77
160359,1603.59
160445,1604.45
160532,1605.32
160614,1606.14
160692,1606.92
160771,1607.71
160850,1608.5
160929,1609.29
161011,1610.11
161097,1610.97
161185,1611.85
161273,1612.73
161360,1613.6
161445,1614.45
161529,1615.29
161611,1616.11
161693,1616.93
161777,1617.77
161866,1618.66
161956,1619.56
162042,1620.42
162128,1621.28
162213,1622.13
162296,1622.96
162379,1623.79
162463,1624.63
162549,1625.49
162641,1626.41
162730,1627.3
162817,1628.17
162901,1629.01
162983,1629.83
163063,1630.63
163143,1631.43
163223,1632.23
163308,1633.08
163392,1633.92
163472,1634.72
163546,1635.46
163620,1636.2
163695,1636.95
163770,1637.7
163846,1638.46
163925,1639.25
164007,1640.07
164089,1640.89
164170,1641.7
164249,1642.49
164327,1643.27
164402,1644.02
164475,1644.75
164547,1645.47
164619,1646.19
164692,1646.92
164767,1647.67
164844,1648.44
164921,1649.21
164998,1649.98
165074,1650.74
165149,1651.49
165225,1652.25
165301,1653.01
165380,1653.8
165458,1654.58
165536,1655.36
165614,1656.14
165693,1656.93
165772,1657.72
165852,1658.52
165931,1659.31
166010,1660.1
166089,1660.89
166168,1661.68
166249,1662.49
166331,1663.31
166413,1664.13
166494,1664.94
166574,1665.74
166653,1666.53
166731,1667.31
166809,1668.09
166887,1668.87
166967,1669.67
167057,1670.57
167145,1671.45
167231,1672.31
167317,1673.17
167393,1673.93
167466,1674.66
167540,1675.4
167614,1676.14
167689,1676.89
167764,1677.64
167841,1678.41
167919,1679.19
168000,1680.0
168083,1680.83
168165,1681.65
168244,1682.44
168324,1683.24
168401,1684.01
168478,1684.78
168554,1685.54
168628,1686.28
168701,1687.01
168776,1687.76
168853,1688.53
168933,1689.33
169012,1690.12
169090,1690.9
169167,1691.67
169244,1692.44
169321,1693.21
169399,1693.99
169477,1694.77
169553,1695.53
169625,1696.25
169693,1696.93
169766,1697.66
169844,1698.44
169926,1699.26
170010,1700.1
170095,1700.95
170179,1701.79
170259,1702.59
170340,1703.4
170421,1704.21
170503,1705.03
170584,1705.84
170667,1706.67
170751,1707.51
170836,1708.36
170920,1709.2
171004,1710.04
171088,1710.88
171172,1711.72
171254,1712.54
171337,1713.37
171418,1714.18
171500,1715.0
171582,1715.82
171663,1716.63
171745,1717.45
171826,1718.26
171907,1719.07
171988,1719.88
172069,1720.69
172150,1721.5
172231,1722.31
172313,1723.13
172396,1723.96
172479,1724.79
172561,1725.61
172641,1726.41
172719,1727.19
172798,1727.98
172881,1728.81
172966,1729.66
173053,1730.53
173140,1731.4
173227,1732.27
173312,1733.12
173397,1733.97
173481,1734.81
173563,1735.63
173645,1736.45
173726,1737.26
173809,1738.09
173890,1738.9
173974,1739.74
174058,1740.58
174144,1741.44
174231,1742.31
174318,1743.18
174404,1744.04
174491,1744.91
174574,1745.74
174660,1746.6
174746,1747.46
174833,1748.33
174918,1749.18
175004,1750.04
175091,1750.91
175178,1751.78
175263,1752.63
175349,1753.49
175434,1754.34
175517,1755.17
175599,1755.99
175679,1756.79
175755,1757.55
175828,1758.28
175901,1759.01
175977,1759.77
176053,1760.53
176130,1761.3
176207,1762.07
176282,1762.82
176357,1763.57
176431,1764.31
176502,1765.02
176573,1765.73
176643,1766.43
176714,1767.14
176785,1767.85
176857,1768.57
176930,1769.3
177004,1770.04
177080,1770.8
177157,1771.57
177234,1772.34
177311,1773.11
177388,1773.88
177465,1774.65
177542,1775.42
177619,1776.19
177696,1776.96
177775,1777.75
177857,1778.57
177941,1779.41
178026,1780.26
178112,1781.12
178197,1781.97
178281,1782.81
178364,1783.64
178448,1784.48
178534,1785.34
178615,1786.15
178696,1786.96
178777,1787.77
178859,1788.59
178940,1789.4
179018,1790.18
179099,1790.99
179176,1791.76
179253,1792.53
179328,1793.28
179404,1794.04
179479,1794.79
179554,1795.54
179629,1796.29
179702,1797.02
179776,1797.76
179849,1798.49
179923,1799.23
179996,1799.96
180069,1800.69
180141,1801.41
180210,1802.1
180279,1802.79
180353,1803.53
180429,1804.29
180508,1805.08
180586,1805.86
180664,1806.64
180741,1807.41
180822,1808.22
180907,1809.07
180992,1809.92
181057,1810.57
181123,1811.23
181198,1811.98
181273,1812.73
181348,1813.48
181423,1814.23
181497,1814.97
181570,1815.7
181643,1816.43
181721,1817.21
181804,1818.04
181888,1818.88
181971,1819.71
182053,1820.53
182136,1821.36
182216,1822.16
182296,1822.96
182376,1823.76
182457,1824.57
182540,1825.4
182626,1826.26
182711,1827.11
182797,1827.97
182881,1828.81
182963,1829.63
183045,1830.45
183126,1831.26
183207,1832.07
183291,1832.91
183377,1833.77
183465,1834.65
183552,1835.52
183635,1836.35
183715,1837.15
183798,1837.98
183880,1838.8
183961,1839.61
184035,1840.35
184109,1841.09
184187,1841.87
184265,1842.65
184337,1843.37
184405,1844.05
184472,1844.72
184538,1845.38
184602,1846.02
184667,1846.67
184731,1847.31
184795,1847.95
184859,1848.59
184924,1849.24
184989,1849.89
185055,1850.55
185123,1851.23
185192,1851.92
185263,1852.63
185336,1853.36
185408,1854.08
185478,1854.78
185549,1855.49
185619,1856.19
185690,1856.9
185763,1857.63
185840,1858.4
185916,1859.16
185996,1859.96
186076,1860.76
186156,1861.56
186238,1862.38
186320,1863.2
186411,1864.11
186502,1865.02
186594,1865.94
186685,1866.85
186776,1867.76
186865,1868.65
186953,1869.53
187042,1870.42
187128,1871.28
187212,1872.12
187294,1872.94
187378,1873.78
187461,1874.61
187544,1875.44
187627,1876.27
187709,1877.09
187787,1877.87
187866,1878.66
187940,1879.4
188015,1880.15
188092,1880.92
188175,1881.75
188259,1882.59
188342,1883.42
188424,1884.24
188507,1885.07
188597,1885.97
188686,1886.86
188777,1887.77
188866,1888.66
188955,1889.55
189041,1890.41
189127,1891.27
189211,1892.11
189295,1892.95
189379,1893.79
189465,1894.65
189555,1895.55
189646,1896.46
189736,1897.36
189825,1898.25
189915,1899.15
190002,1900.02
190088,1900.88
190172,1901.72
190257,1902.57
190343,1903.43
190435,1904.35
190527,1905.27
190621,1906.21
190713,1907.13
190805,1908.05
190897,1908.97
190988,1909.88
191081,1910.81
191173,1911.73
191262,1912.62
191347,1913.47
191432,1914.32
191519,1915.19
191614,1916.14
191706,1917.06
191798,1917.98
191890,1918.9
191980,1919.8
192070,1920.7
192156,1921.56
192240,1922.4
192323,1923.23
192410,1924.1
192498,1924.98
192587,1925.87
192676,1926.76
192766,1927.66
192855,1928.55
192945,1929.45
193032,1930.32
193117,1931.17
193202,1932.02
193290,1932.9
193383,1933.83
193475,1934.75
193568,1935.68
193659,1936.59
193749,1937.49
193840,1938.4
193930,1939.3
194015,1940.15
194100,1941.0
194184,1941.84
194274,1942.74
194363,1943.63
194451,1944.51
194538,1945.38
194622,1946.22
194701,1947.01
194777,1947.77
194852,1948.52
194929,1949.29
195016,1950.16
195101,1951.01
195188,1951.88
195276,1952.76
195362,1953.62
195447,1954.47
195535,1955.35
195625,1956.25
195715,1957.15
195805,1958.05
195895,1958.95
195980,1959.8
196058,1960.58
196136,1961.36
196219,1962.19
196304,1963.04
196390,1963.9
196482,1964.82
196576,1965.76
196669,1966.69
196762,1967.62
196853,1968.53
196943,1969.43
197030,1970.3
197116,1971.16
197203,1972.03
197293,1972.93
197385,1973.85
197477,1974.77
197569,1975.69
197659,1976.59
197750,1977.5
197842,1978.42
197929,1979.29
198016,1980.16
198105,1981.05
198196,1981.96
198287,1982.87
198379,1983.79
198471,1984.71
198563,1985.63
198654,1986.54
198745,1987.45
198835,1988.35
198926,1989.26
199016,1990.16
199107,1991.07
199197,1991.97
199289,1992.89
199380,1993.8
199471,1994.71
199562,1995.62
199652,1996.52
199743,1997.43
199832,1998.32
199916,1999.16
200000,2000.0
200090,2000.9
200183,2001.83
200274,2002.74
200366,2003.66
200457,2004.57
200545,2005.45
200632,2006.32
200719,2007.19
200808,2008.08
200898,2008.98
200988,2009.88
201079,2010.79
201170,2011.7
201262,2012.62
201351,2013.51
201440,2014.4
201529,2015.29
201621,2016.21
201712,2017.12
201804,2018.04
201895,2018.95
201986,2019.86
202075,2020.75
202160,2021.6
202245,2022.45
202336,2023.36
202425,2024.25
202517,2025.17
202609,2026.09
202701,2027.01
202790,2027.9
202878,2028.78
202964,2029.64
203046,2030.46
203124,2031.24
203203,2032.03
203287,2032.87
203372,2033.72
203458,2034.58
203548,2035.48
203639,2036.39
203729,2037.29
203819,2038.19
203908,2039.08
203998,2039.98
204086,2040.86
204173,2041.73
204258,2042.58
204346,2043.46
204435,2044.35
204525,2045.25
204616,2046.16
204706,2047.06
204796,2047.96
204885,2048.85
204972,2049.72
205061,2050.61
205151,2051.51
205242,2052.42
205333,2053.33
205422,2054.22
205512,2055.12
205600,2056.0
205686,2056.86
205773,2057.73
205862,2058.62
205951,2059.51
206041,2060.41
206131,2061.31
206222,2062.22
206313,2063.13
206403,2064.03
206489,2064.89
206576,2065.76
206669,2066.69
206762,2067.62
206854,2068.54
206944,2069.44
207035,2070.35
207125,2071.25
207214,2072.14
207303,2073.03
207392,2073.92
207479,2074.79
207567,2075.67
207657,2076.57
207746,2077.46
207836,2078.36
207925,2079.25
208014,2080.14
208101,2081.01
208187,2081.87
208273,2082.73
208359,2083.59
208448,2084.48
208537,2085.37
208626,2086.26
208714,2087.14
208803,2088.03
208891,2088.91
208978,2089.78
209064,2090.64
209153,2091.53
209244,2092.44
209334,2093.34
209425,2094.25
209513,2095.13
209599,2095.99
209686,2096.86
209776,2097.76
209866,2098.66
209959,2099.59
210051,2100.51
210142,2101.42
210231,2102.31
210320,2103.2
210408,2104.08
210493,2104.93
210579,2105.79
210668,2106.68
210759,2107.59
210849,2108.49
210939,2109.39
211031,2110.31
211121,2111.21
211211,2112.11
211299,2112.99
211385,2113.85
211472,2114.72
211562,2115.62
211655,2116.55
211747,2117.47
211840,2118.4
211933,2119.33
212027,2120.27
212119,2121.19
212208,2122.08
212297,2122.97
212386,2123.86
212476,2124.76
212566,2125.66
212656,2126.56
212745,2127.45
212835,2128.35
212925,2129.25
213014,2130.14
213102,2131.02
213189,2131.89
213278,2132.78
213369,2133.69
213459,2134.59
213551,2135.51
213641,2136.41
213732,2137.32
213821,2138.21
213910,2139.1
213999,2139.99
214086,2140.86
214174,2141.74
214263,2142.63
214353,2143.53
214444,2144.44
214533,2145.33
214622,2146.22
214709,2147.09
214795,2147.95
214883,2148.83
214972,2149.72
215062,2150.62
215151,2151.51
215242,2152.42
215334,2153.34
215426,2154.26
215515,2155.15
215604,2156.04
215694,2156.94
215786,2157.86
215879,2158.79
215971,2159.71
216062,2160.62
216149,2161.49
216233,2162.33
216314,2163.14
216393,2163.93
216472,2164.72
216555,2165.55
216642,2166.42
216733,2167.33
216824,2168.24
216917,2169.17
217009,2170.09
217101,2171.01
217193,2171.93
217285,2172.85
217374,2173.74
217463,2174.63
217554,2175.54
217645,2176.45
217738,2177.38
217831,2178.31
217923,2179.23
218015,2180.15
218106,2181.06
218198,2181.98
218289,2182.89
218380,2183.8
218471,2184.71
218561,2185.61
218652,2186.52
218741,2187.41
218829,2188.29
218921,2189.21
219015,2190.15
219110,2191.1
219206,2192.06
219300,2193.0
219392,2193.92
219482,2194.82
219572,2195.72
219664,2196.64
219758,2197.58
219852,2198.52
219948,2199.48
220044,2200.44
220138,2201.38
220232,2202.32
220325,2203.25
220417,2204.17
220508,2205.08
220601,2206.01
220693,2206.93
220784,2207.84
220874,2208.74
220968,2209.68
221062,2210.62
221158,2211.58
221255,2212.55
221350,2213.5
221441,2214.41
221533,2215.33
221629,2216.29
221724,2217.24
221817,2218.17
221909,2219.09
222000,2220.0
222089,2220.89
222178,2221.78
222271,2222.71
222366,2223.66
222462,2224.62
222559,2225.59
222656,2226.56
222754,2227.54
222848,2228.48
222943,2229.43
223039,2230.39
223134,2231.34
223228,2232.28
223321,2233.21
223414,2234.14
223509,2235.09
223601,2236.01
223691,2236.91
223783,2237.83
223877,2238.77
223970,2239.7
224062,2240.62
224153,2241.53
224243,2242.43
224333,2243.33
224425,2244.25
224518,2245.18
224609,2246.09
224699,2246.99
224790,2247.9
224883,2248.83
224977,2249.77
225071,2250.71
225164,2251.64
225256,2252.56
225349,2253.49
225443,2254.43
225533,2255.33
225623,2256.23
225716,2257.16
225808,2258.08
225902,2259.02
225995,2259.95
226088,2260.88
226180,2261.8
226269,2262.69
226360,2263.6
226451,2264.51
226543,2265.43
226635,2266.35
226725,2267.25
226814,2268.14
226903,2269.03
226995,2269.95
227087,2270.87
227180,2271.8
227273,2272.73
227366,2273.66
227459,2274.59
227550,2275.5
227641,2276.41
227729,2277.29
227818,2278.18
227909,2279.09
228001,2280.01
228093,2280.93
228184,2281.84
228275,2282.75
228363,2283.63
228451,2284.51
228542,2285.42
228632,2286.32
228724,2287.24
228815,2288.15
228904,2289.04
228993,2289.93
229083,2290.83
229175,2291.75
229268,2292.68
229359,2293.59
229448,2294.48
229539,2295.39
229632,2296.32
229725,2297.25
229818,2298.18
229911,2299.11
230005,2300.05
230098,2300.98
230191,2301.91
230284,2302.84
230378,2303.78
230470,2304.7
230562,2305.62
230655,2306.55
230747,2307.47
230840,2308.4
230934,2309.34
231028,2310.28
231119,2311.19
231210,2312.1
231300,2313.0
231393,2313.93
231486,2314.86
231579,2315.79
231672,2316.72
231760,2317.6
231848,2318.48
231939,2319.39
232032,2320.32
232124,2321.24
232214,2322.14
232304,2323.04
232395,2323.95
232487,2324.87
232579,2325.79
232669,2326.69
232758,2327.58
232847,2328.47
232939,2329.39
233032,2330.32
233125,2331.25
233216,2332.16
233304,2333.04
233395,2333.95
233487,2334.87
233580,2335.8
233672,2336.72
233762,2337.62
233851,2338.51
233941,2339.41
234031,2340.31
234122,2341.22
234212,2342.12
234302,2343.02
234389,2343.89
234479,2344.79
234570,2345.7
234661,2346.61
234752,2347.52
234843,2348.43
234931,2349.31
235017,2350.17
235106,2351.06
235196,2351.96
235287,2352.87
235377,2353.77
235468,2354.68
235558,2355.58
235649,2356.49
235739,2357.39
235830,2358.3
235922,2359.22
236013,2360.13
236102,2361.02
236193,2361.93
236285,2362.85
236375,2363.75
236464,2364.64
236552,2365.52
236641,2366.41
236731,2367.31
236821,2368.21
236912,2369.12
237003,2370.03
237092,2370.92
237181,2371.81
237269,2372.69
237359,2373.59
237449,2374.49
237539,2375.39
237628,2376.28
237716,2377.16
237803,2378.03
237893,2378.93
237983,2379.83
238074,2380.74
238165,2381.65
238254,2382.54
238342,2383.42
238433,2384.33
238524,2385.24
238616,2386.16
238708,2387.08
238799,2387.99
238892,2388.92
238987,2389.87
239082,2390.82
239175,2391.75
239267,2392.67
239361,2393.61
239455,2394.55
239550,2395.5
239643,2396.43
239734,2397.34
239828,2398.28
239923,2399.23
240017,2400.17
240109,2401.09
240200,2402.0
240289,2402.89
240380,2403.8
240471,2404.71
240564,2405.64
240656,2406.56
240748,2407.48
240842,2408.42
240936,2409.36
241031,2410.31
241127,2411.27
241218,2412.18
241310,2413.1
241404,2414.04
241498,2414.98
241591,2415.91
241684,2416.84
241774,2417.74
241866,2418.66
241958,2419.58
242050,2420.5
242140,2421.4
242229,2422.29
242324,2423.24
242419,2424.19
242514,2425.14
242610,2426.1
242702,2427.02
242793,2427.93
242885,2428.85
242978,2429.78
243073,2430.73
243167,2431.67
243259,2432.59
243351,2433.51
243444,2434.44
243538,2435.38
243631,2436.31
243721,2437.21
243813,2438.13
243905,2439.05
243996,2439.96
244088,2440.88
244179,2441.79
244272,2442.72
244367,2443.67
244463,2444.63
244555,2445.55
244647,2446.47
244743,2447.43
244838,2448.38
244934,2449.34
245028,2450.28
245119,2451.19
245213,2452.13
245306,2453.06
245403,2454.03
245498,2454.98
245592,2455.92
245691,2456.91
245790,2457.9
245888,2458.88
245985,2459.85
246079,2460.79
246176,2461.76
246272,2462.72
246365,2463.65
246458,2464.58
246554,2465.54
246645,2466.45
246734,2467.34
246816,2468.16
246897,2468.97
246979,2469.79
247059,2470.59
247142,2471.42
247223,2472.23
247307,2473.07
247392,2473.92
247475,2474.75
247556,2475.56
247639,2476.39
247723,2477.23
247807,2478.07
247890,2478.9
247972,2479.72
248054,2480.54
248138,2481.38
248223,2482.23
248308,2483.08
248391,2483.91
248473,2484.73
248557,2485.57
248651,2486.51
248744,2487.44
248839,2488.39
248934,2489.34
249029,2490.29
249124,2491.24
249216,2492.16
249307,2493.07
249399,2493.99
249493,2494.93
249588,2495.88
249677,2496.77
249765,2497.65
249847,2498.47
249928,2499.28
250011,2500.11
250093,2500.93
250173,2501.73
250251,2502.51
250333,2503.33
250417,2504.17
250503,2505.03
250590,2505.9
250681,2506.81
250773,2507.73
250866,2508.66
250959,2509.59
251050,2510.5
251139,2511.39
251227,2512.27
251314,2513.14
251405,2514.05
251498,2514.98
251591,2515.91
251685,2516.85
251780,2517.8
251875,2518.75
251970,2519.7
252066,2520.66
252164,2521.64
252259,2522.59
252354,2523.54
252449,2524.49
252544,2525.44
252639,2526.39
252734,2527.34
252823,2528.23
252916,2529.16
253010,2530.1
253104,2531.04
253200,2532.0
253296,2532.96
253391,2533.91
253484,2534.84
253577,2535.77
253671,2536.71
253764,2537.64
253857,2538.57
253952,2539.52
254048,2540.48
254143,2541.43
254238,2542.38
254333,2543.33
254427,2544.27
254522,2545.22
254617,2546.17
254711,2547.11
254804,2548.04
254895,2548.95
254985,2549.85
255079,2550.79
255173,2551.73
255268,2552.68
255362,2553.62
255452,2554.52
255541,2555.41
255634,2556.34
255728,2557.28
255822,2558.22
255916,2559.16
256009,2560.09
256100,2561.0
256195,2561.95
256289,2562.89
256384,2563.84
256479,2564.79
256573,2565.73
256667,2566.67
256759,2567.59
256852,2568.52
256945,2569.45
257039,2570.39
257133,2571.33
257224,2572.24
257317,2573.17
257411,2574.11
257504,2575.04
257598,2575.98
257691,2576.91
257782,2577.82
257874,2578.74
257968,2579.68
258062,2580.62
258154,2581.54
258246,2582.46
258336,2583.36
258430,2584.3
258525,2585.25
258620,2586.2
258715,2587.15
258808,2588.08
258900,2589.0
258994,2589.94
259088,2590.88
259182,2591.82
259276,2592.76
259371,2593.71
259464,2594.64
259555,2595.55
259645,2596.45
259738,2597.38
259831,2598.31
259924,2599.24
260019,2600.19
260111,2601.11
260203,2602.03
260297,2602.97
260391,2603.91
260485,2604.85
260580,2605.8
260673,2606.73
260766,2607.66
260860,2608.6
260954,2609.54
261048,2610.48
261142,2611.42
261234,2612.34
261330,2613.3
261425,2614.25
261520,2615.2
261612,2616.12
261700,2617.0
261791,2617.91
261885,2618.85
261981,2619.81
262077,2620.77
262171,2621.71
262266,2622.66
262361,2623.61
262456,2624.56
262551,2625.51
262644,2626.44
262740,2627.4
262837,2628.37
262935,2629.35
263033,2630.33
263130,2631.3
263225,2632.25
263322,2633.22
263417,2634.17
263512,2635.12
263604,2636.04
263695,2636.95
263786,2637.86
263876,2638.76
263965,2639.65
264056,2640.56
264148,2641.48
264239,2642.39
264331,2643.31
264423,2644.23
264521,2645.21
264620,2646.2
264724,2647.24
264824,2648.24
264924,2649.24
265025,2650.25
265127,2651.27
265228,2652.28
265328,2653.28
265424,2654.24
265519,2655.19
265615,2656.15
265712,2657.12
265808,2658.08
265906,2659.06
266001,2660.01
266094,2660.94
266190,2661.9
266287,2662.87
266385,2663.85
266481,2664.81
266576,2665.76
266675,2666.75
266771,2667.71
266867,2668.67
266959,2669.59
267055,2670.55
267152,2671.52
267248,2672.48
267345,2673.45
267437,2674.37
267534,2675.34
267631,2676.31
267724,2677.24
267812,2678.12
267902,2679.02
267993,2679.93
268081,2680.81
268167,2681.67
268250,2682.5
268333,2683.33
268416,2684.16
268498,2684.98
268578,2685.78
268655,2686.55
268733,2687.33
268812,2688.12
268895,2688.95
268980,2689.8
269068,2690.68
269155,2691.55
269243,2692.43
269331,2693.31
269422,2694.22
269514,2695.14
269606,2696.06
269698,2696.98
269789,2697.89
269880,2698.8
269974,2699.74
270070,2700.7
270166,2701.66
270263,2702.63
270360,2703.6
270458,2704.58
270556,2705.56
270653,2706.53
270752,2707.52
270850,2708.5
270947,2709.47
271040,2710.4
271136,2711.36
271232,2712.32
271330,2713.3
271428,2714.28
271524,2715.24
271615,2716.15
271709,2717.09
271805,2718.05
271900,2719.0
271995,2719.95
272086,2720.86
272176,2721.76
272271,2722.71
272366,2723.66
272462,2724.62
272558,2725.58
272651,2726.51
272746,2727.46
272844,2728.44
272943,2729.43
273041,2730.41
273140,2731.4
273237,2732.37
273329,2733.29
273424,2734.24
273521,2735.21
273619,2736.19
273714,2737.14
273811,2738.11
273908,2739.08
274005,2740.05
274097,2740.97
274189,2741.89
274282,2742.82
274377,2743.77
274474,2744.74
274569,2745.69
274665,2746.65
274766,2747.66
274865,2748.65
274964,2749.64
275059,2750.59
275155,2751.55
275251,2752.51
275348,2753.48
275443,2754.43
275537,2755.37
275633,2756.33
275728,2757.28
275821,2758.21
275913,2759.13
276005,2760.05
276101,2761.01
276197,2761.97
276292,2762.92
276384,2763.84
276478,2764.78
276572,2765.72
276665,2766.65
276756,2767.56
276846,2768.46
276937,2769.37
277031,2770.31
277125,2771.25
277217,2772.17
277307,2773.07
277397,2773.97
277494,2774.94
277592,2775.92
277692,2776.92
277792,2777.92
277886,2778.86
277978,2779.78
278066,2780.66
278152,2781.52
278240,2782.4
278329,2783.29
278419,2784.19
278510,2785.1
278600,2786.0
278689,2786.89
278779,2787.79
278869,2788.69
278961,2789.61
279052,2790.52
279143,2791.43
279233,2792.33
279322,2793.22
279411,2794.11
279502,2795.02
279594,2795.94
279687,2796.87
279779,2797.79
279868,2798.68
279958,2799.58
280050,2800.5
280143,2801.43
280240,2802.4
280336,2803.36
280430,2804.3
280521,2805.21
280613,2806.13
280706,2807.06
280798,2807.98
280891,2808.91
280983,2809.83
281074,2810.74
281164,2811.64
281254,2812.54
281347,2813.47
281441,2814.41
281535,2815.35
281630,2816.3
281725,2817.25
281820,2818.2
281914,2819.14
282009,2820.09
282105,2821.05
282199,2821.99
282294,2822.94
282390,2823.9
282485,2824.85
282581,2825.81
282677,2826.77
282773,2827.73
282870,2828.7
282965,2829.65
283058,2830.58
283148,2831.48
283239,2832.39
283331,2833.31
283424,2834.24
283518,2835.18
283608,2836.08
283699,2836.99
283793,2837.93
283888,2838.88
283985,2839.85
284081,2840.81
284176,2841.76
284268,2842.68
284361,2843.61
284457,2844.57
284553,2845.53
284649,2846.49
284747,2847.47
284846,2848.46
284939,2849.39
285033,2850.33
285129,2851.29
285226,2852.26
285323,2853.23
285418,2854.18
285513,2855.13
285611,2856.11
285709,2857.09
285808,2858.08
285906,2859.06
286003,2860.03
286098,2860.98
286194,2861.94
286292,2862.92
286391,2863.91
286492,2864.92
286591,2865.91
286690,2866.9
286788,2867.88
286884,2868.84
286980,2869.8
287074,2870.74
287166,2871.66
287259,2872.59
287352,2873.52
287447,2874.47
287542,2875.42
287636,2876.36
287730,2877.3
287827,2878.27
287925,2879.25
288025,2880.25
288121,2881.21
288214,2882.14
288309,2883.09
288405,2884.05
288502,2885.02
288594,2885.94
288686,2886.86
288781,2887.81
288878,2888.78
288974,2889.74
289066,2890.66
289158,2891.58
289252,2892.52
289348,2893.48
289444,2894.44
289542,2895.42
289634,2896.34
289722,2897.22
289811,2898.11
289902,2899.02
289990,2899.9
290075,2900.75
290157,2901.57
290238,2902.38
290320,2903.2
290408,2904.08
290497,2904.97
290586,2905.86
290675,2906.75
290767,2907.67
290861,2908.61
290956,2909.56
291050,2910.5
291144,2911.44
291236,2912.36
291326,2913.26
291417,2914.17
291511,2915.11
291607,2916.07
291704,2917.04
291802,2918.02
291899,2918.99
291996,2919.96
292093,2920.93
292189,2921.89
292285,2922.85
292379,2923.79
292472,2924.72
292563,2925.63
292657,2926.57
292751,2927.51
292845,2928.45
292937,2929.37
293030,2930.3
293125,2931.25
293217,2932.17
293309,2933.09
293399,2933.99
293488,2934.88
293580,2935.8
293674,2936.74
293771,2937.71
293865,2938.65
293961,2939.61
294060,2940.6
294161,2941.61
294262,2942.62
294361,2943.61
294460,2944.6
294560,2945.6
294662,2946.62
294761,2947.61
294858,2948.58
294957,2949.57
295055,2950.55
295153,2951.53
295248,2952.48
295343,2953.43
295442,2954.42
295540,2955.4
295639,2956.39
295733,2957.33
295827,2958.27
295924,2959.24
296022,2960.22
296119,2961.19
296211,2962.11
296303,2963.03
296399,2963.99
296495,2964.95
296592,2965.92
296686,2966.86
296781,2967.81
296879,2968.79
296978,2969.78
297076,2970.76
297174,2971.74
297268,2972.68
297362,2973.62
297454,2974.54
297548,2975.48
297641,2976.41
297732,2977.32
297829,2978.29
297925,2979.25
298023,2980.23
298118,2981.18
298213,2982.13
298310,2983.1
298407,2984.07
298504,2985.04
298599,2985.99
298697,2986.97
298799,2987.99
298899,2988.99
298997,2989.97
299093,2990.93
299190,2991.9
299289,2992.89
299388,2993.88
299486,2994.86
299582,2995.82
299680,2996.8
299777,2997.77
299873,2998.73
299965,2999.65
300056,3000.56
300147,3001.47
300241,3002.41
300337,3003.37
300433,3004.33
300527,3005.27
300624,3006.24
300721,3007.21
300819,3008.19
300916,3009.16
301011,3010.11
301108,3011.08
301204,3012.04
301301,3013.01
301395,3013.95
301487,3014.87
301581,3015.81
301677,3016.77
301771,3017.71
301863,3018.63
301954,3019.54
302046,3020.46
302140,3021.4
302234,3022.34
302326,3023.26
302416,3024.16
302505,3025.05
302597,3025.97
302689,3026.89
302782,3027.82
302875,3028.75
302969,3029.69
303066,3030.66
303162,3031.62
303257,3032.57
303356,3033.56
303456,3034.56
303555,3035.55
303653,3036.53
303746,3037.46
303842,3038.42
303941,3039.41
304039,3040.39
304133,3041.33
304231,3042.31
304328,3043.28
304424,3044.24
304517,3045.17
304610,3046.1
304704,3047.04
304797,3047.97
304890,3048.9
304980,3049.8
305077,3050.77
305176,3051.76
305274,3052.74
305372,3053.72
305466,3054.66
305562,3055.62
305660,3056.6
305758,3057.58
305854,3058.54
305951,3059.51
306050,3060.5
306146,3061.46
306239,3062.39
306336,3063.36
306434,3064.34
306530,3065.3
306623,3066.23
306714,3067.14
306812,3068.12
306911,3069.11
307013,3070.13
307111,3071.11
307211,3072.11
307313,3073.13
307413,3074.13
307511,3075.11
307606,3076.06
307705,3077.05
307804,3078.04
307901,3079.01
308001,3080.01
308102,3081.02
308203,3082.03
308302,3083.02
308401,3084.01
308496,3084.96
308592,3085.92
308690,3086.9
308784,3087.84
308878,3088.78
308976,3089.76
309075,3090.75
309172,3091.72
309267,3092.67
309365,3093.65
309463,3094.63
309561,3095.61
309656,3096.56
309754,3097.54
309856,3098.56
309956,3099.56
310055,3100.55
310151,3101.51
310245,3102.45
310342,3103.42
310441,3104.41
310541,3105.41
310637,3106.37
310732,3107.32
310829,3108.29
310927,3109.27
311029,3110.29
311126,3111.26
311221,3112.21
311321,3113.21
311423,3114.23
311523,3115.23
311620,3116.2
311713,3117.13
311806,3118.06
311899,3118.99
311992,3119.92
312085,3120.85
312176,3121.76
312269,3122.69
312365,3123.65
312462,3124.62
312559,3125.59
312657,3126.57
312752,3127.52
312849,3128.49
312947,3129.47
313044,3130.44
313141,3131.41
313236,3132.36
313328,3133.28
313422,3134.22
313513,3135.13
313607,3136.07
313702,3137.02
313798,3137.98
313890,3138.9
313981,3139.81
314075,3140.75
314169,3141.69
314263,3142.63
314355,3143.55
314448,3144.48
314545,3145.45
314642,3146.42
314738,3147.38
314831,3148.31
314927,3149.27
315023,3150.23
315118,3151.18
315211,3152.11
315307,3153.07
315406,3154.06
315503,3155.03
315598,3155.98
315696,3156.96
315792,3157.92
315888,3158.88
315983,3159.83
316078,3160.78
316171,3161.71
316263,3162.63
316360,3163.6
316458,3164.58
316554,3165.54
316648,3166.48
316743,3167.43
316840,3168.4
316937,3169.37
317031,3170.31
317122,3171.22
317215,3172.15
317309,3173.09
317405,3174.05
317502,3175.02
317596,3175.96
317693,3176.93
317791,3177.91
317889,3178.89
317984,3179.84
318081,3180.81
318178,3181.78
318275,3182.75
318372,3183.72
318473,3184.73
318575,3185.75
318678,3186.78
318779,3187.79
318878,3188.78
318977,3189.77
319077,3190.77
319176,3191.76
319273,3192.73
319370,3193.7
319471,3194.71
319573,3195.73
319675,3196.75
319773,3197.73
319871,3198.71
319972,3199.72
320071,3200.71
320169,3201.69
320266,3202.66
320363,3203.63
320459,3204.59
320554,3205.54
320648,3206.48
320747,3207.47
320848,3208.48
320948,3209.48
321043,3210.43
321136,3211.36
321231,3212.31
321324,3213.24
321417,3214.17
321507,3215.07
321600,3216.0
321696,3216.96
321790,3217.9
321883,3218.83
321980,3219.8
322078,3220.78
322177,3221.77
322275,3222.75
322376,3223.76
322479,3224.79
322582,3225.82
322681,3226.81
322777,3227.77
322875,3228.75
322973,3229.73
323072,3230.72
323169,3231.69
323267,3232.67
323363,3233.63
323461,3234.61
323557,3235.57
323650,3236.5
323743,3237.43
323839,3238.39
323932,3239.32
324023,3240.23
324112,3241.12
324206,3242.06
324300,3243.0
324394,3243.94
324484,3244.84
324577,3245.77
324673,3246.73
324767,3247.67
324860,3248.6
324954,3249.54
325049,3250.49
325142,3251.42
325238,3252.38
325336,3253.36
325430,3254.3
325521,3255.21
325613,3256.13
325706,3257.06
325803,3258.03
325896,3258.96
325989,3259.89
326085,3260.85
326175,3261.75
326266,3262.66
326358,3263.58
326447,3264.47
326532,3265.32
326617,3266.17
326699,3266.99
326779,3267.79
326862,3268.62
326949,3269.49
327034,3270.34
327120,3271.2
327211,3272.11
327305,3273.05
327401,3274.01
327497,3274.97
327591,3275.91
327689,3276.89
327788,3277.88
327888,3278.88
327989,3279.89
328089,3280.89
328187,3281.87
328286,3282.86
328385,3283.85
328482,3284.82
328581,3285.81
328677,3286.77
328772,3287.72
328867,3288.67
328963,3289.63
329056,3290.56
329148,3291.48
329241,3292.41
329336,3293.36
329429,3294.29
329520,3295.2
329611,3296.11
329703,3297.03
329797,3297.97
329889,3298.89
329979,3299.79
330072,3300.72
330165,3301.65
330262,3302.62
330359,3303.59
330452,3304.52
330548,3305.48
330644,3306.44
330741,3307.41
330836,3308.36
330931,3309.31
331026,3310.26
331123,3311.23
331219,3312.19
331315,3313.15
331406,3314.06
331498,3314.98
331589,3315.89
331685,3316.85
331785,3317.85
331886,3318.86
331984,3319.84
332084,3320.84
332185,3321.85
332285,3322.85
332384,3323.84
332482,3324.82
332581,3325.81
332679,3326.79
332777,3327.77
332873,3328.73
332969,3329.69
333069,3330.69
333167,3331.67
333266,3332.66
333362,3333.62
333453,3334.53
333543,3335.43
333637,3336.37
333731,3337.31
333827,3338.27
333922,3339.22
334019,3340.19
334118,3341.18
334216,3342.16
334311,3343.11
334405,3344.05
334502,3345.02
334598,3345.98
334693,3346.93
334787,3347.87
334882,3348.82
334979,3349.79
335074,3350.74
335168,3351.68
335258,3352.58
335351,3353.51
335445,3354.45
335539,3355.39
335633,3356.33
335726,3357.26
335824,3358.24
335923,3359.23
336022,3360.22
336116,3361.16
336213,3362.13
336312,3363.12
336412,3364.12
336512,3365.12
336607,3366.07
336701,3367.01
336796,3367.96
336892,3368.92
336988,3369.88
337082,3370.82
337181,3371.81
337282,3372.82
337382,3373.82
337481,3374.81
337584,3375.84
337688,3376.88
337792,3377.92
337892,3378.92
337991,3379.91
338089,3380.89
338187,3381.87
338284,3382.84
338375,3383.75
338470,3384.7
338565,3385.65
338661,3386.61
338757,3387.57
338848,3388.48
338941,3389.41
339035,3390.35
339127,3391.27
339219,3392.19
339318,3393.18
339416,3394.16
339513,3395.13
339609,3396.09
339702,3397.02
339800,3398.0
339898,3398.98
339997,3399.97
340093,3400.93
340188,3401.88
340283,3402.83
340381,3403.81
340479,3404.79
340576,3405.76
340670,3406.7
340765,3407.65
340865,3408.65
340964,3409.64
341061,3410.61
341156,3411.56
341252,3412.52
341347,3413.47
341441,3414.41
341534,3415.34
341628,3416.28
341725,3417.25
341820,3418.2
341914,3419.14
342014,3420.14
342112,3421.12
342210,3422.1
342304,3423.04
342398,3423.98
342491,3424.91
342583,3425.83
342673,3426.73
342768,3427.68
342862,3428.62
342955,3429.55
343046,3430.46
343141,3431.41
343239,3432.39
343337,3433.37
343432,3434.32
343531,3435.31
343632,3436.32
343733,3437.33
343833,3438.33
343929,3439.29
344024,3440.24
344122,3441.22
344220,3442.2
344316,3443.16
344411,3444.11
344508,3445.08
344606,3446.06
344707,3447.07
344803,3448.03
344898,3448.98
344997,3449.97
345096,3450.96
345193,3451.93
345282,3452.82
345373,3453.73
345467,3454.67
345558,3455.58
345645,3456.45
345732,3457.32
345823,3458.23
345920,3459.2
346021,3460.21
346119,3461.19
346221,3462.21
346327,3463.27
346433,3464.33
346533,3465.33
346636,3466.36
346738,3467.38
346839,3468.39
346935,3469.35
347031,3470.31
347128,3471.28
347225,3472.25
347321,3473.21
347414,3474.14
347508,3475.08
347602,3476.02
347698,3476.98
347793,3477.93
347886,3478.86
347982,3479.82
348078,3480.78
348171,3481.71
348263,3482.63
348355,3483.55
348447,3484.47
348540,3485.4
348632,3486.32
348722,3487.22
348816,3488.16
348912,3489.12
349010,3490.1
349104,3491.04
349198,3491.98
349294,3492.94
349390,3493.9
349486,3494.86
349579,3495.79
349674,3496.74
349770,3497.7
349864,3498.64
349957,3499.57
350052,3500.52
350148,3501.48
350243,3502.43
350335,3503.35
350433,3504.33
350531,3505.31
350630,3506.3
350726,3507.26
350821,3508.21
350916,3509.16
351013,3510.13
351112,3511.12
351210,3512.1
351305,3513.05
351397,3513.97
351492,3514.92
351585,3515.85
351680,3516.8
351776,3517.76
351870,3518.7
351969,3519.69
352069,3520.69
352168,3521.68
352265,3522.65
352363,3523.63
352461,3524.61
352561,3525.61
352656,3526.56
352751,3527.51
352850,3528.5
352951,3529.51
353048,3530.48
353142,3531.42
353237,3532.37
353334,3533.34
353434,3534.34
353529,3535.29
353629,3536.29
353733,3537.33
353835,3538.35
353935,3539.35
354037,3540.37
354142,3541.42
354246,3542.46
354348,3543.48
354444,3544.44
354541,3545.41
354640,3546.4
354738,3547.38
354832,3548.32
354927,3549.27
355025,3550.25
355120,3551.2
355216,3552.16
355310,3553.1
355406,3554.06
355505,3555.05
355601,3556.01
355698,3556.98
355789,3557.89
355881,3558.81
355972,3559.72
356062,3560.62
356155,3561.55
356252,3562.52
356349,3563.49
356443,3564.43
356539,3565.39
356637,3566.37
356736,3567.36
356836,3568.36
356930,3569.3
357024,3570.24
357119,3571.19
357216,3572.16
357310,3573.1
357403,3574.03
357499,3574.99
357594,3575.94
357689,3576.89
357780,3577.8
357874,3578.74
357969,3579.69
358064,3580.64
358156,3581.56
358248,3582.48
358344,3583.44
358441,3584.41
358539,3585.39
358635,3586.35
358729,3587.29
358827,3588.27
358927,3589.27
359023,3590.23
359118,3591.18
359215,3592.15
359312,3593.12
359411,3594.11
359506,3595.06
359604,3596.04
359704,3597.04
359803,3598.03
359901,3599.01
359996,3599.96
360093,3600.93
360191,3601.91
360286,3602.86
360378,3603.78
360472,3604.72
360567,3605.67
360659,3606.59
360754,3607.54
360848,3608.48
360944,3609.44
361036,3610.36
361130,3611.3
361224,3612.24
361317,3613.17
361407,3614.07
361499,3614.99
361592,3615.92
361682,3616.82
361771,3617.71
361862,3618.62
361954,3619.54
362052,3620.52
362146,3621.46
362238,3622.38
362333,3623.33
362428,3624.28
362523,3625.23
362619,3626.19
362719,3627.19
362820,3628.2
362920,3629.2
363017,3630.17
363115,3631.15
363212,3632.12
363310,3633.1
363406,3634.06
363503,3635.03
363600,3636.0
363697,3636.97
363792,3637.92
363890,3638.9
363988,3639.88
364087,3640.87
364184,3641.84
364277,3642.77
364371,3643.71
364466,3644.66
364561,3645.61
364655,3646.55
364752,3647.52
364851,3648.51
364950,3649.5
365045,3650.45
365144,3651.44
365243,3652.43
365342,3653.42
365439,3654.39
365535,3655.35
365633,3656.33
365732,3657.32
365829,3658.29
365923,3659.23
366018,3660.18
366114,3661.14
366209,3662.09
366301,3663.01
366390,3663.9
366483,3664.83
366577,3665.77
366674,3666.74
366773,3667.73
366869,3668.69
366969,3669.69
367070,3670.7
367173,3671.73
367275,3672.75
367373,3673.73
367474,3674.74
367575,3675.75
367676,3676.76
367774,3677.74
367874,3678.74
367971,3679.71
368067,3680.67
368160,3681.6
368256,3682.56
368354,3683.54
368447,3684.47
368539,3685.39
368633,3686.33
368726,3687.26
368820,3688.2
368907,3689.07
368993,3689.93
369078,3690.78
369160,3691.6
369240,3692.4
369321,3693.21
369406,3694.06
369491,3694.91
369579,3695.79
369672,3696.72
369770,3697.7
369870,3698.7
369973,3699.73
370072,3700.72
370171,3701.71
370272,3702.72
370374,3703.74
370473,3704.73
370572,3705.72
370667,3706.67
370762,3707.62
370859,3708.59
370956,3709.56
371055,3710.55
371152,3711.52
371248,3712.48
371348,3713.48
371448,3714.48
371548,3715.48
371644,3716.44
371738,3717.38
371834,3718.34
371929,3719.29
372023,3720.23
372117,3721.17
372214,3722.14
372311,3723.11
372403,3724.03
372494,3724.94
372587,3725.87
372683,3726.83
372780,3727.8
372875,3728.75
372968,3729.68
373063,3730.63
373159,3731.59
373256,3732.56
373352,3733.52
373449,3734.49
373548,3735.48
373646,3736.46
373741,3737.41
373837,3738.37
373933,3739.33
374030,3740.3
374125,3741.25
374219,3742.19
374307,3743.07
374395,3743.95
374487,3744.87
374579,3745.79
374671,3746.71
374763,3747.63
374860,3748.6
374959,3749.59
375055,3750.55
375148,3751.48
375241,3752.41
375335,3753.35
375428,3754.28
375521,3755.21
375610,3756.1
375704,3757.04
375799,3757.99
375894,3758.94
375986,3759.86
376076,3760.76
376172,3761.72
376267,3762.67
376363,3763.63
376457,3764.57
376556,3765.56
376655,3766.55
376754,3767.54
376852,3768.52
376947,3769.47
377043,3770.43
377138,3771.38
377232,3772.32
377324,3773.24
377417,3774.17
377511,3775.11
377606,3776.06
377699,3776.99
377790,3777.9
377886,3778.86
377981,3779.81
378078,3780.78
378173,3781.73
378266,3782.66
378362,3783.62
378456,3784.56
378549,3785.49
378637,3786.37
378731,3787.31
378827,3788.27
378924,3789.24
379018,3790.18
379110,3791.1
379204,3792.04
379301,3793.01
379400,3794.0
379498,3794.98
379597,3795.97
379699,3796.99
379801,3798.01
379901,3799.01
379997,3799.97
380093,3800.93
380192,3801.92
380290,3802.9
380384,3803.84
380475,3804.75
380567,3805.67
380663,3806.63
380758,3807.58
380852,3808.52
380948,3809.48
381044,3810.44
381143,3811.43
381238,3812.38
381334,3813.34
381433,3814.33
381534,3815.34
381635,3816.35
381731,3817.31
381824,3818.24
381919,3819.19
382014,3820.14
382111,3821.11
382204,3822.04
382296,3822.96
382391,3823.91
382487,3824.87
382584,3825.84
382678,3826.78
382776,3827.76
382874,3828.74
382972,3829.72
383067,3830.67
383162,3831.62
383259,3832.59
383357,3833.57
383454,3834.54
383547,3835.47
383637,3836.37
383733,3837.33
383830,3838.3
383925,3839.25
384015,3840.15
384109,3841.09
384203,3842.03
384297,3842.97
384391,3843.91
384483,3844.83
384573,3845.73
384665,3846.65
384760,3847.6
384855,3848.55
384949,3849.49
385046,3850.46
385143,3851.43
385243,3852.43
385340,3853.4
385436,3854.36
385535,3855.35
385635,3856.35
385732,3857.32
385830,3858.3
385928,3859.28
386026,3860.26
386124,3861.24
386220,3862.2
386313,3863.13
386413,3864.13
386510,3865.1
386608,3866.08
386699,3866.99
386796,3867.96
386888,3868.88
386983,3869.83
387079,3870.79
387175,3871.75
387273,3872.73
387367,3873.67
387459,3874.59
387555,3875.55
387650,3876.5
387741,3877.41
387832,3878.32
387929,3879.29
388026,3880.26
388121,3881.21
388216,3882.16
388306,3883.06
388402,3884.02
388496,3884.96
388589,3885.89
388679,3886.79
388772,3887.72
388867,3888.67
388960,3889.6
389057,3890.57
389156,3891.56
389255,3892.55
389353,3893.53
389452,3894.52
389551,3895.51
389651,3896.51
389750,3897.5
389844,3898.44
389947,3899.47
390045,3900.45
390143,3901.43
390236,3902.36
390330,3903.3
390427,3904.27
390522,3905.22
390612,3906.12
390703,3907.03
390791,3907.91
390884,3908.84
390981,3909.81
391081,3910.81
391180,3911.8
391275,3912.75
391373,3913.73
391472,3914.72
391571,3915.71
391667,3916.67
391763,3917.63
391861,3918.61
391959,3919.59
392054,3920.54
392149,3921.49
392247,3922.47
392347,3923.47
392445,3924.45
392540,3925.4
392637,3926.37
392735,3927.35
392831,3928.31
392923,3929.23
393018,3930.18
393114,3931.14
393212,3932.12
393310,3933.1
393405,3934.05
393502,3935.02
393599,3935.99
393694,3936.94
393789,3937.89
393880,3938.8
393974,3939.74
394069,3940.69
394166,3941.66
394261,3942.61
394355,3943.55
394452,3944.52
394549,3945.49
394647,3946.47
394744,3947.44
394837,3948.37
394935,3949.35
395032,3950.32
395128,3951.28
395220,3952.2
395317,3953.17
395415,3954.15
395512,3955.12
395606,3956.06
395698,3956.98
395792,3957.92
395887,3958.87
395981,3959.81
396074,3960.74
396163,3961.63
396253,3962.53
396344,3963.44
396437,3964.37
396529,3965.29
396621,3966.21
396714,3967.14
396812,3968.12
396910,3969.1
397002,3970.02
397097,3970.97
397191,3971.91
397285,3972.85
397378,3973.78
397467,3974.67
397563,3975.63
397659,3976.59
397756,3977.56
397852,3978.52
397947,3979.47
398041,3980.41
398137,3981.37
398230,3982.3
398320,3983.2
398418,3984.18
398515,3985.15
398611,3986.11
398703,3987.03
398798,3987.98
398894,3988.94
398990,3989.9
399081,3990.81
399181,3991.81
399280,3992.8
399376,3993.76
399469,3994.69
399565,3995.65
399663,3996.63
399764,3997.64
399859,3998.59
399954,3999.54
400051,4000.51
400147,4001.47
400239,4002.39
400332,4003.32
400429,4004.29
400524,4005.24
400619,4006.19
400714,4007.14
400812,4008.12
400909,4009.09
401004,4010.04
401096,4010.96
401191,4011.91
401285,4012.85
401382,4013.82
401476,4014.76
401567,4015.67
401663,4016.63
401760,4017.6
401855,4018.55
401947,4019.47
402037,4020.37
402132,4021.32
402226,4022.26
402322,4023.22
402414,4024.14
402510,4025.1
402609,4026.09
402708,4027.08
402802,4028.02
402897,4028.97
402991,4029.91
403083,4030.83
403177,4031.77
403274,4032.74
403371,4033.71
403466,4034.66
403559,4035.59
403655,4036.55
403751,4037.51
403848,4038.48
403944,4039.44
404036,4040.36
404129,4041.29
404224,4042.24
404317,4043.17
404407,4044.07
404503,4045.03
404599,4045.99
404696,4046.96
404792,4047.92
404891,4048.91
404992,4049.92
405092,4050.92
405189,4051.89
405288,4052.88
405388,4053.88
405483,4054.83
405578,4055.78
405676,4056.76
405775,4057.75
405870,4058.7
405962,4059.62
406058,4060.58
406156,4061.56
406252,4062.52
406344,4063.44
406435,4064.35
406533,4065.33
406627,4066.27
406720,4067.2
406809,4068.09
406903,4069.03
406998,4069.98
407092,4070.92
407185,4071.85
407275,4072.75
407368,4073.68
407463,4074.63
407557,4075.57
407648,4076.48
407744,4077.44
407840,4078.4
407937,4079.37
408032,4080.32
408127,4081.27
408224,4082.24
408320,4083.2
408414,4084.14
408509,4085.09
408608,4086.08
408708,4087.08
408804,4088.04
408900,4089.0
408991,4089.91
409088,4090.88
409184,4091.84
409281,4092.81
409376,4093.76
409472,4094.72
409571,4095.71
409669,4096.69
409765,4097.65
409861,4098.61
409959,4099.59
410056,4100.56
410153,4101.53
410250,4102.5
410344,4103.44
410438,4104.38
410534,4105.34
410627,4106.27
410719,4107.19
410811,4108.11
410907,4109.07
411005,4110.05
411103,4111.03
411199,4111.99
411296,4112.96
411394,4113.94
411492,4114.92
411587,4115.87
411681,4116.81
411776,4117.76
411870,4118.7
411964,4119.64
412060,4120.6
412157,4121.57
412255,4122.55
412351,4123.51
412445,4124.45
412540,4125.4
412635,4126.35
412729,4127.29
412822,4128.22
412915,4129.15
413010,4130.1
413104,4131.04
413196,4131.96
413290,4132.9
413385,4133.85
413481,4134.81
413578,4135.78
413674,4136.74
413773,4137.73
413873,4138.73
413972,4139.72
414068,4140.68
414166,4141.66
414265,4142.65
414362,4143.62
414457,4144.57
414554,4145.54
414652,4146.52
414748,4147.48
414842,4148.42
414938,4149.38
415032,4150.32
415125,4151.25
415217,4152.17
415313,4153.13
415409,4154.09
415507,4155.07
415601,4156.01
415695,4156.95
415789,4157.89
415884,4158.84
415977,4159.77
416071,4160.71
416167,4161.67
416262,4162.62
416355,4163.55
416449,4164.49
416543,4165.43
416638,4166.38
416732,4167.32
416824,4168.24
416916,4169.16
417010,4170.1
417105,4171.05
417197,4171.97
417290,4172.9
417384,4173.84
417479,4174.79
417573,4175.73
417665,4176.65
417762,4177.62
417859,4178.59
417953,4179.53
418047,4180.47
418143,4181.43
418241,4182.41
418336,4183.36
418428,4184.28
418520,4185.2
418613,4186.13
418706,4187.06
418797,4187.97
418891,4188.91
418985,4189.85
419078,4190.78
419171,4191.71
419265,4192.65
419360,4193.6
419453,4194.53
419544,4195.44
419637,4196.37
419731,4197.31
419824,4198.24
419916,4199.16
420010,4200.1
420104,4201.04
420199,4201.99
420292,4202.92
420383,4203.83
420477,4204.77
420573,4205.73
420668,4206.68
420761,4207.61
420857,4208.57
420953,4209.53
421049,4210.49
421144,4211.44
421241,4212.41
421339,4213.39
421433,4214.33
421527,4215.27
421623,4216.23
421719,4217.19
421812,4218.12
421906,4219.06
422001,4220.01
422097,4220.97
422193,4221.93
422287,4222.87
422383,4223.83
422480,4224.8
422575,4225.75
422668,4226.68
422763,4227.63
422858,4228.58
422952,4229.52
423044,4230.44
423137,4231.37
423230,4232.3
423323,4233.23
423416,4234.16
423510,4235.1
423605,4236.05
423700,4237.0
423794,4237.94
423888,4238.88
423983,4239.83
424080,4240.8
424175,4241.75
424270,4242.7
424369,4243.69
424467,4244.67
424562,4245.62
424651,4246.51
424745,4247.45
424837,4248.37
424930,4249.3
425025,4250.25
425121,4251.21
425216,4252.16
425313,4253.13
425405,4254.05
425496,4254.96
425592,4255.92
425690,4256.9
425782,4257.82
425874,4258.74
425971,4259.71
426064,4260.64
426156,4261.56
426251,4262.51
426349,4263.49
426446,4264.46
426539,4265.39
426630,4266.3
426725,4267.25
426819,4268.19
426912,4269.12
427004,4270.04
427099,4270.99
427199,4271.99
427297,4272.97
427395,4273.95
427489,4274.89
427587,4275.87
427686,4276.86
427783,4277.83
427877,4278.77
427972,4279.72
428070,4280.7
428167,4281.67
428265,4282.65
428360,4283.6
428456,4284.56
428552,4285.52
428650,4286.5
428744,4287.44
428839,4288.39
428937,4289.37
429037,4290.37
429135,4291.35
429227,4292.27
429325,4293.25
429423,4294.23
429517,4295.17
429608,4296.08
429704,4297.04
429795,4297.95
429892,4298.92
429982,4299.82
430072,4300.72
430165,4301.65
430258,4302.58
430352,4303.52
430445,4304.45
430536,4305.36
430632,4306.32
430726,4307.26
430823,4308.23
430914,4309.14
431009,4310.09
431106,4311.06
431204,4312.04
431302,4313.02
431398,4313.98
431495,4314.95
431592,4315.92
431684,4316.84
431775,4317.75
431870,4318.7
431961,4319.61
432050,4320.5
432136,4321.36
432223,4322.23
432314,4323.14
432405,4324.05
432497,4324.97
432588,4325.88
432681,4326.81
432778,4327.78
432875,4328.75
432970,4329.7
433068,4330.68
433165,4331.65
433262,4332.62
433354,4333.54
433447,4334.47
433547,4335.47
433642,4336.42
433731,4337.31
433821,4338.21
433915,4339.15
434010,4340.1
434105,4341.05
434202,4342.02
434295,4342.95
434391,4343.91
434490,4344.9
434588,4345.88
434684,4346.84
434780,4347.8
434878,4348.78
434975,4349.75
435071,4350.71
435165,4351.65
435257,4352.57
435347,4353.47
435441,4354.41
435533,4355.33
435620,4356.2
435710,4357.1
435802,4358.02
435894,4358.94
435986,4359.86
436075,4360.75
436163,4361.63
436256,4362.56
436348,4363.48
436441,4364.41
436534,4365.34
436625,4366.25
436722,4367.22
436819,4368.19
436913,4369.13
437005,4370.05
437096,4370.96
437194,4371.94
437293,4372.93
437393,4373.93
437493,4374.93
437593,4375.93
437694,4376.94
437793,4377.93
437890,4378.9
437984,4379.84
438078,4380.78
438173,4381.73
438264,4382.64
438358,4383.58
438448,4384.48
438541,4385.41
438633,4386.33
438725,4387.25
438818,4388.18
438908,4389.08
439006,4390.06
439104,4391.04
439203,4392.03
439300,4393.0
439393,4393.93
439489,4394.89
439584,4395.84
439680,4396.8
439774,4397.74
439867,4398.67
439958,4399.58
440050,4400.5
440145,4401.45
440242,4402.42
440336,4403.36
440430,4404.3
440526,4405.26
440618,4406.18
440712,4407.12
440800,4408.0
440887,4408.87
440976,4409.76
441069,4410.69
441164,4411.64
441258,4412.58
441353,4413.53
441449,4414.49
441546,4415.46
441641,4416.41
441737,4417.37
441835,4418.35
441933,4419.33
442028,4420.28
442118,4421.18
442210,4422.1
442302,4423.02
442395,4423.95
442487,4424.87
442578,4425.78
442668,4426.68
442761,4427.61
442856,4428.56
442950,4429.5
443042,4430.42
443134,4431.34
443227,4432.27
443320,4433.2
443412,4434.12
443501,4435.01
443588,4435.88
443679,4436.79
443770,4437.7
443861,4438.61
443949,4439.49
444038,4440.38
444129,4441.29
444221,4442.21
444315,4443.15
444406,4444.06
444495,4444.95
444589,4445.89
444684,4446.84
444780,4447.8
444875,4448.75
444968,4449.68
445062,4450.62
445160,4451.6
445256,4452.56
445349,4453.49
445438,4454.38
445531,4455.31
445624,4456.24
445717,4457.17
445810,4458.1
445896,4458.96
445989,4459.89
446082,4460.82
446174,4461.74
446268,4462.68
446356,4463.56
446449,4464.49
446542,4465.42
446637,4466.37
446729,4467.29
446819,4468.19
446912,4469.12
447005,4470.05
447099,4470.99
447190,4471.9
447278,4472.78
447374,4473.74
447469,4474.69
447565,4475.65
447658,4476.58
447749,4477.49
447846,4478.46
447944,4479.44
448039,4480.39
448130,4481.3
448224,4482.24
448321,4483.21
448411,4484.11
448504,4485.04
448593,4485.93
448692,4486.92
448784,4487.84
448874,4488.74
448972,4489.72
449067,4490.67
449163,4491.63
449253,4492.53
449348,4493.48
449442,4494.42
449536,4495.36
449625,4496.25
449717,4497.17
449815,4498.15
449910,4499.1
450003,4500.03
450093,4500.93
450187,4501.87
450280,4502.8
450373,4503.73
450467,4504.67
450561,4505.61
450649,4506.49
450748,4507.48
450845,4508.45
450944,4509.44
451041,4510.41
451132,4511.32
451229,4512.29
451325,4513.25
451420,4514.2
451514,4515.14
451607,4516.07
451704,4517.04
451800,4518.0
451896,4518.96
451987,4519.87
452079,4520.79
452175,4521.75
452268,4522.68
452361,4523.61
452450,4524.5
452544,4525.44
452640,4526.4
452734,4527.34
452827,4528.27
452917,4529.17
453013,4530.13
453109,4531.09
453204,4532.04
453296,4532.96
453383,4533.83
453477,4534.77
453571,4535.71
453666,4536.66
453760,4537.6
453850,4538.5
453944,4539.44
454036,4540.36
454128,4541.28
454219,4542.19
454310,4543.1
454404,4544.04
454501,4545.01
454601,4546.01
454696,4546.96
454792,4547.92
454891,4548.91
454989,4549.89
455084,4550.84
455182,4551.82
455282,4552.82
455382,4553.82
455480,4554.8
455575,4555.75
455674,4556.74
455773,4557.73
455872,4558.72
455967,4559.67
456059,4560.59
456153,4561.53
456248,4562.48
456344,4563.44
456437,4564.37
456528,4565.28
456622,4566.22
456717,4567.17
456811,4568.11
456903,4569.03
456997,4569.97
457092,4570.92
457187,4571.87
457280,4572.8
457374,4573.74
457471,4574.71
457568,4575.68
457665,4576.65
457759,4577.59
457855,4578.55
457951,4579.51
458046,4580.46
458138,4581.38
458226,4582.26
458316,4583.16
458408,4584.08
458499,4584.99
458590,4585.9
458685,4586.85
458783,4587.83
458881,4588.81
458977,4589.77
459073,4590.73
459172,4591.72
459271,4592.71
459369,4593.69
459464,4594.64
459560,4595.6
459660,4596.6
459758,4597.58
459855,4598.55
459949,4599.49
460047,4600.47
460145,4601.45
460239,4602.39
460332,4603.32
460429,4604.29
460522,4605.22
460613,4606.13
460700,4607.0
460788,4607.88
460879,4608.79
460973,4609.73
461065,4610.65
461153,4611.53
461248,4612.48
461342,4613.42
461437,4614.37
461531,4615.31
461620,4616.2
461716,4617.16
461810,4618.1
461903,4619.03
461991,4619.91
462086,4620.86
462181,4621.81
462276,4622.76
462370,4623.7
462460,4624.6
462555,4625.55
462651,4626.51
462749,4627.49
462846,4628.46
462937,4629.37
463033,4630.33
463127,4631.27
463223,4632.23
463317,4633.17
463413,4634.13
463508,4635.08
463604,4636.04
463699,4636.99
463790,4637.9
463887,4638.87
463985,4639.85
464083,4640.83
464178,4641.78
464269,4642.69
464364,4643.64
464457,4644.57
464547,4645.47
464636,4646.36
464728,4647.28
464822,4648.22
464919,4649.19
465014,4650.14
465112,4651.12
465213,4652.13
465313,4653.13
465408,4654.08
465509,4655.09
465609,4656.09
465706,4657.06
465799,4657.99
465898,4658.98
465998,4659.98
466097,4660.97
466190,4661.9
466284,4662.84
466380,4663.8
466474,4664.74
466564,4665.64
466653,4666.53
466750,4667.5
466848,4668.48
466946,4669.46
467042,4670.42
467134,4671.34
467229,4672.29
467322,4673.22
467415,4674.15
467504,4675.04
467595,4675.95
467691,4676.91
467787,4677.87
467882,4678.82
467973,4679.73
468071,4680.71
468169,4681.69
468264,4682.64
468353,4683.53
468446,4684.46
468543,4685.43
468637,4686.37
468726,4687.26
468822,4688.22
468916,4689.16
469011,4690.11
469101,4691.01
469192,4691.92
469287,4692.87
469381,4693.81
469474,4694.74
469565,4695.65
469657,4696.57
469750,4697.5
469843,4698.43
469936,4699.36
470026,4700.26
470121,4701.21
470216,4702.16
470311,4703.11
470406,4704.06
470496,4704.96
470592,4705.92
470683,4706.83
470777,4707.77
470867,4708.67
470957,4709.57
471046,4710.46
471136,4711.36
471225,4712.25
471312,4713.12
471397,4713.97
471487,4714.87
471580,4715.8
471672,4716.72
471763,4717.63
471858,4718.58
471952,4719.52
472045,4720.45
472134,4721.34
472227,4722.27
472321,4723.21
472415,4724.15
472507,4725.07
472596,4725.96
472692,4726.92
472788,4727.88
472884,4728.84
472980,4729.8
473070,4730.7
473170,4731.7
473271,4732.71
473368,4733.68
473466,4734.66
473561,4735.61
473658,4736.58
473755,4737.55
473854,4738.54
473951,4739.51
474045,4740.45
474144,4741.44
474241,4742.41
474339,4743.39
474433,4744.33
474527,4745.27
474619,4746.19
474712,4747.12
474802,4748.02
474890,4748.9
474986,4749.86
475081,4750.81
475177,4751.77
475270,4752.7
475362,4753.62
475457,4754.57
475553,4755.53
475647,4756.47
475736,4757.36
475826,4758.26
475918,4759.18
476007,4760.07
476101,4761.01
476196,4761.96
476290,4762.9
476380,4763.8
476467,4764.67
476557,4765.57
476649,4766.49
476740,4767.4
476828,4768.28
476925,4769.25
477025,4770.25
477127,4771.27
477225,4772.25
477325,4773.25
477426,4774.26
477528,4775.28
477627,4776.27
477724,4777.24
477821,4778.21
477920,4779.2
478017,4780.17
478113,4781.13
478204,4782.04
478301,4783.01
478398,4783.98
478494,4784.94
478588,4785.88
478678,4786.78
478773,4787.73
478867,4788.67
478961,4789.61
479055,4790.55
479145,4791.45
479235,4792.35
479327,4793.27
479419,4794.19
479508,4795.08
479596,4795.96
479687,4796.87
479778,4797.78
479866,4798.66
479954,4799.54
480047,4800.47
480138,4801.38
480230,4802.3
480318,4803.18
480407,4804.07
480497,4804.97
480583,4805.83
480668,4806.68
480753,4807.53
480835,4808.35
480914,4809.14
480992,4809.92
481073,4810.73
481155,4811.55
481241,4812.41
481330,4813.3
481421,4814.21
481515,4815.15
481608,4816.08
481701,4817.01
481796,4817.96
481891,4818.91
481987,4819.87
482079,4820.79
482175,4821.75
482271,4822.71
482366,4823.66
482460,4824.6
482553,4825.53
482651,4826.51
482747,4827.47
482846,4828.46
482943,4829.43
483038,4830.38
483129,4831.29
483225,4832.25
483321,4833.21
483419,4834.19
483513,4835.13
483602,4836.02
483696,4836.96
483788,4837.88
483881,4838.81
483972,4839.72
484062,4840.62
484156,4841.56
484254,4842.54
484354,4843.54
484452,4844.52
484545,4845.45
484641,4846.41
484736,4847.36
484830,4848.3
484920,4849.2
485013,4850.13
485108,4851.08
485200,4852.0
485284,4852.84
485368,4853.68
485449,4854.49
485513,4855.13
485570,4855.7
485634,4856.34
485692,4856.92
485772,4857.72
485850,4858.5
485927,4859.27
486002,4860.02
486075,4860.75
486148,4861.48
486218,4862.18
486289,4862.89
486358,4863.58
486426,4864.26
486493,4864.93
486560,4865.6
486625,4866.25
486690,4866.9
486754,4867.54
486818,4868.18
486881,4868.81
486944,4869.44
487007,4870.07
487069,4870.69
487130,4871.3
487190,4871.9
487250,4872.5
487311,4873.11
487372,4873.72
487434,4874.34
487497,4874.97
487559,4875.59
487621,4876.21
487684,4876.84
487749,4877.49
487815,4878.15
487883,4878.83
487952,4879.52
488022,4880.22
488095,4880.95
488171,4881.71
488248,4882.48
488323,4883.23
488394,4883.94
488465,4884.65
488530,4885.3
488595,4885.95
488673,4886.73
488745,4887.45
488819,4888.19
488897,4888.97
488977,4889.77
489058,4890.58
489139,4891.39
489218,4892.18
489296,4892.96
489378,4893.78
489464,4894.64
489550,4895.5
489637,4896.37
489724,4897.24
489808,4898.08
489892,4898.92
489977,4899.77
490065,4900.65
490155,4901.55
490244,4902.44
490333,4903.33
490420,4904.2
490506,4905.06
490592,4905.92
490681,4906.81
490771,4907.71
490861,4908.61
490949,4909.49
491035,4910.35
491120,4911.2
491205,4912.05
491293,4912.93
491383,4913.83
491472,4914.72
491562,4915.62
491651,4916.51
491737,4917.37
491822,4918.22
491909,4919.09
492000,4920.0
492091,4920.91
492183,4921.83
492274,4922.74
492363,4923.63
492450,4924.5
492533,4925.33
492617,4926.17
492702,4927.02
492791,4927.91
492881,4928.81
492971,4929.71
493059,4930.59
493145,4931.45
493229,4932.29
493315,4933.15
493402,4934.02
493490,4934.9
493579,4935.79
493668,4936.68
493756,4937.56
493843,4938.43
493929,4939.29
494018,4940.18
494107,4941.07
494197,4941.97
494288,4942.88
494378,4943.78
494466,4944.66
494552,4945.52
494638,4946.38
494726,4947.26
494811,4948.11
494900,4949.0
494983,4949.83
495067,4950.67
495150,4951.5
495238,4952.38
495328,4953.28
495417,4954.17
495502,4955.02
495585,4955.85
495666,4956.66
495747,4957.47
495827,4958.27
495908,4959.08
495989,4959.89
496071,4960.71
496154,4961.54
496242,4962.42
496332,4963.32
496423,4964.23
496510,4965.1
496597,4965.97
496686,4966.86
496780,4967.8
496868,4968.68
496960,4969.6
497053,4970.53
497145,4971.45
497235,4972.35
497327,4973.27
497421,4974.21
497509,4975.09
497601,4976.01
497687,4976.87
497776,4977.76
497860,4978.6
497949,4979.49
498041,4980.41
498132,4981.32
498220,4982.2
498305,4983.05
498390,4983.9
498478,4984.78
498569,4985.69
498661,4986.61
498753,4987.53
498841,4988.41
498931,4989.31
499026,4990.26
499117,4991.17
499214,4992.14
499305,4993.05
499396,4993.96
499487,4994.87
499584,4995.84
499678,4996.78
499767,4997.67
499856,4998.56
499942,4999.42
500029,5000.29
500116,5001.16
500206,5002.06
500298,5002.98
500384,5003.84
500472,5004.72
500561,5005.61
500650,5006.5
500738,5007.38
500824,5008.24
500909,5009.09
500996,5009.96
501081,5010.81
501167,5011.67
501252,5012.52
501335,5013.35
501423,5014.23
501513,5015.13
501603,5016.03
501689,5016.89
501779,5017.79
501869,5018.69
501958,5019.58
502048,5020.48
502134,5021.34
502222,5022.22
502308,5023.08
502394,5023.94
502481,5024.81
502565,5025.65
502649,5026.49
502735,5027.35
502823,5028.23
502912,5029.12
503001,5030.01
503088,5030.88
503178,5031.78
503268,5032.68
503357,5033.57
503445,5034.45
503530,5035.3
503615,5036.15
503701,5037.01
503790,5037.9
503877,5038.77
503963,5039.63
504052,5040.52
504142,5041.42
504233,5042.33
504323,5043.23
504413,5044.13
504503,5045.03
504595,5045.95
504682,5046.82
504769,5047.69
504860,5048.6
504947,5049.47
505036,5050.36
505122,5051.22
505207,5052.07
505293,5052.93
505382,5053.82
505477,5054.77
505566,5055.66
505655,5056.55
505744,5057.44
505838,5058.38
505924,5059.24
506011,5060.11
506100,5061.0
506193,5061.93
506283,5062.83
506370,5063.7
506460,5064.6
506548,5065.48
506636,5066.36
506722,5067.22
506806,5068.06
506889,5068.89
506975,5069.75
507062,5070.62
507152,5071.52
507237,5072.37
507327,5073.27
507417,5074.17
507512,5075.12
507603,5076.03
507697,5076.97
507785,5077.85
507875,5078.75
507964,5079.64
508053,5080.53
508139,5081.39
508224,5082.24
508312,5083.12
508400,5084.0
508492,5084.92
508579,5085.79
508665,5086.65
508756,5087.56
508843,5088.43
508934,5089.34
509020,5090.2
509105,5091.05
509191,5091.91
509278,5092.78
509365,5093.65
509449,5094.49
509539,5095.39
509627,5096.27
509716,5097.16
509801,5098.01
509884,5098.84
509969,5099.69
510053,5100.53
510141,5101.41
510226,5102.26
510308,5103.08
510389,5103.89
510473,5104.73
510558,5105.58
510646,5106.46
510734,5107.34
510823,5108.23
510917,5109.17
511014,5110.14
511111,5111.11
511206,5112.06
511301,5113.01
511394,5113.94
511487,5114.87
511578,5115.78
511667,5116.67
511759,5117.59
511856,5118.56
511952,5119.52
512048,5120.48
512139,5121.39
512226,5122.26
512314,5123.14
512409,5124.09
512504,5125.04
512600,5126.0
512694,5126.94
512787,5127.87
512882,5128.82
512976,5129.76
513069,5130.69
513160,5131.6
513249,5132.49
513340,5133.4
513436,5134.36
513532,5135.32
513620,5136.2
513707,5137.07
513796,5137.96
513885,5138.85
513973,5139.73
514059,5140.59
514146,5141.46
514235,5142.35
514327,5143.27
514418,5144.18
514505,5145.05
514590,5145.9
514676,5146.76
514765,5147.65
514854,5148.54
514940,5149.4
515026,5150.26
515116,5151.16
515211,5152.11
515301,5153.01
515391,5153.91
515480,5154.8
515570,5155.7
515666,5156.66
515756,5157.56
515853,5158.53
515943,5159.43
516034,5160.34
516124,5161.24
516216,5162.16
516302,5163.02
516387,5163.87
516471,5164.71
516556,5165.56
516646,5166.46
516738,5167.38
516829,5168.29
516921,5169.21
517016,5170.16
517111,5171.11
517206,5172.06
517295,5172.95
517386,5173.86
517474,5174.74
517564,5175.64
517654,5176.54
517743,5177.43
517837,5178.37
517931,5179.31
518025,5180.25
518114,5181.14
518201,5182.01
518291,5182.91
518384,5183.84
518470,5184.7
518558,5185.58
518650,5186.5
518741,5187.41
518831,5188.31
518917,5189.17
519006,5190.06
519098,5190.98
519186,5191.86
519277,5192.77
519362,5193.62
519448,5194.48
519537,5195.37
519628,5196.28
519719,5197.19
519806,5198.06
519894,5198.94
519983,5199.83
520070,5200.7
520157,5201.57
520245,5202.45
520335,5203.35
520424,5204.24
520513,5205.13
520600,5206.0
520692,5206.92
520784,5207.84
520878,5208.78
520967,5209.67
521058,5210.58
521155,5211.55
521248,5212.48
521344,5213.44
521433,5214.33
521521,5215.21
521609,5216.09
521699,5216.99
521798,5217.98
521890,5218.9
521983,5219.83
522085,5220.85
522186,5221.86
522286,5222.86
522382,5223.82
522473,5224.73
522568,5225.68
522667,5226.67
522759,5227.59
522851,5228.51
522941,5229.41
523032,5230.32
523126,5231.26
523217,5232.17
523307,5233.07
523405,5234.05
523495,5234.95
523589,5235.89
523678,5236.78
523772,5237.72
523862,5238.62
523950,5239.5
524036,5240.36
524128,5241.28
524221,5242.21
524315,5243.15
524408,5244.08
524497,5244.97
524596,5245.96
524687,5246.87
524786,5247.86
524874,5248.74
524963,5249.63
525057,5250.57
525150,5251.5
525247,5252.47
525335,5253.35
525423,5254.23
525516,5255.16
525612,5256.12
525700,5257.0
525789,5257.89
525882,5258.82
525979,5259.79
526073,5260.73
526163,5261.63
526251,5262.51
526342,5263.42
526432,5264.32
526526,5265.26
526615,5266.15
526703,5267.03
526792,5267.92
526883,5268.83
526979,5269.79
527069,5270.69
527159,5271.59
527247,5272.47
527339,5273.39
527430,5274.3
527524,5275.24
527611,5276.11
527701,5277.01
527792,5277.92
527887,5278.87
527979,5279.79
528068,5280.68
528156,5281.56
528247,5282.47
528341,5283.41
528427,5284.27
528514,5285.14
528601,5286.01
528689,5286.89
528778,5287.78
528871,5288.71
528959,5289.59
529047,5290.47
529141,5291.41
529234,5292.34
529330,5293.3
529420,5294.2
529511,5295.11
529605,5296.05
529699,5296.99
529788,5297.88
529874,5298.74
529960,5299.6
530048,5300.48
530139,5301.39
530225,5302.25
530311,5303.11
530403,5304.03
530491,5304.91
530579,5305.79
530665,5306.65
530754,5307.54
530846,5308.46
530938,5309.38
531027,5310.27
531114,5311.14
531203,5312.03
531293,5312.93
531387,5313.87
531480,5314.8
531572,5315.72
531659,5316.59
531753,5317.53
531846,5318.46
531937,5319.37
532028,5320.28
532115,5321.15
532204,5322.04
532295,5322.95
532385,5323.85
532473,5324.73
532564,5325.64
532659,5326.59
532748,5327.48
532839,5328.39
532929,5329.29
533019,5330.19
533112,5331.12
533203,5332.03
533289,5332.89
533380,5333.8
533472,5334.72
533562,5335.62
533648,5336.48
533738,5337.38
533828,5338.28
533919,5339.19
534008,5340.08
534095,5340.95
534186,5341.86
534281,5342.81
534375,5343.75
534466,5344.66
534555,5345.55
534644,5346.44
534732,5347.32
534821,5348.21
534904,5349.04
534987,5349.87
535070,5350.7
535152,5351.52
535234,5352.34
535317,5353.17
535402,5354.02
535493,5354.93
535579,5355.79
535662,5356.62
535741,5357.41
535821,5358.21
535900,5359.0
535978,5359.78
536057,5360.57
536139,5361.39
536222,5362.22
536310,5363.1
536401,5364.01
536495,5364.95
536591,5365.91
536687,5366.87
536779,5367.79
536878,5368.78
536968,5369.68
537059,5370.59
537156,5371.56
537253,5372.53
537342,5373.42
537436,5374.36
537525,5375.25
537614,5376.14
537703,5377.03
537791,5377.91
537886,5378.86
537985,5379.85
538085,5380.85
538180,5381.8
538273,5382.73
538362,5383.62
538452,5384.52
538545,5385.45
538633,5386.33
538716,5387.16
538797,5387.97
538879,5388.79
538964,5389.64
539052,5390.52
539146,5391.46
539243,5392.43
539342,5393.42
539442,5394.42
539540,5395.4
539637,5396.37
539735,5397.35
539832,5398.32
539928,5399.28
540024,5400.24
540118,5401.18
540208,5402.08
540303,5403.03
540398,5403.98
540491,5404.91
540586,5405.86
540673,5406.73
540763,5407.63
540852,5408.52
540939,5409.39
541032,5410.32
541129,5411.29
541226,5412.26
541319,5413.19
541411,5414.11
541506,5415.06
541600,5416.0
541694,5416.94
541784,5417.84
541871,5418.71
541957,5419.57
542045,5420.45
542139,5421.39
542233,5422.33
542327,5423.27
542416,5424.16
542515,5425.15
542612,5426.12
542710,5427.1
542809,5428.09
542900,5429.0
542994,5429.94
543088,5430.88
543185,5431.85
543279,5432.79
543373,5433.73
543464,5434.64
543559,5435.59
543659,5436.59
543751,5437.51
543843,5438.43
543933,5439.33
544028,5440.28
544121,5441.21
544215,5442.15
544307,5443.07
544398,5443.98
544492,5444.92
544586,5445.86
544687,5446.87
544777,5447.77
544868,5448.68
544962,5449.62
545052,5450.52
545149,5451.49
545238,5452.38
545327,5453.27
545419,5454.19
545510,5455.1
545602,5456.02
545695,5456.95
545793,5457.93
545881,5458.81
545970,5459.7
546065,5460.65
546152,5461.52
546243,5462.43
546329,5463.29
546419,5464.19
546508,5465.08
546603,5466.03
546688,5466.88
546775,5467.75
546863,5468.63
546952,5469.52
547042,5470.42
547131,5471.31
547223,5472.23
547309,5473.09
547397,5473.97
547487,5474.87
547574,5475.74
547663,5476.63
547759,5477.59
547849,5478.49
547939,5479.39
548030,5480.3
548124,5481.24
548216,5482.16
548310,5483.1
548398,5483.98
548487,5484.87
548575,5485.75
548665,5486.65
548757,5487.57
548847,5488.47
548939,5489.39
549030,5490.3
549125,5491.25
549220,5492.2
549310,5493.1
549400,5494.0
549491,5494.91
549580,5495.8
549669,5496.69
549755,5497.55
549840,5498.4
549927,5499.27
550014,5500.14
550103,5501.03
550190,5501.9
550277,5502.77
550370,5503.7
550463,5504.63
550557,5505.57
550647,5506.47
550737,5507.37
550829,5508.29
550921,5509.21
551013,5510.13
551102,5511.02
551191,5511.91
551283,5512.83
551373,5513.73
551464,5514.64
551551,5515.51
551640,5516.4
551730,5517.3
551820,5518.2
551908,5519.08
551994,5519.94
552082,5520.82
552171,5521.71
552263,5522.63
552349,5523.49
552444,5524.44
552538,5525.38
552633,5526.33
552725,5527.25
552817,5528.17
552917,5529.17
553010,5530.1
553109,5531.09
553201,5532.01
553290,5532.9
553385,5533.85
553476,5534.76
553572,5535.72
553661,5536.61
553750,5537.5
553840,5538.4
553934,5539.34
554022,5540.22
554109,5541.09
554197,5541.97
554284,5542.84
554374,5543.74
554464,5544.64
554553,5545.53
554644,5546.44
554741,5547.41
554834,5548.34
554922,5549.22
555013,5550.13
555102,5551.02
555193,5551.93
555282,5552.82
555370,5553.7
555459,5554.59
555550,5555.5
555641,5556.41
555734,5557.34
555824,5558.24
555912,5559.12
556008,5560.08
556102,5561.02
556197,5561.97
556287,5562.87
556387,5563.87
556483,5564.83
556576,5565.76
556668,5566.68
556769,5567.69
556861,5568.61
556961,5569.61
557053,5570.53
557143,5571.43
557238,5572.38
557336,5573.36
557433,5574.33
557529,5575.29
557618,5576.18
557708,5577.08
557801,5578.01
557900,5579.0
557989,5579.89
558078,5580.78
558169,5581.69
558262,5582.62
558353,5583.53
558442,5584.42
558531,5585.31
558622,5586.22
558716,5587.16
558805,5588.05
558896,5588.96
558983,5589.83
559073,5590.73
559163,5591.63
559252,5592.52
559340,5593.4
559428,5594.28
559517,5595.17
559613,5596.13
559700,5597.0
559790,5597.9
559879,5598.79
559976,5599.76
560065,5600.65
560157,5601.57
560245,5602.45
560337,5603.37
560428,5604.28
560518,5605.18
560608,5606.08
560694,5606.94
560783,5607.83
560872,5608.72
560962,5609.62
561048,5610.48
561136,5611.36
561230,5612.3
561322,5613.22
561417,5614.17
561507,5615.07
561600,5616.0
561696,5616.96
561786,5617.86
561883,5618.83
561976,5619.76
562066,5620.66
562156,5621.56
562247,5622.47
562344,5623.44
562432,5624.32
562522,5625.22
562611,5626.11
562703,5627.03
562800,5628.0
562895,5628.95
562985,5629.85
563079,5630.79
563179,5631.79
563276,5632.76
563373,5633.73
563462,5634.62
563558,5635.58
563654,5636.54
563749,5637.49
563840,5638.4
563930,5639.3
564023,5640.23
564114,5641.14
564211,5642.11
564300,5643.0
564390,5643.9
564486,5644.86
564576,5645.76
564667,5646.67
564755,5647.55
564847,5648.47
564938,5649.38
565033,5650.33
565120,5651.2
565208,5652.08
565302,5653.02
565399,5653.99
565489,5654.89
565579,5655.79
565669,5656.69
565762,5657.62
565857,5658.57
565947,5659.47
566043,5660.43
566137,5661.37
566230,5662.3
566321,5663.21
566407,5664.07
566498,5664.98
566588,5665.88
566682,5666.82
566770,5667.7
566861,5668.61
566956,5669.56
567050,5670.5
567142,5671.42
567231,5672.31
567322,5673.22
567415,5674.15
567507,5675.07
567600,5676.0
567691,5676.91
567787,5677.87
567878,5678.78
567974,5679.74
568062,5680.62
568154,5681.54
568245,5682.45
568343,5683.43
568430,5684.3
568518,5685.18
568607,5686.07
568698,5686.98
568789,5687.89
568877,5688.77
568964,5689.64
569054,5690.54
569150,5691.5
569238,5692.38
569326,5693.26
569425,5694.25
569517,5695.17
569613,5696.13
569700,5697.0
569792,5697.92
569884,5698.84
569980,5699.8
570067,5700.67
570157,5701.57
570250,5702.5
570342,5703.42
570432,5704.32
570521,5705.21
570613,5706.13
570709,5707.09
570800,5708.0
570892,5708.92
570981,5709.81
571074,5710.74
571172,5711.72
571262,5712.62
571353,5713.53
571442,5714.42
571536,5715.36
571629,5716.29
571724,5717.24
571818,5718.18
571910,5719.1
572011,5720.11
572102,5721.02
572196,5721.96
572288,5722.88
572380,5723.8
572478,5724.78
572572,5725.72
572661,5726.61
572753,5727.53
572848,5728.48
572942,5729.42
573034,5730.34
573124,5731.24
573215,5732.15
573311,5733.11
573404,5734.04
573496,5734.96
573587,5735.87
573679,5736.79
573776,5737.76
573865,5738.65
573954,5739.54
574045,5740.45
574135,5741.35
574228,5742.28
574317,5743.17
574413,5744.13
574503,5745.03
574600,5746.0
574689,5746.89
574786,5747.86
574876,5748.76
574971,5749.71
575063,5750.63
575153,5751.53
575251,5752.51
575346,5753.46
575441,5754.41
575530,5755.3
575619,5756.19
575712,5757.12
575806,5758.06
575899,5758.99
575988,5759.88
576084,5760.84
576178,5761.78
576274,5762.74
576364,5763.64
576453,5764.53
576544,5765.44
576637,5766.37
576725,5767.25
576813,5768.13
576905,5769.05
577002,5770.02
577092,5770.92
577181,5771.81
577272,5772.72
577361,5773.61
577458,5774.58
577545,5775.45
577637,5776.37
577734,5777.34
577824,5778.24
577917,5779.17
578005,5780.05
578097,5780.97
578188,5781.88
578278,5782.78
578367,5783.67
578456,5784.56
578545,5785.45
578636,5786.36
578725,5787.25
578814,5788.14
578904,5789.04
579001,5790.01
579094,5790.94
579180,5791.8
579272,5792.72
579364,5793.64
579462,5794.62
579552,5795.52
579641,5796.41
579737,5797.37
579825,5798.25
579923,5799.23
580013,5800.13
580103,5801.03
580192,5801.92
580290,5802.9
580378,5803.78
580469,5804.69
580559,5805.59
580656,5806.56
580745,5807.45
580837,5808.37
580928,5809.28
581025,5810.25
581121,5811.21
581215,5812.15
581304,5813.04
581397,5813.97
581488,5814.88
581587,5815.87
581678,5816.78
581769,5817.69
581858,5818.58
581950,5819.5
582044,5820.44
582137,5821.37
582226,5822.26
582324,5823.24
582418,5824.18
582516,5825.16
582606,5826.06
582698,5826.98
582792,5827.92
582884,5828.84
582980,5829.8
583067,5830.67
583157,5831.57
583255,5832.55
583348,5833.48
583439,5834.39
583528,5835.28
583616,5836.16
583708,5837.08
583797,5837.97
583890,5838.9
583978,5839.78
584070,5840.7
584158,5841.58
584254,5842.54
584341,5843.41
584429,5844.29
584524,5845.24
584613,5846.13
584708,5847.08
584793,5847.93
584882,5848.82
584977,5849.77
585069,5850.69
585157,5851.57
585249,5852.49
585336,5853.36
585429,5854.29
585516,5855.16
585611,5856.11
585699,5856.99
585794,5857.94
585884,5858.84
585978,5859.78
586064,5860.64
586157,5861.57
586253,5862.53
586341,5863.41
586434,5864.34
586522,5865.22
586617,5866.17
586706,5867.06
586801,5868.01
586887,5868.87
586975,5869.75
587065,5870.65
587154,5871.54
587244,5872.44
587330,5873.3
587421,5874.21
587513,5875.13
587604,5876.04
587695,5876.95
587781,5877.81
587869,5878.69
587960,5879.6
588052,5880.52
588139,5881.39
588225,5882.25
588312,5883.12
588406,5884.06
588497,5884.97
588586,5885.86
588675,5886.75
588767,5887.67
588859,5888.59
588953,5889.53
589038,5890.38
589133,5891.33
589222,5892.22
589319,5893.19
589406,5894.06
589496,5894.96
589593,5895.93
589682,5896.82
589772,5897.72
589864,5898.64
589955,5899.55
590046,5900.46
590135,5901.35
590223,5902.23
590313,5903.13
590401,5904.01
590490,5904.9
590576,5905.76
590665,5906.65
590757,5907.57
590848,5908.48
590935,5909.35
591023,5910.23
591114,5911.14
591204,5912.04
591296,5912.96
591384,5913.84
591472,5914.72
591563,5915.63
591655,5916.55
591744,5917.44
591832,5918.32
591923,5919.23
592016,5920.16
592109,5921.09
592198,5921.98
592286,5922.86
592377,5923.77
592466,5924.66
592552,5925.52
592638,5926.38
592724,5927.24
592807,5928.07
592888,5928.88
592968,5929.68
593048,5930.48
593131,5931.31
593212,5932.12
593295,5932.95
593381,5933.81
593469,5934.69
593560,5935.6
593650,5936.5
593743,5937.43
593837,5938.37
593933,5939.33
594028,5940.28
594120,5941.2
594212,5942.12
594308,5943.08
594398,5943.98
594489,5944.89
594580,5945.8
594669,5946.69
594763,5947.63
594857,5948.57
594947,5949.47
595037,5950.37
595129,5951.29
595225,5952.25
595320,5953.2
595409,5954.09
595499,5954.99
595594,5955.94
595686,5956.86
595775,5957.75
595864,5958.64
595953,5959.53
596043,5960.43
596136,5961.36
596223,5962.23
596310,5963.1
596400,5964.0
596489,5964.89
596583,5965.83
596671,5966.71
596759,5967.59
596851,5968.51
596943,5969.43
597034,5970.34
597123,5971.23
597210,5972.1
597300,5973.0
597390,5973.9
597482,5974.82
597571,5975.71
597658,5976.58
597749,5977.49
597839,5978.39
597929,5979.29
598020,5980.2
598108,5981.08
598196,5981.96
598285,5982.85
598375,5983.75
598466,5984.66
598556,5985.56
598643,5986.43
598730,5987.3
598819,5988.19
598913,5989.13
599004,5990.04
599094,5990.94
599185,5991.85
599277,5992.77
599374,5993.74
599459,5994.59
599546,5995.46
599635,5996.35
599724,5997.24
599812,5998.12
599899,5998.99
599988,5999.88
600079,6000.79
600173,6001.73
600265,6002.65
600352,6003.52
600443,6004.43
600539,6005.39
600633,6006.33
600723,6007.23
600810,6008.1
600902,6009.02
600993,6009.93
601085,6010.85
601173,6011.73
601268,6012.68
601363,6013.63
601462,6014.62
601557,6015.57
601649,6016.49
601741,6017.41
601838,6018.38
601934,6019.34
602023,6020.23
602113,6021.13
602210,6022.1
602303,6023.03
602390,6023.9
602484,6024.84
602572,6025.72
602665,6026.65
602756,6027.56
602847,6028.47
602938,6029.38
603033,6030.33
603125,6031.25
603217,6032.17
603304,6033.04
603393,6033.93
603482,6034.82
603571,6035.71
603662,6036.62
603746,6037.46
603833,6038.33
603926,6039.26
604018,6040.18
604113,6041.13
604205,6042.05
604299,6042.99
604392,6043.92
604485,6044.85
604574,6045.74
604664,6046.64
604755,6047.55
604852,6048.52
604942,6049.42
605032,6050.32
605119,6051.19
605212,6052.12
605304,6053.04
605395,6053.95
605484,6054.84
605577,6055.77
605670,6056.7
605761,6057.61
605852,6058.52
605939,6059.39
606028,6060.28
606118,6061.18
606210,6062.1
606297,6062.97
606387,6063.87
606482,6064.82
606571,6065.71
606667,6066.67
606760,6067.6
606848,6068.48
606939,6069.39
607034,6070.34
607127,6071.27
607216,6072.16
607305,6073.05
607397,6073.97
607489,6074.89
607578,6075.78
607668,6076.68
607753,6077.53
607841,6078.41
607928,6079.28
608018,6080.18
608106,6081.06
608192,6081.92
608280,6082.8
608372,6083.72
608461,6084.61
608548,6085.48
608642,6086.42
608736,6087.36
608831,6088.31
608921,6089.21
609012,6090.12
609104,6091.04
609196,6091.96
609286,6092.86
609375,6093.75
609467,6094.67
609559,6095.59
609649,6096.49
609740,6097.4
609831,6098.31
609928,6099.28
610018,6100.18
610107,6101.07
610197,6101.97
610286,6102.86
610381,6103.81
610475,6104.75
610569,6105.69
610656,6106.56
610749,6107.49
610849,6108.49
610941,6109.41
611031,6110.31
611120,6111.2
611210,6112.1
611307,6113.07
611395,6113.95
611485,6114.85
611581,6115.81
611675,6116.75
611765,6117.65
611855,6118.55
611944,6119.44
612038,6120.38
612134,6121.34
612225,6122.25
612315,6123.15
612405,6124.05
612497,6124.97
612589,6125.89
612680,6126.8
612767,6127.67
612857,6128.57
612953,6129.53
613043,6130.43
613133,6131.33
613221,6132.21
613312,6133.12
613402,6134.02
613490,6134.9
613578,6135.78
613669,6136.69
613765,6137.65
613854,6138.54
613945,6139.45
614040,6140.4
614128,6141.28
614224,6142.24
614310,6143.1
614405,6144.05
614496,6144.96
614588,6145.88
614678,6146.78
614766,6147.66
614861,6148.61
614954,6149.54
615048,6150.48
615134,6151.34
615226,6152.26
615316,6153.16
615415,6154.15
615504,6155.04
615592,6155.92
615683,6156.83
615773,6157.73
615863,6158.63
615951,6159.51
616038,6160.38
616127,6161.27
616219,6162.19
616309,6163.09
616397,6163.97
616494,6164.94
616582,6165.82
616674,6166.74
616763,6167.63
616855,6168.55
616950,6169.5
617041,6170.41
617136,6171.36
617224,6172.24
617314,6173.14
617409,6174.09
617503,6175.03
617593,6175.93
617681,6176.81
617773,6177.73
617867,6178.67
617955,6179.55
618043,6180.43
618132,6181.32
618221,6182.21
618312,6183.12
618400,6184.0
618489,6184.89
618579,6185.79
618670,6186.7
618761,6187.61
618850,6188.5
618939,6189.39
619034,6190.34
619123,6191.23
619218,6192.18
619307,6193.07
619394,6193.94
619484,6194.84
619577,6195.77
619670,6196.7
619758,6197.58
619847,6198.47
619937,6199.37
620028,6200.28
620119,6201.19
620206,6202.06
620300,6203.0
620392,6203.92
620483,6204.83
620569,6205.69
620659,6206.59
620751,6207.51
620843,6208.43
620933,6209.33
621019,6210.19
621107,6211.07
621195,6211.95
621284,6212.84
621370,6213.7
621457,6214.57
621545,6215.45
621635,6216.35
621726,6217.26
621811,6218.11
621899,6218.99
621991,6219.91
622080,6220.8
622166,6221.66
622252,6222.52
622337,6223.37
622425,6224.25
622516,6225.16
622608,6226.08
622696,6226.96
622784,6227.84
622872,6228.72
622967,6229.67
623058,6230.58
623147,6231.47
623234,6232.34
623325,6233.25
623415,6234.15
623506,6235.06
623593,6235.93
623680,6236.8
623769,6237.69
623860,6238.6
623948,6239.48
624034,6240.34
624123,6241.23
624211,6242.11
624300,6243.0
624388,6243.88
624478,6244.78
624569,6245.69
624663,6246.63
624748,6247.48
624835,6248.35
624923,6249.23
625013,6250.13
625106,6251.06
625192,6251.92
625279,6252.79
625366,6253.66
625457,6254.57
625549,6255.49
625634,6256.34
625721,6257.21
625807,6258.07
625896,6258.96
625983,6259.83
626070,6260.7
626161,6261.61
626255,6262.55
626343,6263.43
626432,6264.32
626525,6265.25
626623,6266.23
626712,6267.12
626802,6268.02
626891,6268.91
626978,6269.78
627068,6270.68
627158,6271.58
627246,6272.46
627339,6273.39
627430,6274.3
627527,6275.27
627617,6276.17
627709,6277.09
627803,6278.03
627890,6278.9
627979,6279.79
628072,6280.72
628163,6281.63
628252,6282.52
628346,6283.46
628437,6284.37
628533,6285.33
628620,6286.2
628708,6287.08
628800,6288.0
628891,6288.91
628979,6289.79
629068,6290.68
629157,6291.57
629250,6292.5
629340,6293.4
629428,6294.28
629516,6295.16
629606,6296.06
629693,6296.93
629783,6297.83
629868,6298.68
629954,6299.54
630039,6300.39
630127,6301.27
630214,6302.14
630301,6303.01
630392,6303.92
630489,6304.89
630583,6305.83
630672,6306.72
630762,6307.62
630860,6308.6
630951,6309.51
631049,6310.49
631138,6311.38
631234,6312.34
631324,6313.24
631417,6314.17
631505,6315.05
631599,6315.99
631693,6316.93
631786,6317.86
631874,6318.74
631964,6319.64
632055,6320.55
632149,6321.49
632235,6322.35
632326,6323.26
632416,6324.16
632506,6325.06
632593,6325.93
632682,6326.82
632770,6327.7
632865,6328.65
632952,6329.52
633039,6330.39
633130,6331.3
633221,6332.21
633316,6333.16
633403,6334.03
633492,6334.92
633590,6335.9
633680,6336.8
633777,6337.77
633864,6338.64
633953,6339.53
634043,6340.43
634138,6341.38
634234,6342.34
634320,6343.2
634410,6344.1
634499,6344.99
634590,6345.9
634685,6346.85
634772,6347.72
634864,6348.64
634955,6349.55
635045,6350.45
635131,6351.31
635222,6352.22
635315,6353.15
635405,6354.05
635493,6354.93
635581,6355.81
635671,6356.71
635764,6357.64
635851,6358.51
635937,6359.37
636026,6360.26
636116,6361.16
636209,6362.09
636295,6362.95
636383,6363.83
636472,6364.72
636567,6365.67
636653,6366.53
636740,6367.4
636827,6368.27
636916,6369.16
637009,6370.09
637098,6370.98
637187,6371.87
637280,6372.8
637375,6373.75
637469,6374.69
637556,6375.56
637650,6376.5
637745,6377.45
637838,6378.38
637929,6379.29
638017,6380.17
638110,6381.1
638201,6382.01
638292,6382.92
638379,6383.79
638466,6384.66
638554,6385.54
638644,6386.44
638733,6387.33
638819,6388.19
638906,6389.06
638997,6389.97
639088,6390.88
639177,6391.77
639263,6392.63
639351,6393.51
639440,6394.4
639527,6395.27
639612,6396.12
639699,6396.99
639793,6397.93
639885,6398.85
639974,6399.74
640065,6400.65
640160,6401.6
640251,6402.51
640339,6403.39
640426,6404.26
640514,6405.14
640604,6406.04
640695,6406.95
640785,6407.85
640873,6408.73
640966,6409.66
641060,6410.6
641150,6411.5
641242,6412.42
641339,6413.39
641434,6414.34
641529,6415.29
641618,6416.18
641707,6417.07
641797,6417.97
641891,6418.91
641978,6419.78
642066,6420.66
642154,6421.54
642242,6422.42
642334,6423.34
642422,6424.22
642508,6425.08
642597,6425.97
642686,6426.86
642776,6427.76
642861,6428.61
642948,6429.48
643034,6430.34
643123,6431.23
643210,6432.1
643294,6432.94
643383,6433.83
643472,6434.72
643567,6435.67
643659,6436.59
643746,6437.46
643840,6438.4
643933,6439.33
644026,6440.26
644116,6441.16
644208,6442.08
644303,6443.03
644394,6443.94
644485,6444.85
644573,6445.73
644665,6446.65
644757,6447.57
644848,6448.48
644936,6449.36
645026,6450.26
645117,6451.17
645207,6452.07
645296,6452.96
645384,6453.84
645472,6454.72
645562,6455.62
645655,6456.55
645739,6457.39
645825,6458.25
645912,6459.12
646000,6460.0
646091,6460.91
646178,6461.78
646268,6462.68
646360,6463.6
646450,6464.5
646538,6465.38
646626,6466.26
646717,6467.17
646809,6468.09
646900,6469.0
646988,6469.88
647080,6470.8
647172,6471.72
647260,6472.6
647347,6473.47
647440,6474.4
647533,6475.33
647627,6476.27
647718,6477.18
647808,6478.08
647902,6479.02
647999,6479.99
648088,6480.88
648177,6481.77
648267,6482.67
648359,6483.59
648447,6484.47
648536,6485.36
648625,6486.25
648719,6487.19
648807,6488.07
648896,6488.96
648983,6489.83
649071,6490.71
649161,6491.61
649248,6492.48
649335,6493.35
649426,6494.26
649514,6495.14
649602,6496.02
649688,6496.88
649776,6497.76
649870,6498.7
649961,6499.61
650047,6500.47
650135,6501.35
650229,6502.29
650317,6503.17
650405,6504.05
650493,6504.93
650581,6505.81
650670,6506.7
650759,6507.59
650848,6508.48
650935,6509.35
651026,6510.26
651118,6511.18
651208,6512.08
651296,6512.96
651384,6513.84
651473,6514.73
651564,6515.64
651654,6516.54
651741,6517.41
651830,6518.3
651919,6519.19
652009,6520.09
652094,6520.94
652180,6521.8
652268,6522.68
652362,6523.62
652453,6524.53
652540,6525.4
652631,6526.31
652720,6527.2
652814,6528.14
652903,6529.03
652993,6529.93
653084,6530.84
653175,6531.75
653269,6532.69
653358,6533.58
653447,6534.47
653536,6535.36
653628,6536.28
653717,6537.17
653804,6538.04
653892,6538.92
653981,6539.81
654070,6540.7
654161,6541.61
654248,6542.48
654334,6543.34
654421,6544.21
654510,6545.1
654597,6545.97
654683,6546.83
654771,6547.71
654858,6548.58
654948,6549.48
655038,6550.38
655123,6551.23
655210,6552.1
655300,6553.0
655394,6553.94
655480,6554.8
655567,6555.67
655662,6556.62
655751,6557.51
655844,6558.44
655932,6559.32
656020,6560.2
656108,6561.08
656199,6561.99
656292,6562.92
656378,6563.78
656466,6564.66
656557,6565.57
656650,6566.5
656737,6567.37
656825,6568.25
656914,6569.14
657005,6570.05
657092,6570.92
657178,6571.78
657265,6572.65
657354,6573.54
657443,6574.43
657529,6575.29
657616,6576.16
657704,6577.04
657794,6577.94
657879,6578.79
657970,6579.7
658058,6580.58
658146,6581.46
658231,6582.31
658315,6583.15
658401,6584.01
658490,6584.9
658578,6585.78
658667,6586.67
658758,6587.58
658850,6588.5
658944,6589.44
659031,6590.31
659127,6591.27
659222,6592.22
659314,6593.14
659411,6594.11
659499,6594.99
659588,6595.88
659678,6596.78
659772,6597.72
659859,6598.59
659948,6599.48
660040,6600.4
660135,6601.35
660225,6602.25
660317,6603.17
660416,6604.16
660507,6605.07
660598,6605.98
660688,6606.88
660779,6607.79
660877,6608.77
660965,6609.65
661055,6610.55
661145,6611.45
661238,6612.38
661329,6613.29
661417,6614.17
661513,6615.13
661602,6616.02
661694,6616.94
661781,6617.81
661871,6618.71
661963,6619.63
662058,6620.58
662145,6621.45
662233,6622.33
662324,6623.24
662415,6624.15
662511,6625.11
662599,6625.99
662685,6626.85
662775,6627.75
662866,6628.66
662959,6629.59
663048,6630.48
663137,6631.37
663228,6632.28
663324,6633.24
663413,6634.13
663501,6635.01
663593,6635.93
663685,6636.85
663775,6637.75
663863,6638.63
663952,6639.52
664041,6640.41
664134,6641.34
664220,6642.2
664307,6643.07
664396,6643.96
664485,6644.85
664573,6645.73
664659,6646.59
664748,6647.48
664837,6648.37
664931,6649.31
665018,6650.18
665107,6651.07
665198,6651.98
665288,6652.88
665384,6653.84
665473,6654.73
665560,6655.6
665651,6656.51
665743,6657.43
665831,6658.31
665922,6659.22
666018,6660.18
666110,6661.1
666202,6662.02
666288,6662.88
666380,6663.8
666476,6664.76
666568,6665.68
666656,6666.56
666745,6667.45
666835,6668.35
666927,6669.27
667016,6670.16
667103,6671.03
667196,6671.96
667284,6672.84
667376,6673.76
667468,6674.68
667554,6675.54
667644,6676.44
667735,6677.35
667822,6678.22
667910,6679.1
667999,6679.99
668092,6680.92
668184,6681.84
668273,6682.73
668365,6683.65
668459,6684.59
668554,6685.54
668645,6686.45
668732,6687.32
668823,6688.23
668915,6689.15
669004,6690.04
669094,6690.94
669184,6691.84
669274,6692.74
669360,6693.6
669449,6694.49
669538,6695.38
669631,6696.31
669718,6697.18
669809,6698.09
669904,6699.04
669996,6699.96
670085,6700.85
670174,6701.74
670267,6702.67
670355,6703.55
670447,6704.47
670534,6705.34
670625,6706.25
670716,6707.16
670808,6708.08
670896,6708.96
670987,6709.87
671078,6710.78
671172,6711.72
671266,6712.66
671356,6713.56
671446,6714.46
671537,6715.37
671626,6716.26
671716,6717.16
671804,6718.04
671893,6718.93
671982,6719.82
672079,6720.79
672169,6721.69
672255,6722.55
672348,6723.48
672441,6724.41
672531,6725.31
672622,6726.22
672711,6727.11
672804,6728.04
672895,6728.95
672984,6729.84
673071,6730.71
673159,6731.59
673249,6732.49
673339,6733.39
673427,6734.27
673514,6735.14
673608,6736.08
673699,6736.99
673791,6737.91
673878,6738.78
673968,6739.68
674060,6740.6
674152,6741.52
674241,6742.41
674331,6743.31
674423,6744.23
674515,6745.15
674604,6746.04
674692,6746.92
674781,6747.81
674872,6748.72
674964,6749.64
675052,6750.52
675144,6751.44
675235,6752.35
675328,6753.28
675416,6754.16
675503,6755.03
675591,6755.91
675679,6756.79
675771,6757.71
675857,6758.57
675945,6759.45
676034,6760.34
676126,6761.26
676217,6762.17
676304,6763.04
676391,6763.91
676482,6764.82
676571,6765.71
676663,6766.63
676747,6767.47
676832,6768.32
676919,6769.19
677006,6770.06
677096,6770.96
677182,6771.82
677269,6772.69
677359,6773.59
677448,6774.48
677538,6775.38
677625,6776.25
677714,6777.14
677807,6778.07
677899,6778.99
677990,6779.9
678077,6780.77
678167,6781.67
678254,6782.54
678344,6783.44
678431,6784.31
678517,6785.17
678608,6786.08
678700,6787.0
678792,6787.92
678885,6788.85
678971,6789.71
679065,6790.65
679159,6791.59
679253,6792.53
679343,6793.43
679433,6794.33
679526,6795.26
679617,6796.17
679711,6797.11
679799,6797.99
679891,6798.91
679982,6799.82
680075,6800.75
680165,6801.65
680252,6802.52
680345,6803.45
680436,6804.36
680530,6805.3
680618,6806.18
680707,6807.07
680799,6807.99
680889,6808.89
680979,6809.79
681064,6810.64
681150,6811.5
681237,6812.37
681330,6813.3
681418,6814.18
681508,6815.08
681599,6815.99
681696,6816.96
681787,6817.87
681883,6818.83
681969,6819.69
682059,6820.59
682150,6821.5
682243,6822.43
682332,6823.32
682421,6824.21
682515,6825.15
682609,6826.09
682704,6827.04
682794,6827.94
682889,6828.89
682984,6829.84
683080,6830.8
683170,6831.7
683258,6832.58
683350,6833.5
683439,6834.39
683532,6835.32
683618,6836.18
683706,6837.06
683796,6837.96
683892,6838.92
683984,6839.84
684081,6840.81
684169,6841.69
684258,6842.58
684349,6843.49
684439,6844.39
684530,6845.3
684619,6846.19
684710,6847.1
684802,6848.02
684893,6848.93
684980,6849.8
685067,6850.67
685156,6851.56
685245,6852.45
685338,6853.38
685425,6854.25
685512,6855.12
685601,6856.01
685697,6856.97
685784,6857.84
685873,6858.73
685966,6859.66
686058,6860.58
686149,6861.49
686236,6862.36
686324,6863.24
686413,6864.13
686504,6865.04
686593,6865.93
686681,6866.81
686771,6867.71
686863,6868.63
686954,6869.54
687039,6870.39
687125,6871.25
687213,6872.13
687301,6873.01
687388,6873.88
687474,6874.74
687563,6875.63
687654,6876.54
687747,6877.47
687833,6878.33
687920,6879.2
688008,6880.08
688100,6881.0
688186,6881.86
688272,6882.72
688360,6883.6
688453,6884.53
688542,6885.42
688631,6886.31
688719,6887.19
688809,6888.09
688898,6888.98
688991,6889.91
689078,6890.78
689168,6891.68
689257,6892.57
689350,6893.5
689441,6894.41
689528,6895.28
689617,6896.17
689706,6897.06
689795,6897.95
689887,6898.87
689975,6899.75
690066,6900.66
690158,6901.58
690246,6902.46
690336,6903.36
690427,6904.27
690518,6905.18
690610,6906.1
690701,6907.01
690789,6907.89
690878,6908.78
690971,6909.71
691060,6910.6
691147,6911.47
691235,6912.35
691330,6913.3
691420,6914.2
691508,6915.08
691595,6915.95
691682,6916.82
691776,6917.76
691865,6918.65
691953,6919.53
692040,6920.4
692129,6921.29
692218,6922.18
692308,6923.08
692396,6923.96
692486,6924.86
692575,6925.75
692664,6926.64
692756,6927.56
692843,6928.43
692932,6929.32
693020,6930.2
693113,6931.13
693207,6932.07
693296,6932.96
693384,6933.84
693473,6934.73
693564,6935.64
693653,6936.53
693741,6937.41
693833,6938.33
693925,6939.25
694015,6940.15
694104,6941.04
694192,6941.92
694283,6942.83
694380,6943.8
694474,6944.74
694565,6945.65
694656,6946.56
694750,6947.5
694843,6948.43
694933,6949.33
695024,6950.24
695116,6951.16
695208,6952.08
695299,6952.99
695386,6953.86
695475,6954.75
695565,6955.65
695654,6956.54
695741,6957.41
695829,6958.29
695917,6959.17
696010,6960.1
696096,6960.96
696182,6961.82
696269,6962.69
696358,6963.58
696446,6964.46
696532,6965.32
696618,6966.18
696705,6967.05
696794,6967.94
696881,6968.81
696967,6969.67
697055,6970.55
697145,6971.45
697234,6972.34
697322,6973.22
697410,6974.1
697497,6974.97
697589,6975.89
697677,6976.77
697763,6977.63
697850,6978.5
697941,6979.41
698029,6980.29
698121,6981.21
698208,6982.08
698296,6982.96
698389,6983.89
698477,6984.77
698567,6985.67
698652,6986.52
698739,6987.39
698829,6988.29
698919,6989.19
699006,6990.06
699092,6990.92
699180,6991.8
699269,6992.69
699364,6993.64
699454,6994.54
699544,6995.44
699638,6996.38
699733,6997.33
699822,6998.22
699912,6999.12
700003,7000.03
700095,7000.95
700185,7001.85
700272,7002.72
700364,7003.64
700461,7004.61
700552,7005.52
700641,7006.41
700738,7007.38
700828,7008.28
700919,7009.19
701007,7010.07
701094,7010.94
701185,7011.85
701275,7012.75
701365,7013.65
701453,7014.53
701544,7015.44
701640,7016.4
701730,7017.3
701819,7018.19
701906,7019.06
701995,7019.95
702086,7020.86
702176,7021.76
702264,7022.64
702350,7023.5
702440,7024.4
702531,7025.31
702618,7026.18
702706,7027.06
702792,7027.92
702880,7028.8
702967,7029.67
703053,7030.53
703139,7031.39
703226,7032.26
703316,7033.16
703405,7034.05
703492,7034.92
703579,7035.79
703667,7036.67
703759,7037.59
703855,7038.55
703940,7039.4
704025,7040.25
704115,7041.15
704210,7042.1
704304,7043.04
704392,7043.92
704484,7044.84
704581,7045.81
704678,7046.78
704773,7047.73
704864,7048.64
704956,7049.56
705050,7050.5
705142,7051.42
705231,7052.31
705322,7053.22
705416,7054.16
705507,7055.07
705598,7055.98
705687,7056.87
705779,7057.79
705869,7058.69
705957,7059.57
706045,7060.45
706133,7061.33
706223,7062.23
706310,7063.1
706397,7063.97
706484,7064.84
706574,7065.74
706662,7066.62
706748,7067.48
706837,7068.37
706927,7069.27
707016,7070.16
707106,7071.06
707194,7071.94
707284,7072.84
707375,7073.75
707469,7074.69
707557,7075.57
707646,7076.46
707736,7077.36
707825,7078.25
707918,7079.18
708007,7080.07
708098,7080.98
708190,7081.9
708280,7082.8
708370,7083.7
708458,7084.58
708546,7085.46
708635,7086.35
708726,7087.26
708816,7088.16
708905,7089.05
708995,7089.95
709084,7090.84
709173,7091.73
709259,7092.59
709347,7093.47
709435,7094.35
709523,7095.23
709611,7096.11
709697,7096.97
709784,7097.84
709872,7098.72
709965,7099.65
710055,7100.55
710140,7101.4
710233,7102.33
710325,7103.25
710412,7104.12
710499,7104.99
710586,7105.86
710673,7106.73
710763,7107.63
710850,7108.5
710936,7109.36
711026,7110.26
711121,7111.21
711213,7112.13
711300,7113.0
711390,7113.9
711481,7114.81
711574,7115.74
711663,7116.63
711752,7117.52
711842,7118.42
711933,7119.33
712023,7120.23
712111,7121.11
712201,7122.01
712290,7122.9
712382,7123.82
712474,7124.74
712562,7125.62
712652,7126.52
712741,7127.41
712831,7128.31
712921,7129.21
713009,7130.09
713099,7130.99
713188,7131.88
713281,7132.81
713366,7133.66
713452,7134.52
713541,7135.41
713629,7136.29
713718,7137.18
713804,7138.04
713889,7138.89
713976,7139.76
714065,7140.65
714155,7141.55
714241,7142.41
714329,7143.29
714416,7144.16
714506,7145.06
714591,7145.91
714678,7146.78
714769,7147.69
714859,7148.59
714950,7149.5
715036,7150.36
715124,7151.24
715211,7152.11
715300,7153.0
715388,7153.88
715477,7154.77
715565,7155.65
715659,7156.59
715746,7157.46
715833,7158.33
715922,7159.22
716012,7160.12
716103,7161.03
716189,7161.89
716276,7162.76
716364,7163.64
716457,7164.57
716544,7165.44
716631,7166.31
716722,7167.22
716815,7168.15
716903,7169.03
716991,7169.91
717083,7170.83
717174,7171.74
717264,7172.64
717351,7173.51
717442,7174.42
717534,7175.34
717628,7176.28
717714,7177.14
717804,7178.04
717898,7178.98
717987,7179.87
718076,7180.76
718162,7181.62
718251,7182.51
718342,7183.42
718429,7184.29
718516,7185.16
718603,7186.03
718693,7186.93
718782,7187.82
718868,7188.68
718954,7189.54
719042,7190.42
719129,7191.29
719218,7192.18
719303,7193.03
719390,7193.9
719478,7194.78
719570,7195.7
719658,7196.58
719744,7197.44
719833,7198.33
719921,7199.21
720010,7200.1
720096,7200.96
720184,7201.84
720273,7202.73
720363,7203.63
720450,7204.5
720539,7205.39
720629,7206.29
720720,7207.2
720807,7208.07
720893,7208.93
720981,7209.81
721068,7210.68
721161,7211.61
721249,7212.49
721336,7213.36
721423,7214.23
721515,7215.15
721607,7216.07
721693,7216.93
721779,7217.79
721865,7218.65
721952,7219.52
722040,7220.4
722130,7221.3
722215,7222.15
722300,7223.0
722386,7223.86
722474,7224.74
722563,7225.63
722649,7226.49
722737,7227.37
722826,7228.26
722914,7229.14
723002,7230.02
723091,7230.91
723180,7231.8
723274,7232.74
723363,7233.63
723451,7234.51
723539,7235.39
723628,7236.28
723720,7237.2
723806,7238.06
723893,7238.93
723983,7239.83
724072,7240.72
724164,7241.64
724256,7242.56
724345,7243.45
724435,7244.35
724526,7245.26
724617,7246.17
724705,7247.05
724796,7247.96
724887,7248.87
724981,7249.81
725069,7250.69
725156,7251.56
725245,7252.45
725333,7253.33
725421,7254.21
725506,7255.06
725592,7255.92
725681,7256.81
725772,7257.72
725862,7258.62
725947,7259.47
726035,7260.35
726122,7261.22
726211,7262.11
726302,7263.02
726388,7263.88
726475,7264.75
726568,7265.68
726659,7266.59
726745,7267.45
726832,7268.32
726922,7269.22
727013,7270.13
727103,7271.03
727190,7271.9
727280,7272.8
727373,7273.73
727467,7274.67
727555,7275.55
727643,7276.43
727732,7277.32
727826,7278.26
727914,7279.14
728001,7280.01
728089,7280.89
728178,7281.78
728267,7282.67
728354,7283.54
728443,7284.43
728533,7285.33
728626,7286.26
728712,7287.12
728798,7287.98
728885,7288.85
728975,7289.75
729065,7290.65
729151,7291.51
729238,7292.38
729330,7293.3
729420,7294.2
729508,7295.08
729596,7295.96
729687,7296.87
729782,7297.82
729871,7298.71
729958,7299.58
730046,7300.46
730136,7301.36
730226,7302.26
730315,7303.15
730405,7304.05
730492,7304.92
730585,7305.85
730676,7306.76
730768,7307.68
730853,7308.53
730942,7309.42
731035,7310.35
731124,7311.24
731215,7312.15
731301,7313.01
731390,7313.9
731478,7314.78
731566,7315.66
731654,7316.54
731740,7317.4
731828,7318.28
731918,7319.18
732008,7320.08
732099,7320.99
732186,7321.86
732273,7322.73
732363,7323.63
732453,7324.53
732541,7325.41
732627,7326.27
732716,7327.16
732806,7328.06
732896,7328.96
732983,7329.83
733070,7330.7
733159,7331.59
733248,7332.48
733336,7333.36
733424,7334.24
733518,7335.18
733609,7336.09
733702,7337.02
733794,7337.94
733880,7338.8
733971,7339.71
734063,7340.63
734157,7341.57
734247,7342.47
734333,7343.33
734423,7344.23
734515,7345.15
734605,7346.05
734693,7346.93
734779,7347.79
734867,7348.67
734957,7349.57
735048,7350.48
735134,7351.34
735227,7352.27
735321,7353.21
735413,7354.13
735500,7355.0
735590,7355.9
735678,7356.78
735770,7357.7
735858,7358.58
735944,7359.44
736031,7360.31
736120,7361.2
736208,7362.08
736295,7362.95
736383,7363.83
736472,7364.72
736560,7365.6
736649,7366.49
736736,7367.36
736826,7368.26
736920,7369.2
737008,7370.08
737101,7371.01
737188,7371.88
737275,7372.75
737364,7373.64
737456,7374.56
737543,7375.43
737630,7376.3
737720,7377.2
737809,7378.09
737904,7379.04
737991,7379.91
738079,7380.79
738167,7381.67
738256,7382.56
738350,7383.5
738438,7384.38
738526,7385.26
738617,7386.17
738713,7387.13
738803,7388.03
738890,7388.9
738976,7389.76
739064,7390.64
739156,7391.56
739243,7392.43
739331,7393.31
739421,7394.21
739512,7395.12
739603,7396.03
739692,7396.92
739777,7397.77
739866,7398.66
739955,7399.55
740044,7400.44
740130,7401.3
740215,7402.15
740302,7403.02
740390,7403.9
740478,7404.78
740565,7405.65
740652,7406.52
740743,7407.43
740833,7408.33
740920,7409.2
741007,7410.07
741094,7410.94
741182,7411.82
741272,7412.72
741363,7413.63
741451,7414.51
741545,7415.45
741639,7416.39
741733,7417.33
741825,7418.25
741918,7419.18
742015,7420.15
742106,7421.06
742196,7421.96
742287,7422.87
742378,7423.78
742469,7424.69
742558,7425.58
742647,7426.47
742737,7427.37
742827,7428.27
742920,7429.2
743007,7430.07
743095,7430.95
743184,7431.84
743274,7432.74
743363,7433.63
743450,7434.5
743540,7435.4
743633,7436.33
743726,7437.26
743815,7438.15
743905,7439.05
743995,7439.95
744086,7440.86
744177,7441.77
744266,7442.66
744356,7443.56
744448,7444.48
744543,7445.43
744635,7446.35
744725,7447.25
744814,7448.14
744903,7449.03
744995,7449.95
745088,7450.88
745177,7451.77
745269,7452.69
745359,7453.59
745450,7454.5
745537,7455.37
745626,7456.26
745716,7457.16
745808,7458.08
745895,7458.95
745986,7459.86
746075,7460.75
746165,7461.65
746256,7462.56
746344,7463.44
746434,7464.34
746523,7465.23
746616,7466.16
746703,7467.03
746790,7467.9
746880,7468.8
746971,7469.71
747057,7470.57
747143,7471.43
747231,7472.31
747322,7473.22
747412,7474.12
747496,7474.96
747584,7475.84
747673,7476.73
747761,7477.61
747852,7478.52
747937,7479.37
748023,7480.23
748114,7481.14
748209,7482.09
748302,7483.02
748392,7483.92
748484,7484.84
748578,7485.78
748672,7486.72
748765,7487.65
748855,7488.55
748944,7489.44
749035,7490.35
749124,7491.24
749211,7492.11
749299,7492.99
749388,7493.88
749479,7494.79
749567,7495.67
749653,7496.53
749741,7497.41
749830,7498.3
749918,7499.18
750004,7500.04
750089,7500.89
750177,7501.77
750266,7502.66
750355,7503.55
750443,7504.43
750531,7505.31
750620,7506.2
750710,7507.1
750801,7508.01
750887,7508.87
750977,7509.77
751069,7510.69
751163,7511.63
751251,7512.51
751340,7513.4
751432,7514.32
751522,7515.22
751613,7516.13
751701,7517.01
751791,7517.91
751882,7518.82
751973,7519.73
752061,7520.61
752148,7521.48
752236,7522.36
752325,7523.25
752417,7524.17
752506,7525.06
752593,7525.93
752684,7526.84
752778,7527.78
752871,7528.71
752961,7529.61
753055,7530.55
753148,7531.48
753242,7532.42
753330,7533.3
753419,7534.19
753509,7535.09
753599,7535.99
753689,7536.89
753776,7537.76
753866,7538.66
753957,7539.57
754050,7540.5
754136,7541.36
754223,7542.23
754311,7543.11
754399,7543.99
754489,7544.89
754577,7545.77
754665,7546.65
754755,7547.55
754847,7548.47
754937,7549.37
755023,7550.23
755110,7551.1
755198,7551.98
755289,7552.89
755377,7553.77
755465,7554.65
755554,7555.54
755642,7556.42
755734,7557.34
755820,7558.2
755906,7559.06
755999,7559.99
756092,7560.92
756187,7561.87
756280,7562.8
756369,7563.69
756465,7564.65
756561,7565.61
756655,7566.55
756743,7567.43
756835,7568.35
756930,7569.3
757022,7570.22
757110,7571.1
757199,7571.99
757289,7572.89
757381,7573.81
757470,7574.7
757557,7575.57
757644,7576.44
757732,7577.32
757821,7578.21
757911,7579.11
757997,7579.97
758084,7580.84
758172,7581.72
758260,7582.6
758346,7583.46
758433,7584.33
758520,7585.2
758610,7586.1
758698,7586.98
758784,7587.84
758874,7588.74
758967,7589.67
759058,7590.58
759145,7591.45
759232,7592.32
759324,7593.24
759413,7594.13
759502,7595.02
759590,7595.9
759678,7596.78
759769,7597.69
759858,7598.58
759950,7599.5
760042,7600.42
760131,7601.31
760222,7602.22
760313,7603.13
760399,7603.99
760487,7604.87
760578,7605.78
760671,7606.71
760759,7607.59
760847,7608.47
760936,7609.36
761024,7610.24
761115,7611.15
761206,7612.06
761292,7612.92
761379,7613.79
761465,7614.65
761553,7615.53
761643,7616.43
761728,7617.28
761814,7618.14
761902,7619.02
761992,7619.92
762078,7620.78
762165,7621.65
762251,7622.51
762340,7623.4
762432,7624.32
762519,7625.19
762605,7626.05
762696,7626.96
762786,7627.86
762875,7628.75
762961,7629.61
763050,7630.5
763139,7631.39
763230,7632.3
763318,7633.18
763405,7634.05
763494,7634.94
763582,7635.82
763672,7636.72
763763,7637.63
763851,7638.51
763939,7639.39
764031,7640.31
764121,7641.21
764209,7642.09
764294,7642.94
764380,7643.8
764467,7644.67
764556,7645.56
764642,7646.42
764730,7647.3
764818,7648.18
764908,7649.08
764995,7649.95
765081,7650.81
765168,7651.68
765259,7652.59
765351,7653.51
765439,7654.39
765527,7655.27
765613,7656.13
765702,7657.02
765796,7657.96
765889,7658.89
765980,7659.8
766067,7660.67
766155,7661.55
766246,7662.46
766335,7663.35
766427,7664.27
766517,7665.17
766606,7666.06
766699,7666.99
766791,7667.91
766880,7668.8
766968,7669.68
767061,7670.61
767151,7671.51
767240,7672.4
767330,7673.3
767417,7674.17
767503,7675.03
767592,7675.92
767681,7676.81
767769,7677.69
767857,7678.57
767944,7679.44
768032,7680.32
768122,7681.22
768215,7682.15
768308,7683.08
768398,7683.98
768491,7684.91
768587,7685.87
768679,7686.79
768771,7687.71
768868,7688.68
768966,7689.66
769056,7690.56
769148,7691.48
769243,7692.43
769337,7693.37
769431,7694.31
769520,7695.2
769612,7696.12
769705,7697.05
769796,7697.96
769888,7698.88
769976,7699.76
770067,7700.67
770159,7701.59
770248,7702.48
770337,7703.37
770426,7704.26
770515,7705.15
770602,7706.02
770689,7706.89
770777,7707.77
770867,7708.67
770958,7709.58
771043,7710.43
771132,7711.32
771222,7712.22
771316,7713.16
771408,7714.08
771493,7714.93
771579,7715.79
771667,7716.67
771754,7717.54
771842,7718.42
771927,7719.27
772013,7720.13
772102,7721.02
772194,7721.94
772283,7722.83
772369,7723.69
772456,7724.56
772550,7725.5
772642,7726.42
772733,7727.33
772819,7728.19
772907,7729.07
773000,7730.0
773090,7730.9
773180,7731.8
773267,7732.67
773354,7733.54
773444,7734.44
773533,7735.33
773621,7736.21
773707,7737.07
773796,7737.96
773889,7738.89
773978,7739.78
774069,7740.69
774157,7741.57
774250,7742.5
774340,7743.4
774428,7744.28
774515,7745.15
774603,7746.03
774692,7746.92
774784,7747.84
774871,7748.71
774959,7749.59
775047,7750.47
775137,7751.37
775223,7752.23
775312,7753.12
775403,7754.03
775494,7754.94
775584,7755.84
775671,7756.71
775760,7757.6
775853,7758.53
775945,7759.45
776035,7760.35
776121,7761.21
776212,7762.12
776303,7763.03
776397,7763.97
776488,7764.88
776577,7765.77
776673,7766.73
776768,7767.68
776861,7768.61
776948,7769.48
777039,7770.39
777130,7771.3
777221,7772.21
777308,7773.08
777398,7773.98
777487,7774.87
777579,7775.79
777668,7776.68
777754,7777.54
777843,7778.43
777930,7779.3
778019,7780.19
778107,7781.07
778192,7781.92
778279,7782.79
778368,7783.68
778459,7784.59
778548,7785.48
778635,7786.35
778726,7787.26
778818,7788.18
778910,7789.1
779003,7790.03
779091,7790.91
779180,7791.8
779272,7792.72
779363,7793.63
779452,7794.52
779538,7795.38
779626,7796.26
779716,7797.16
779808,7798.08
779901,7799.01
779990,7799.9
780080,7800.8
780174,7801.74
780266,7802.66
780354,7803.54
780442,7804.42
780531,7805.31
780621,7806.21
780712,7807.12
780797,7807.97
780884,7808.84
780973,7809.73
781060,7810.6
781149,7811.49
781235,7812.35
781320,7813.2
781411,7814.11
781501,7815.01
781588,7815.88
781677,7816.77
781763,7817.63
781851,7818.51
781938,7819.38
782027,7820.27
782118,7821.18
782204,7822.04
782293,7822.93
782384,7823.84
782481,7824.81
782568,7825.68
782657,7826.57
782753,7827.53
782843,7828.43
782938,7829.38
783025,7830.25
783114,7831.14
783203,7832.03
783292,7832.92
783383,7833.83
783472,7834.72
783565,7835.65
783655,7836.55
783752,7837.52
783842,7838.42
783931,7839.31
784023,7840.23
784123,7841.23
784217,7842.17
784306,7843.06
784396,7843.96
784490,7844.9
784579,7845.79
784669,7846.69
784754,7847.54
784840,7848.4
784927,7849.27
785016,7850.16
785103,7851.03
785189,7851.89
785274,7852.74
785362,7853.62
785449,7854.49
785536,7855.36
785621,7856.21
785711,7857.11
785803,7858.03
785894,7858.94
785985,7859.85
786071,7860.71
786160,7861.6
786253,7862.53
786343,7863.43
786436,7864.36
786522,7865.22
786614,7866.14
786708,7867.08
786800,7868.0
786887,7868.87
786974,7869.74
787063,7870.63
787154,7871.54
787241,7872.41
787327,7873.27
787414,7874.14
787502,7875.02
787592,7875.92
787680,7876.8
787766,7877.66
787855,7878.55
787942,7879.42
788032,7880.32
788119,7881.19
788204,7882.04
788294,7882.94
788381,7883.81
788470,7884.7
788555,7885.55
788639,7886.39
788724,7887.24
788810,7888.1
788899,7888.99
788986,7889.86
789077,7890.77
789168,7891.68
789261,7892.61
