sample,time_sec
91,0.91
198,1.98
316,3.16
432,4.32
545,5.45
644,6.44
761,7.61
876,8.76
1002,10.02
1131,11.31
1262,12.62
1382,13.82
1487,14.87
1627,16.27
1765,17.65
1880,18.8
2007,20.07
2146,21.46
2263,22.63
2400,24.0
2538,25.38
2664,26.64
2789,27.89
2930,29.3
3064,30.64
3203,32.03
3326,33.26
3461,34.61
3583,35.83
3713,37.13
3824,38.24
3957,39.57
4098,40.98
4221,42.21
4343,43.43
4482,44.82
4614,46.14
4743,47.43
4870,48.7
4992,49.92
5126,51.26
5241,52.41
5361,53.61
5494,54.94
5624,56.24
5751,57.51
5879,58.79
5990,59.9
6119,61.19
6243,62.43
6356,63.56
6467,64.67
6616,66.16
6748,67.48
6867,68.67
7003,70.03
7130,71.3
7237,72.37
7355,73.55
7487,74.87
7603,76.03
7722,77.22
7867,78.67
7984,79.84
8103,81.03
8237,82.37
8360,83.6
8466,84.66
8591,85.91
8684,86.84
8813,88.13
8943,89.43
9057,90.57
9188,91.88
9304,93.04
9417,94.17
9547,95.47
9664,96.64
9783,97.83
9922,99.22
10033,100.33
10150,101.5
10293,102.93
10412,104.12
10544,105.44
10666,106.66
10789,107.89
10905,109.05
11032,110.32
11140,111.4
11284,112.84
11400,114.0
11500,115.0
11612,116.12
11748,117.48
11849,118.49
11948,119.48
12045,120.45
12136,121.36
12230,122.3
12318,123.18
12404,124.04
12492,124.92
12581,125.81
12666,126.66
12753,127.53
12840,128.4
12881,128.81
12923,129.23
13009,130.09
13097,130.97
13182,131.82
13270,132.7
13361,133.61
13445,134.45
13533,135.33
13614,136.14
13696,136.96
13779,137.79
13860,138.6
13938,139.38
14013,140.13
14091,140.91
14178,141.78
14284,142.84
14389,143.89
14483,144.83
14579,145.79
14677,146.77
14792,147.92
14900,149.0
15007,150.07
15103,151.03
15189,151.89
15275,152.75
15359,153.59
15445,154.45
15532,155.32
15641,156.41
15747,157.47
15836,158.36
15922,159.22
16013,160.13
16099,160.99
16181,161.81
16286,162.86
16393,163.93
16495,164.95
16628,166.28
16755,167.55
16878,168.78
16997,169.97
17109,171.09
17240,172.4
17381,173.81
17517,175.17
17640,176.4
17750,177.5
17884,178.84
18029,180.29
18169,181.69
18299,182.99
18409,184.09
18542,185.42
18685,186.85
18821,188.21
18939,189.39
19045,190.45
19186,191.86
19321,193.21
19453,194.53
19570,195.7
19696,196.96
19835,198.35
19967,199.67
20087,200.87
20191,201.91
20344,203.44
20498,204.98
20622,206.22
20730,207.3
20874,208.74
21018,210.18
21151,211.51
21269,212.69
21384,213.84
21519,215.19
21654,216.54
21788,217.88
21909,219.09
22018,220.18
22152,221.52
22285,222.85
22413,224.13
22523,225.23
22638,226.38
22783,227.83
22918,229.18
23038,230.38
23153,231.53
23293,232.93
23431,234.31
23556,235.56
23650,236.5
23744,237.44
23882,238.82
24021,240.21
24147,241.47
24281,242.81
24408,244.08
24516,245.16
24659,246.59
24804,248.04
24941,249.41
25058,250.58
25178,251.78
25325,253.25
25465,254.65
25596,255.96
25713,257.13
25844,258.44
25985,259.85
26123,261.23
26254,262.54
26373,263.73
26506,265.06
26648,266.48
26782,267.82
26903,269.03
27015,270.15
27160,271.6
27299,272.99
27422,274.22
27560,275.6
27697,276.97
27821,278.21
27937,279.37
28068,280.68
28194,281.94
28313,283.13
28443,284.43
28569,285.69
28681,286.81
28814,288.14
28944,289.44
29060,290.6
29187,291.87
29317,293.17
29443,294.43
29564,295.64
29692,296.92
29814,298.14
29925,299.25
30063,300.63
30189,301.89
30305,303.05
30442,304.42
30565,305.65
30684,306.84
30815,308.15
30938,309.38
31052,310.52
31183,311.83
31305,313.05
31417,314.17
31549,315.49
31673,316.73
31787,317.87
31915,319.15
32045,320.45
32163,321.63
32294,322.94
32421,324.21
32520,325.2
32607,326.07
32691,326.91
32791,327.91
32960,329.6
33104,331.04
33244,332.44
33380,333.8
33508,335.08
33608,336.08
33696,336.96
33783,337.83
33943,339.43
34086,340.86
34224,342.24
34359,343.59
34488,344.88
34602,346.02
34696,346.96
34779,347.79
34868,348.68
35024,350.24
35159,351.59
35295,352.95
35425,354.25
35553,355.53
35674,356.74
35768,357.68
35861,358.61
36002,360.02
36138,361.38
36267,362.67
36386,363.86
36505,365.05
36631,366.31
36763,367.63
36892,368.92
37022,370.22
37143,371.43
37261,372.61
37389,373.89
37502,375.02
37617,376.17
37753,377.53
37884,378.84
38007,380.07
38126,381.26
38227,382.27
38343,383.43
38480,384.8
38608,386.08
38711,387.11
38833,388.33
38939,389.39
39042,390.42
39150,391.5
39246,392.46
39319,393.19
39387,393.87
39487,394.87
39585,395.85
39687,396.87
39795,397.95
39899,398.99
39996,399.96
40094,400.94
40193,401.93
40285,402.85
40377,403.77
40463,404.63
40546,405.46
40627,406.27
40707,407.07
40787,407.87
40867,408.67
40946,409.46
41025,410.25
41102,411.02
41175,411.75
41249,412.49
41323,413.23
41397,413.97
41472,414.72
41548,415.48
41624,416.24
41700,417.0
41778,417.78
41857,418.57
41940,419.4
42020,420.2
42106,421.06
42191,421.91
42279,422.79
42364,423.64
42445,424.45
42546,425.46
42634,426.34
42724,427.24
42820,428.2
42935,429.35
43050,430.5
43151,431.51
43261,432.61
43384,433.84
43506,435.06
43626,436.26
43736,437.36
43834,438.34
43932,439.32
44041,440.41
44164,441.64
44285,442.85
44409,444.09
44530,445.3
44647,446.47
44768,447.68
44890,448.9
45014,450.14
45136,451.36
45253,452.53
45377,453.77
45482,454.82
45593,455.93
45722,457.22
45848,458.48
45970,459.7
46083,460.83
46198,461.98
46316,463.16
46435,464.35
46555,465.55
46672,466.72
46784,467.84
46891,468.91
47018,470.18
47138,471.38
47255,472.55
47363,473.63
47464,474.64
47574,475.74
47695,476.95
47812,478.12
47918,479.18
48037,480.37
48166,481.66
48291,482.91
48410,484.1
48537,485.37
48660,486.6
48776,487.76
48880,488.8
48994,489.94
49112,491.12
49220,492.2
49330,493.3
49456,494.56
49582,495.82
49700,497.0
49825,498.25
49939,499.39
50054,500.54
50181,501.81
50296,502.96
50412,504.12
50537,505.37
50659,506.59
50774,507.74
50900,509.0
51022,510.22
51128,511.28
51236,512.36
51353,513.53
51454,514.54
51563,515.63
51694,516.94
51826,518.26
51945,519.45
52067,520.67
52183,521.83
52289,522.89
52408,524.08
52529,525.29
52637,526.37
52753,527.53
52873,528.73
52992,529.92
53104,531.04
53221,532.21
53340,533.4
53446,534.46
53558,535.58
53681,536.81
53795,537.95
53910,539.1
54031,540.31
54150,541.5
54257,542.57
54371,543.71
54484,544.84
54591,545.91
54698,546.98
54812,548.12
54929,549.29
55039,550.39
55157,551.57
55273,552.73
55374,553.74
55483,554.83
55604,556.04
55713,557.13
55824,558.24
55947,559.47
56060,560.6
56169,561.69
56290,562.9
56403,564.03
56517,565.17
56643,566.43
56759,567.59
56866,568.66
56991,569.91
57111,571.11
57227,572.27
57354,573.54
57477,574.77
57583,575.83
57695,576.95
57819,578.19
57937,579.37
58063,580.63
58192,581.92
58312,583.12
58429,584.29
58548,585.48
58661,586.61
58767,587.67
58891,588.91
59016,590.16
59128,591.28
59252,592.52
59372,593.72
59482,594.82
59599,595.99
59712,597.12
59825,598.25
59947,599.47
60058,600.58
60153,601.53
60245,602.45
60341,603.41
60432,604.32
60503,605.03
60574,605.74
60684,606.84
60792,607.92
60886,608.86
60984,609.84
61079,610.79
61171,611.71
61256,612.56
61359,613.59
61477,614.77
61576,615.76
61664,616.64
61760,617.6
61862,618.62
61990,619.9
62116,621.16
62241,622.41
62364,623.64
62485,624.85
62608,626.08
62732,627.32
62853,628.53
62973,629.73
63091,630.91
63205,632.05
63303,633.03
63402,634.02
63508,635.08
63650,636.5
63764,637.64
63869,638.69
63971,639.71
64079,640.79
64225,642.25
64355,643.55
64477,644.77
64608,646.08
64737,647.37
64848,648.48
64957,649.57
65069,650.69
65174,651.74
65287,652.87
65428,654.28
65550,655.5
65674,656.74
65799,657.99
65915,659.15
66029,660.29
66121,661.21
66215,662.15
66315,663.15
66458,664.58
66592,665.92
66708,667.08
66833,668.33
66953,669.53
67060,670.6
67164,671.64
67281,672.81
67408,674.08
67516,675.16
67639,676.39
67770,677.7
67887,678.87
68018,680.18
68146,681.46
68264,682.64
68389,683.89
68513,685.13
68628,686.28
68748,687.48
68875,688.75
68993,689.93
69113,691.13
69242,692.42
69365,693.65
69476,694.76
69597,695.97
69719,697.19
69833,698.33
69959,699.59
70082,700.82
70192,701.92
70310,703.1
70432,704.32
70542,705.42
70657,706.57
70778,707.78
70896,708.96
71005,710.05
71125,711.25
71240,712.4
71349,713.49
71468,714.68
71589,715.89
71698,716.98
71813,718.13
71935,719.35
72045,720.45
72161,721.61
72288,722.88
72405,724.05
72521,725.21
72642,726.42
72759,727.59
72873,728.73
72999,729.99
73117,731.17
73228,732.28
73345,733.45
73451,734.51
73556,735.56
73665,736.65
73785,737.85
73905,739.05
74037,740.37
74161,741.61
74278,742.78
74400,744.0
74516,745.16
74619,746.19
74728,747.28
74853,748.53
74969,749.69
75092,750.92
75213,752.13
75324,753.24
75445,754.45
75568,755.68
75679,756.79
75791,757.91
75909,759.09
76022,760.22
76133,761.33
76249,762.49
76363,763.63
76469,764.69
76583,765.83
76697,766.97
76803,768.03
76922,769.22
77042,770.42
77151,771.51
77257,772.57
77369,773.69
77477,774.77
77595,775.95
77716,777.16
77833,778.33
77946,779.46
78066,780.66
78180,781.8
78289,782.89
78409,784.09
78527,785.27
78631,786.31
78753,787.53
78876,788.76
78994,789.94
79119,791.19
79239,792.39
79349,793.49
79467,794.67
79583,795.83
79700,797.0
79825,798.25
79942,799.42
80051,800.51
80174,801.74
80297,802.97
80413,804.13
80532,805.32
80646,806.46
80757,807.57
80885,808.85
81007,810.07
81122,811.22
81244,812.44
81369,813.69
81482,814.82
81599,815.99
81726,817.26
81845,818.45
81952,819.52
82069,820.69
82186,821.86
82292,822.92
82408,824.08
82530,825.3
82639,826.39
82756,827.56
82877,828.77
82987,829.87
83100,831.0
83220,832.2
83336,833.36
83449,834.49
83565,835.65
83676,836.76
83779,837.79
83890,838.9
84002,840.02
84104,841.04
84208,842.08
84319,843.19
84424,844.24
84534,845.34
84651,846.51
84758,847.58
84861,848.61
84980,849.8
85099,850.99
85207,852.07
85319,853.19
85429,854.29
85528,855.28
85628,856.28
85741,857.41
85858,858.58
85968,859.68
86097,860.97
86223,862.23
86332,863.32
86448,864.48
86569,865.69
86682,866.82
86811,868.11
86940,869.4
87046,870.46
87156,871.56
87260,872.6
87363,873.63
87476,874.76
87574,875.74
87708,877.08
87843,878.43
87944,879.44
88028,880.28
88120,881.2
88268,882.68
88400,884.0
88529,885.29
88656,886.56
88789,887.89
88917,889.17
89039,890.39
89169,891.69
89294,892.94
89418,894.18
89538,895.38
89648,896.48
89764,897.64
89885,898.85
89999,899.99
90105,901.05
90218,902.18
90337,903.37
90442,904.42
90550,905.5
90678,906.78
90793,907.93
90909,909.09
91041,910.41
91167,911.67
91291,912.91
91418,914.18
91540,915.4
91652,916.52
91770,917.7
91889,918.89
91998,919.98
92113,921.13
92232,922.32
92346,923.46
92461,924.61
92581,925.81
92695,926.95
92800,928.0
92915,929.15
93033,930.33
93142,931.42
93264,932.64
93385,933.85
93495,934.95
93614,936.14
93739,937.39
93855,938.55
93976,939.76
94095,940.95
94206,942.06
94315,943.15
94442,944.42
94565,945.65
94687,946.87
94812,948.12
94931,949.31
95042,950.42
95160,951.6
95275,952.75
95384,953.84
95512,955.12
95637,956.37
95750,957.5
95870,958.7
95989,959.89
96104,961.04
96226,962.26
96345,963.45
96451,964.51
96552,965.52
96657,966.57
96767,967.67
96875,968.75
97007,970.07
97130,971.3
97240,972.4
97363,973.63
97480,974.8
97590,975.9
97712,977.12
97834,978.34
97956,979.56
98080,980.8
98201,982.01
98319,983.19
98446,984.46
98568,985.68
98683,986.83
98812,988.12
98940,989.4
99059,990.59
99185,991.85
99312,993.12
99427,994.27
99532,995.32
99659,996.59
99793,997.93
99920,999.2
100052,1000.52
100181,1001.81
100300,1003.0
100425,1004.25
100551,1005.51
100670,1006.7
100791,1007.91
100918,1009.18
101039,1010.39
101151,1011.51
101274,1012.74
101394,1013.94
101503,1015.03
101627,1016.27
101752,1017.52
101850,1018.5
101949,1019.49
102052,1020.52
102149,1021.49
102293,1022.93
102437,1024.37
102557,1025.57
102690,1026.9
102818,1028.18
102938,1029.38
103067,1030.67
103196,1031.96
103319,1033.19
103451,1034.51
103578,1035.78
103698,1036.98
103828,1038.28
103954,1039.54
104073,1040.73
104200,1042.0
104330,1043.3
104452,1044.52
104566,1045.66
104689,1046.89
104810,1048.1
104923,1049.23
105055,1050.55
105183,1051.83
105306,1053.06
105438,1054.38
105569,1055.69
105692,1056.92
105822,1058.22
105944,1059.44
106055,1060.55
106184,1061.84
106313,1063.13
106428,1064.28
106559,1065.59
106687,1066.87
106806,1068.06
106931,1069.31
107055,1070.55
107174,1071.74
107301,1073.01
107425,1074.25
107538,1075.38
107658,1076.58
107784,1077.84
107902,1079.02
108023,1080.23
108150,1081.5
108272,1082.72
108394,1083.94
108522,1085.22
108639,1086.39
108752,1087.52
108876,1088.76
108988,1089.88
109098,1090.98
109220,1092.2
109339,1093.39
109459,1094.59
109592,1095.92
109717,1097.17
109843,1098.43
109973,1099.73
110097,1100.97
110220,1102.2
110348,1103.48
110474,1104.74
110593,1105.93
110723,1107.23
110853,1108.53
110979,1109.79
111095,1110.95
111214,1112.14
111319,1113.19
111419,1114.19
111521,1115.21
111626,1116.26
111722,1117.22
111823,1118.23
111911,1119.11
112002,1120.02
112103,1121.03
112230,1122.3
112357,1123.57
112463,1124.63
112554,1125.54
112637,1126.37
112727,1127.27
112869,1128.69
113011,1130.11
113136,1131.36
113257,1132.57
113390,1133.9
113522,1135.22
113645,1136.45
113776,1137.76
113909,1139.09
114033,1140.33
114161,1141.61
114288,1142.88
114411,1144.11
114537,1145.37
114661,1146.61
114779,1147.79
114902,1149.02
115025,1150.25
115147,1151.47
115276,1152.76
115401,1154.01
115521,1155.21
115646,1156.46
115765,1157.65
115886,1158.86
116013,1160.13
116138,1161.38
116255,1162.55
116381,1163.81
116506,1165.06
116620,1166.2
116741,1167.41
116872,1168.72
116991,1169.91
117116,1171.16
117252,1172.52
117371,1173.71
117489,1174.89
117621,1176.21
117744,1177.44
117860,1178.6
117986,1179.86
118113,1181.13
118229,1182.29
118356,1183.56
118477,1184.77
118591,1185.91
118716,1187.16
118835,1188.35
118948,1189.48
119073,1190.73
119193,1191.93
119310,1193.1
119433,1194.33
119550,1195.5
119668,1196.68
119791,1197.91
119904,1199.04
120012,1200.12
120135,1201.35
120258,1202.58
120371,1203.71
120495,1204.95
120620,1206.2
120724,1207.24
120834,1208.34
120949,1209.49
121058,1210.58
121194,1211.94
121331,1213.31
121453,1214.53
121586,1215.86
121712,1217.12
121832,1218.32
121956,1219.56
122076,1220.76
122191,1221.91
122318,1223.18
122437,1224.37
122548,1225.48
122670,1226.7
122793,1227.93
122912,1229.12
123037,1230.37
123153,1231.53
123259,1232.59
123374,1233.74
123496,1234.96
123610,1236.1
123728,1237.28
123851,1238.51
123965,1239.65
124087,1240.87
124206,1242.06
124315,1243.15
124439,1244.39
124564,1245.64
124678,1246.78
124802,1248.02
124927,1249.27
125044,1250.44
125162,1251.62
125287,1252.87
125401,1254.01
125513,1255.13
125639,1256.39
125767,1257.67
125890,1258.9
126016,1260.16
126131,1261.31
126237,1262.37
126365,1263.65
126494,1264.94
126607,1266.07
126732,1267.32
126855,1268.55
126972,1269.72
127101,1271.01
127219,1272.19
127331,1273.31
127453,1274.53
127573,1275.73
127686,1276.86
127814,1278.14
127928,1279.28
128041,1280.41
128170,1281.7
128288,1282.88
128404,1284.04
128532,1285.32
128652,1286.52
128771,1287.71
128902,1289.02
129026,1290.26
129143,1291.43
129267,1292.67
129386,1293.86
129498,1294.98
129620,1296.2
129746,1297.46
129865,1298.65
129994,1299.94
130119,1301.19
130237,1302.37
130346,1303.46
130463,1304.63
130591,1305.91
130710,1307.1
130843,1308.43
130972,1309.72
131088,1310.88
131213,1312.13
131345,1313.45
131466,1314.66
131594,1315.94
131730,1317.3
131854,1318.54
131974,1319.74
132102,1321.02
132224,1322.24
132335,1323.35
132451,1324.51
132567,1325.67
132670,1326.7
132792,1327.92
132914,1329.14
133031,1330.31
133155,1331.55
133255,1332.55
133342,1333.42
133429,1334.29
133552,1335.52
133666,1336.66
133788,1337.88
133902,1339.02
134031,1340.31
134165,1341.65
134291,1342.91
134413,1344.13
134545,1345.45
134669,1346.69
134791,1347.91
134917,1349.17
135039,1350.39
135161,1351.61
135286,1352.86
135406,1354.06
135523,1355.23
135647,1356.47
135763,1357.63
135884,1358.84
136007,1360.07
136121,1361.21
136250,1362.5
136380,1363.8
136495,1364.95
136612,1366.12
136734,1367.34
136843,1368.43
136971,1369.71
137100,1371.0
137213,1372.13
137337,1373.37
137456,1374.56
137565,1375.65
137686,1376.86
137808,1378.08
137922,1379.22
138049,1380.49
138170,1381.7
138283,1382.83
138408,1384.08
138525,1385.25
138635,1386.35
138760,1387.6
138874,1388.74
138997,1389.97
139124,1391.24
139240,1392.4
139357,1393.57
139479,1394.79
139597,1395.97
139713,1397.13
139845,1398.45
139968,1399.68
140090,1400.9
140209,1402.09
140319,1403.19
140423,1404.23
140568,1405.68
140695,1406.95
140826,1408.26
140958,1409.58
141076,1410.76
141202,1412.02
141329,1413.29
141447,1414.47
141564,1415.64
141687,1416.87
141806,1418.06
141915,1419.15
142042,1420.42
142172,1421.72
142289,1422.89
142414,1424.14
142538,1425.38
142656,1426.56
142786,1427.86
142912,1429.12
143030,1430.3
143154,1431.54
143276,1432.76
143396,1433.96
143519,1435.19
143637,1436.37
143743,1437.43
143856,1438.56
143967,1439.67
144068,1440.68
144202,1442.02
144336,1443.36
144444,1444.44
144567,1445.67
144690,1446.9
144798,1447.98
144917,1449.17
145033,1450.33
145138,1451.38
145259,1452.59
145380,1453.8
145492,1454.92
145618,1456.18
145745,1457.45
145859,1458.59
145985,1459.85
146106,1461.06
146218,1462.18
146345,1463.45
146468,1464.68
146585,1465.85
146711,1467.11
146828,1468.28
146937,1469.37
147066,1470.66
147196,1471.96
147314,1473.14
147442,1474.42
147569,1475.69
147689,1476.89
147814,1478.14
147937,1479.37
148048,1480.48
148167,1481.67
148294,1482.94
148413,1484.13
148534,1485.34
148660,1486.6
148777,1487.77
148885,1488.85
149010,1490.1
149138,1491.38
149255,1492.55
149382,1493.82
149510,1495.1
149626,1496.26
149750,1497.5
149870,1498.7
149982,1499.82
150110,1501.1
150235,1502.35
150353,1503.53
150480,1504.8
150601,1506.01
150714,1507.14
150841,1508.41
150969,1509.69
151082,1510.82
151218,1512.18
151354,1513.54
151478,1514.78
151611,1516.11
151740,1517.4
151866,1518.66
151993,1519.93
152117,1521.17
152234,1522.34
152353,1523.53
152474,1524.74
152595,1525.95
152708,1527.08
152825,1528.25
152947,1529.47
153057,1530.57
153165,1531.65
153307,1533.07
153431,1534.31
153554,1535.54
153685,1536.85
153806,1538.06
153926,1539.26
154060,1540.6
154181,1541.81
154300,1543.0
154433,1544.33
154559,1545.59
154688,1546.88
154815,1548.15
154935,1549.35
155041,1550.41
155153,1551.53
155279,1552.79
155403,1554.03
155523,1555.23
155647,1556.47
155768,1557.68
155884,1558.84
156007,1560.07
156130,1561.3
156247,1562.47
156360,1563.6
156482,1564.82
156605,1566.05
156720,1567.2
156841,1568.41
156968,1569.68
157084,1570.84
157192,1571.92
157320,1573.2
157446,1574.46
157566,1575.66
157679,1576.79
157814,1578.14
157950,1579.5
158072,1580.72
158192,1581.92
158312,1583.12
158403,1584.03
158496,1584.96
158583,1585.83
158672,1586.72
158771,1587.71
158845,1588.45
158920,1589.2
159012,1590.12
159105,1591.05
159193,1591.93
159292,1592.92
159425,1594.25
159558,1595.58
159680,1596.8
159811,1598.11
159937,1599.37
160070,1600.7
160207,1602.07
160337,1603.37
160468,1604.68
160606,1606.06
160736,1607.36
160868,1608.68
160996,1609.96
161118,1611.18
161246,1612.46
161378,1613.78
161505,1615.05
161638,1616.38
161773,1617.73
161906,1619.06
162037,1620.37
162169,1621.69
162298,1622.98
162428,1624.28
162555,1625.55
162685,1626.85
162806,1628.06
162933,1629.33
163061,1630.61
163189,1631.89
163312,1633.12
163423,1634.23
163545,1635.45
163672,1636.72
163788,1637.88
163918,1639.18
164048,1640.48
164172,1641.72
164301,1643.01
164424,1644.24
164543,1645.43
164672,1646.72
164791,1647.91
164895,1648.95
165019,1650.19
165143,1651.43
165251,1652.51
165359,1653.59
165479,1654.79
165617,1656.17
165755,1657.55
165892,1658.92
166018,1660.18
166157,1661.57
166290,1662.9
166417,1664.17
166555,1665.55
166683,1666.83
166806,1668.06
166936,1669.36
167064,1670.64
167189,1671.89
167319,1673.19
167445,1674.45
167565,1675.65
167685,1676.85
167810,1678.1
167936,1679.36
168058,1680.58
168183,1681.83
168304,1683.04
168422,1684.22
168541,1685.41
168657,1686.57
168774,1687.74
168902,1689.02
169025,1690.25
169143,1691.43
169262,1692.62
169392,1693.92
169511,1695.11
169631,1696.31
169762,1697.62
169885,1698.85
170021,1700.21
170154,1701.54
170282,1702.82
170411,1704.11
170539,1705.39
170663,1706.63
170782,1707.82
170911,1709.11
171032,1710.32
171145,1711.45
171266,1712.66
171387,1713.87
171500,1715.0
171609,1716.09
171728,1717.28
171851,1718.51
171969,1719.69
172093,1720.93
172220,1722.2
172343,1723.43
172463,1724.63
172588,1725.88
172711,1727.11
172827,1728.27
172950,1729.5
173075,1730.75
173196,1731.96
173308,1733.08
173425,1734.25
173549,1735.49
173662,1736.62
173777,1737.77
173903,1739.03
174028,1740.28
174133,1741.33
174231,1742.31
174322,1743.22
174407,1744.07
174489,1744.89
174579,1745.79
174658,1746.58
174738,1747.38
174863,1748.63
174989,1749.89
175113,1751.13
175207,1752.07
175297,1752.97
175390,1753.9
175489,1754.89
175582,1755.82
175708,1757.08
175827,1758.27
175958,1759.58
176082,1760.82
176211,1762.11
176326,1763.26
176453,1764.53
176581,1765.81
176706,1767.06
176840,1768.4
176972,1769.72
177098,1770.98
177219,1772.19
177344,1773.44
177469,1774.69
177601,1776.01
177743,1777.43
177879,1778.79
178007,1780.07
178141,1781.41
178277,1782.77
178402,1784.02
178536,1785.36
178666,1786.66
178788,1787.88
178916,1789.16
179042,1790.42
179156,1791.56
179257,1792.57
179389,1793.89
179521,1795.21
179661,1796.61
179783,1797.83
179922,1799.22
180046,1800.46
180181,1801.81
180309,1803.09
180430,1804.3
180560,1805.6
180684,1806.84
180796,1807.96
180915,1809.15
181042,1810.42
181163,1811.63
181287,1812.87
181416,1814.16
181539,1815.39
181655,1816.55
181787,1817.87
181914,1819.14
182032,1820.32
182156,1821.56
182285,1822.85
182409,1824.09
182527,1825.27
182654,1826.54
182779,1827.79
182893,1828.93
183016,1830.16
183141,1831.41
183258,1832.58
183373,1833.73
183503,1835.03
183629,1836.29
183747,1837.47
183877,1838.77
184006,1840.06
184127,1841.27
184240,1842.4
184369,1843.69
184491,1844.91
184602,1846.02
184714,1847.14
184843,1848.43
184973,1849.73
185095,1850.95
185231,1852.31
185356,1853.56
185472,1854.72
185602,1856.02
185726,1857.26
185836,1858.36
185960,1859.6
186087,1860.87
186181,1861.81
186275,1862.75
186385,1863.85
186496,1864.96
186593,1865.93
186695,1866.95
186814,1868.14
186927,1869.27
187041,1870.41
187158,1871.58
187265,1872.65
187385,1873.85
187517,1875.17
187646,1876.46
187770,1877.7
187906,1879.06
188041,1880.41
188172,1881.72
188295,1882.95
188426,1884.26
188563,1885.63
188695,1886.95
188820,1888.2
188956,1889.56
189087,1890.87
189215,1892.15
189349,1893.49
189482,1894.82
189607,1896.07
189727,1897.27
189859,1898.59
189992,1899.92
190111,1901.11
190244,1902.44
190382,1903.82
190510,1905.1
190643,1906.43
190780,1907.8
190913,1909.13
191034,1910.34
191159,1911.59
191288,1912.88
191411,1914.11
191526,1915.26
191646,1916.46
191766,1917.66
191872,1918.72
191981,1919.81
192115,1921.15
192250,1922.5
192360,1923.6
192486,1924.86
192605,1926.05
192705,1927.05
192807,1928.07
192938,1929.38
193070,1930.7
193172,1931.72
193271,1932.71
193364,1933.64
193439,1934.39
193514,1935.14
193620,1936.2
193711,1937.11
193798,1937.98
193885,1938.85
193970,1939.7
194060,1940.6
194172,1941.72
194273,1942.73
194363,1943.63
194444,1944.44
194524,1945.24
194602,1946.02
194680,1946.8
194759,1947.59
194837,1948.37
194913,1949.13
194989,1949.89
195067,1950.67
195147,1951.47
195229,1952.29
195306,1953.06
195384,1953.84
195460,1954.6
195540,1955.4
195621,1956.21
195703,1957.03
195781,1957.81
195860,1958.6
195940,1959.4
196025,1960.25
196108,1961.08
196194,1961.94
196282,1962.82
196377,1963.77
196465,1964.65
196557,1965.57
196649,1966.49
196736,1967.36
196816,1968.16
196901,1969.01
196996,1969.96
197068,1970.68
197140,1971.4
197260,1972.6
197362,1973.62
197457,1974.57
197548,1975.48
197637,1976.37
197723,1977.23
197806,1978.06
197947,1979.47
198089,1980.89
198220,1982.2
198354,1983.54
198483,1984.83
198604,1986.04
198729,1987.29
198852,1988.52
198975,1989.75
199099,1990.99
199228,1992.28
199356,1993.56
199480,1994.8
199597,1995.97
199709,1997.09
199840,1998.4
199963,1999.63
200079,2000.79
200193,2001.93
200325,2003.25
200448,2004.48
200565,2005.65
200679,2006.79
200796,2007.96
200918,2009.18
201028,2010.28
201137,2011.37
201273,2012.73
201392,2013.92
201499,2014.99
201619,2016.19
201745,2017.45
201856,2018.56
201969,2019.69
202111,2021.11
202240,2022.4
202370,2023.7
202502,2025.02
202625,2026.25
202730,2027.3
202850,2028.5
202982,2029.82
203104,2031.04
203236,2032.36
203367,2033.67
203490,2034.9
203606,2036.06
203739,2037.39
203865,2038.65
203983,2039.83
204101,2041.01
204235,2042.35
204353,2043.53
204458,2044.58
204571,2045.71
204716,2047.16
204854,2048.54
204991,2049.91
205124,2051.24
205254,2052.54
205390,2053.9
205522,2055.22
205640,2056.4
205761,2057.61
205897,2058.97
206013,2060.13
206133,2061.33
206256,2062.56
206380,2063.8
206492,2064.92
206605,2066.05
206746,2067.46
206868,2068.68
206986,2069.86
207124,2071.24
207249,2072.49
207357,2073.57
207471,2074.71
207598,2075.98
207701,2077.01
207800,2078.0
207872,2078.72
207945,2079.45
208056,2080.56
208165,2081.65
208260,2082.6
208355,2083.55
208461,2084.61
208565,2085.65
208658,2086.58
208746,2087.46
208837,2088.37
208986,2089.86
209117,2091.17
209254,2092.54
209382,2093.82
209510,2095.1
209644,2096.44
209772,2097.72
209901,2099.01
210037,2100.37
210173,2101.73
210301,2103.01
210424,2104.24
210553,2105.53
210682,2106.82
210800,2108.0
210921,2109.21
211053,2110.53
211181,2111.81
211307,2113.07
211443,2114.43
211571,2115.71
211691,2116.91
211831,2118.31
211962,2119.62
212085,2120.85
212212,2122.12
212348,2123.48
212478,2124.78
212597,2125.97
212728,2127.28
212852,2128.52
212960,2129.6
213072,2130.72
213184,2131.84
213284,2132.84
213387,2133.87
213461,2134.61
213536,2135.36
213657,2136.57
213767,2137.67
213857,2138.57
213942,2139.42
214028,2140.28
214118,2141.18
214210,2142.1
214301,2143.01
214403,2144.03
214545,2145.45
214676,2146.76
214809,2148.09
214944,2149.44
215072,2150.72
215201,2152.01
215330,2153.3
215456,2154.56
215577,2155.77
215706,2157.06
215832,2158.32
215937,2159.37
216041,2160.41
216146,2161.46
216287,2162.87
216418,2164.18
216548,2165.48
216658,2166.58
216763,2167.63
216867,2168.67
216961,2169.61
217056,2170.56
217156,2171.56
217262,2172.62
217354,2173.54
217438,2174.38
217528,2175.28
217682,2176.82
217819,2178.19
217932,2179.32
218020,2180.2
218106,2181.06
218194,2181.94
218349,2183.49
218493,2184.93
218616,2186.16
218738,2187.38
218858,2188.58
218967,2189.67
219060,2190.6
219146,2191.46
219234,2192.34
219330,2193.3
219422,2194.22
219565,2195.65
219698,2196.98
219826,2198.26
219959,2199.59
220093,2200.93
220225,2202.25
220357,2203.57
220489,2204.89
220618,2206.18
220740,2207.4
220869,2208.69
220998,2209.98
221125,2211.25
221239,2212.39
221360,2213.6
221496,2214.96
221625,2216.25
221744,2217.44
221861,2218.61
221992,2219.92
222122,2221.22
222242,2222.42
222354,2223.54
222484,2224.84
222608,2226.08
222722,2227.22
222848,2228.48
222974,2229.74
223093,2230.93
223212,2232.12
223335,2233.35
223455,2234.55
223561,2235.61
223669,2236.69
223814,2238.14
223939,2239.39
224043,2240.43
224154,2241.54
224292,2242.92
224418,2244.18
224555,2245.55
224684,2246.84
224805,2248.05
224926,2249.26
225054,2250.54
225174,2251.74
225284,2252.84
225413,2254.13
225541,2255.41
225658,2256.58
225776,2257.76
225907,2259.07
226033,2260.33
226154,2261.54
226274,2262.74
226402,2264.02
226520,2265.2
226633,2266.33
226768,2267.68
226904,2269.04
227010,2270.1
227123,2271.23
227263,2272.63
227399,2273.99
227538,2275.38
227673,2276.73
227798,2277.98
227928,2279.28
228053,2280.53
228171,2281.71
228289,2282.89
228417,2284.17
228540,2285.4
228650,2286.5
228780,2287.8
228906,2289.06
229019,2290.19
229133,2291.33
229275,2292.75
229407,2294.07
229531,2295.31
229661,2296.61
229791,2297.91
229916,2299.16
230036,2300.36
230167,2301.67
230295,2302.95
230418,2304.18
230538,2305.38
230657,2306.57
230772,2307.72
230876,2308.76
230974,2309.74
231117,2311.17
231247,2312.47
231359,2313.59
231480,2314.8
231604,2316.04
231719,2317.19
231845,2318.45
231968,2319.68
232080,2320.8
232186,2321.86
232318,2323.18
232439,2324.39
232546,2325.46
232654,2326.54
232768,2327.68
232893,2328.93
233011,2330.11
233143,2331.43
233271,2332.71
233391,2333.91
233523,2335.23
233653,2336.53
233776,2337.76
233891,2338.91
234015,2340.15
234139,2341.39
234260,2342.6
234367,2343.67
234504,2345.04
234642,2346.42
234759,2347.59
234883,2348.83
235013,2350.13
235130,2351.3
235255,2352.55
235384,2353.84
235506,2355.06
235623,2356.23
235736,2357.36
235851,2358.51
235957,2359.57
236055,2360.55
236202,2362.02
236331,2363.31
236441,2364.41
236568,2365.68
236695,2366.95
236811,2368.11
236917,2369.17
237030,2370.3
237162,2371.62
237281,2372.81
237387,2373.87
237525,2375.25
237663,2376.63
237775,2377.75
237911,2379.11
238041,2380.41
238166,2381.66
238280,2382.8
238407,2384.07
238527,2385.27
238642,2386.42
238765,2387.65
238892,2388.92
239004,2390.04
239105,2391.05
239209,2392.09
239351,2393.51
239476,2394.76
239598,2395.98
239723,2397.23
239834,2398.34
239936,2399.36
240046,2400.46
240179,2401.79
240313,2403.13
240435,2404.35
240565,2405.65
240688,2406.88
240817,2408.17
240946,2409.46
241070,2410.7
241192,2411.92
241319,2413.19
241443,2414.43
241555,2415.55
241657,2416.57
241755,2417.55
241843,2418.43
241928,2419.28
242038,2420.38
242181,2421.81
242317,2423.17
242446,2424.46
242564,2425.64
242689,2426.89
242823,2428.23
242950,2429.5
243063,2430.63
243192,2431.92
243327,2433.27
243451,2434.51
243577,2435.77
243711,2437.11
243841,2438.41
243962,2439.62
244087,2440.87
244213,2442.13
244338,2443.38
244456,2444.56
244577,2445.77
244707,2447.07
244832,2448.32
244956,2449.56
245087,2450.87
245209,2452.09
245320,2453.2
245441,2454.41
245562,2455.62
245678,2456.78
245813,2458.13
245941,2459.41
246065,2460.65
246196,2461.96
246319,2463.19
246446,2464.46
246573,2465.73
246691,2466.91
246806,2468.06
246931,2469.31
247049,2470.49
247162,2471.62
247264,2472.64
247360,2473.6
247489,2474.89
247607,2476.07
247738,2477.38
247862,2478.62
247994,2479.94
248119,2481.19
248227,2482.27
248337,2483.37
248449,2484.49
248558,2485.58
248661,2486.61
248776,2487.76
248914,2489.14
249043,2490.43
249158,2491.58
249289,2492.89
249417,2494.17
249547,2495.47
249673,2496.73
249812,2498.12
249944,2499.44
250070,2500.7
250202,2502.02
250337,2503.37
250466,2504.66
250591,2505.91
250730,2507.3
250860,2508.6
250983,2509.83
251114,2511.14
251243,2512.43
251367,2513.67
251484,2514.84
251618,2516.18
251745,2517.45
251864,2518.64
251978,2519.78
252106,2521.06
252237,2522.37
252351,2523.51
252461,2524.61
252579,2525.79
252704,2527.04
252829,2528.29
252961,2529.61
253087,2530.87
253202,2532.02
253320,2533.2
253443,2534.43
253564,2535.64
253673,2536.73
253779,2537.79
253922,2539.22
254047,2540.47
254172,2541.72
254308,2543.08
254434,2544.34
254548,2545.48
254677,2546.77
254799,2547.99
254907,2549.07
255017,2550.17
255153,2551.53
255282,2552.82
255399,2553.99
255519,2555.19
255649,2556.49
255780,2557.8
255903,2559.03
256022,2560.22
256152,2561.52
256279,2562.79
256398,2563.98
256534,2565.34
256665,2566.65
256787,2567.87
256910,2569.1
257048,2570.48
257170,2571.7
257285,2572.85
257415,2574.15
257551,2575.51
257688,2576.88
257814,2578.14
257950,2579.5
258081,2580.81
258206,2582.06
258336,2583.36
258463,2584.63
258581,2585.81
258700,2587.0
258827,2588.27
258946,2589.46
259066,2590.66
259190,2591.9
259312,2593.12
259425,2594.25
259554,2595.54
259682,2596.82
259803,2598.03
259922,2599.22
260057,2600.57
260190,2601.9
260316,2603.16
260433,2604.33
260563,2605.63
260689,2606.89
260808,2608.08
260920,2609.2
261051,2610.51
261182,2611.82
261292,2612.92
261403,2614.03
261546,2615.46
261680,2616.8
261802,2618.02
261938,2619.38
262069,2620.69
262190,2621.9
262317,2623.17
262452,2624.52
262580,2625.8
262699,2626.99
262829,2628.29
262955,2629.55
263070,2630.7
263185,2631.85
263321,2633.21
263450,2634.5
263575,2635.75
263695,2636.95
263822,2638.22
263949,2639.49
264074,2640.74
264205,2642.05
264343,2643.43
264475,2644.75
264596,2645.96
264720,2647.2
264854,2648.54
264980,2649.8
265097,2650.97
265222,2652.22
265350,2653.5
265471,2654.71
265585,2655.85
265710,2657.1
265835,2658.35
265946,2659.46
266069,2660.69
266193,2661.93
266310,2663.1
266419,2664.19
266533,2665.33
266653,2666.53
266767,2667.67
266876,2668.76
267006,2670.06
267136,2671.36
267253,2672.53
267371,2673.71
267494,2674.94
267612,2676.12
267727,2677.27
267849,2678.49
267979,2679.79
268098,2680.98
268207,2682.07
268314,2683.14
268420,2684.2
268527,2685.27
268637,2686.37
268777,2687.77
268917,2689.17
269040,2690.4
269168,2691.68
269297,2692.97
269425,2694.25
269546,2695.46
269672,2696.72
269806,2698.06
269936,2699.36
270063,2700.63
270183,2701.83
270311,2703.11
270428,2704.28
270532,2705.32
270634,2706.34
270745,2707.45
270862,2708.62
270997,2709.97
271131,2711.31
271258,2712.58
271385,2713.85
271517,2715.17
271639,2716.39
271757,2717.57
271892,2718.92
272022,2720.22
272148,2721.48
272272,2722.72
272405,2724.05
272534,2725.34
272655,2726.55
272776,2727.76
272905,2729.05
273034,2730.34
273153,2731.53
273266,2732.66
273394,2733.94
273523,2735.23
273636,2736.36
273754,2737.54
273886,2738.86
274015,2740.15
274135,2741.35
274254,2742.54
274380,2743.8
274507,2745.07
274622,2746.22
274749,2747.49
274874,2748.74
274988,2749.88
275100,2751.0
275220,2752.2
275344,2753.44
275458,2754.58
275583,2755.83
275709,2757.09
275831,2758.31
275965,2759.65
276103,2761.03
276233,2762.33
276363,2763.63
276499,2764.99
276631,2766.31
276757,2767.57
276886,2768.86
277010,2770.1
277127,2771.27
277258,2772.58
277390,2773.9
277515,2775.15
277636,2776.36
277758,2777.58
277879,2778.79
277988,2779.88
278090,2780.9
278237,2782.37
278371,2783.71
278492,2784.92
278619,2786.19
278749,2787.49
278878,2788.78
279002,2790.02
279127,2791.27
279258,2792.58
279380,2793.8
279496,2794.96
279610,2796.1
279726,2797.26
279846,2798.46
279966,2799.66
280090,2800.9
280217,2802.17
280338,2803.38
280451,2804.51
280568,2805.68
280692,2806.92
280812,2808.12
280950,2809.5
281088,2810.88
281216,2812.16
281342,2813.42
281477,2814.77
281612,2816.12
281738,2817.38
281862,2818.62
281992,2819.92
282119,2821.19
282234,2822.34
282344,2823.44
282467,2824.67
282597,2825.97
282716,2827.16
282841,2828.41
282972,2829.72
283094,2830.94
283213,2832.13
283334,2833.34
283459,2834.59
283571,2835.71
283695,2836.95
283832,2838.32
283957,2839.57
284078,2840.78
284208,2842.08
284329,2843.29
284442,2844.42
284559,2845.59
284686,2846.86
284818,2848.18
284943,2849.43
285071,2850.71
285201,2852.01
285330,2853.3
285459,2854.59
285597,2855.97
285728,2857.28
285851,2858.51
285982,2859.82
286113,2861.13
286239,2862.39
286365,2863.65
286492,2864.92
286613,2866.13
286723,2867.23
286844,2868.44
286965,2869.65
287077,2870.77
287189,2871.89
287324,2873.24
287446,2874.46
287556,2875.56
287663,2876.63
287777,2877.77
287901,2879.01
288030,2880.3
288166,2881.66
288296,2882.96
288419,2884.19
288535,2885.35
288665,2886.65
288796,2887.96
288916,2889.16
289049,2890.49
289182,2891.82
289305,2893.05
289442,2894.42
289571,2895.71
289698,2896.98
289828,2898.28
289953,2899.53
290069,2900.69
290191,2901.91
290320,2903.2
290448,2904.48
290572,2905.72
290705,2907.05
290830,2908.3
290952,2909.52
291076,2910.76
291193,2911.93
291296,2912.96
291397,2913.97
291503,2915.03
291622,2916.22
291760,2917.6
291891,2918.91
292017,2920.17
292134,2921.34
292257,2922.57
292386,2923.86
292505,2925.05
292615,2926.15
292742,2927.42
292870,2928.7
292984,2929.84
293104,2931.04
293234,2932.34
293364,2933.64
293484,2934.84
293623,2936.23
293759,2937.59
293886,2938.86
294009,2940.09
294137,2941.37
294268,2942.68
294390,2943.9
294520,2945.2
294656,2946.56
294786,2947.86
294912,2949.12
295041,2950.41
295167,2951.67
295288,2952.88
295413,2954.13
295545,2955.45
295671,2956.71
295788,2957.88
295915,2959.15
296043,2960.43
296165,2961.65
296279,2962.79
296413,2964.13
296547,2965.47
296674,2966.74
296795,2967.95
296923,2969.23
297051,2970.51
297167,2971.67
297300,2973.0
297433,2974.33
297553,2975.53
297682,2976.82
297811,2978.11
297932,2979.32
298044,2980.44
298168,2981.68
298294,2982.94
298416,2984.16
298530,2985.3
298650,2986.5
298777,2987.77
298899,2988.99
299015,2990.15
299148,2991.48
299279,2992.79
299402,2994.02
299526,2995.26
299658,2996.58
299783,2997.83
299897,2998.97
300015,3000.15
300153,3001.53
300280,3002.8
300408,3004.08
300537,3005.37
300660,3006.6
300780,3007.8
300905,3009.05
301031,3010.31
301153,3011.53
301285,3012.85
301415,3014.15
301535,3015.35
301654,3016.54
301785,3017.85
301911,3019.11
302026,3020.26
302153,3021.53
302279,3022.79
302399,3023.99
302521,3025.21
302650,3026.5
302775,3027.75
302890,3028.9
303006,3030.06
303132,3031.32
303255,3032.55
303371,3033.71
303496,3034.96
303619,3036.19
303737,3037.37
303843,3038.43
303960,3039.6
304080,3040.8
304196,3041.96
304317,3043.17
304445,3044.45
304567,3045.67
304676,3046.76
304803,3048.03
304930,3049.3
305041,3050.41
305169,3051.69
305297,3052.97
305418,3054.18
305535,3055.35
305657,3056.57
305777,3057.77
305905,3059.05
306034,3060.34
306154,3061.54
306271,3062.71
306405,3064.05
306526,3065.26
306640,3066.4
306775,3067.75
306906,3069.06
307028,3070.28
307164,3071.64
307291,3072.91
307409,3074.09
307532,3075.32
307661,3076.61
307782,3077.82
307899,3078.99
308026,3080.26
308151,3081.51
308267,3082.67
308392,3083.92
308520,3085.2
308637,3086.37
308751,3087.51
308874,3088.74
308998,3089.98
309109,3091.09
309232,3092.32
309359,3093.59
309474,3094.74
309573,3095.73
309676,3096.76
309826,3098.26
309976,3099.76
310114,3101.14
310257,3102.57
310389,3103.89
310515,3105.15
310649,3106.49
310780,3107.8
310903,3109.03
311024,3110.24
311161,3111.61
311291,3112.91
311413,3114.13
311543,3115.43
311674,3116.74
311796,3117.96
311906,3119.06
312017,3120.17
312146,3121.46
312275,3122.75
312399,3123.99
312532,3125.32
312661,3126.61
312785,3127.85
312912,3129.12
313044,3130.44
313162,3131.62
313269,3132.69
313373,3133.73
313486,3134.86
313626,3136.26
313752,3137.52
313888,3138.88
314023,3140.23
314145,3141.45
314271,3142.71
314403,3144.03
314527,3145.27
314646,3146.46
314767,3147.67
314894,3148.94
315021,3150.21
315143,3151.43
315270,3152.7
315391,3153.91
315501,3155.01
315632,3156.32
315764,3157.64
315883,3158.83
316001,3160.01
316130,3161.3
316256,3162.56
316376,3163.76
316507,3165.07
316632,3166.32
316749,3167.49
316877,3168.77
317002,3170.02
317116,3171.16
317231,3172.31
317360,3173.6
317487,3174.87
317606,3176.06
317728,3177.28
317854,3178.54
317973,3179.73
318091,3180.91
318224,3182.24
318352,3183.52
318473,3184.73
318609,3186.09
318739,3187.39
318859,3188.59
318988,3189.88
319113,3191.13
319225,3192.25
319340,3193.4
319474,3194.74
319591,3195.91
319715,3197.15
319845,3198.45
319970,3199.7
320094,3200.94
320222,3202.22
320345,3203.45
320466,3204.66
320599,3205.99
320730,3207.3
320852,3208.52
320983,3209.83
321113,3211.13
321229,3212.29
321339,3213.39
321467,3214.67
321594,3215.94
321712,3217.12
321841,3218.41
321971,3219.71
322094,3220.94
322222,3222.22
322342,3223.42
322452,3224.52
322572,3225.72
322696,3226.96
322817,3228.17
322938,3229.38
323064,3230.64
323189,3231.89
323303,3233.03
323416,3234.16
323541,3235.41
323669,3236.69
323785,3237.85
323895,3238.95
324012,3240.12
324136,3241.36
324249,3242.49
324365,3243.65
324494,3244.94
324623,3246.23
324738,3247.38
324872,3248.72
325005,3250.05
325130,3251.3
325258,3252.58
325386,3253.86
325510,3255.1
325625,3256.25
325743,3257.43
325862,3258.62
325980,3259.8
326084,3260.84
326198,3261.98
326313,3263.13
326424,3264.24
326553,3265.53
326679,3266.79
326792,3267.92
326908,3269.08
327036,3270.36
327160,3271.6
327275,3272.75
327391,3273.91
327512,3275.12
327631,3276.31
327749,3277.49
327868,3278.68
327995,3279.95
328119,3281.19
328243,3282.43
328378,3283.78
328501,3285.01
328621,3286.21
328755,3287.55
328889,3288.89
329015,3290.15
329143,3291.43
329279,3292.79
329401,3294.01
329515,3295.15
329650,3296.5
329780,3297.8
329898,3298.98
330012,3300.12
330126,3301.26
330245,3302.45
330364,3303.64
330495,3304.95
330630,3306.3
330755,3307.55
330880,3308.8
331009,3310.09
331132,3311.32
331248,3312.48
331378,3313.78
331506,3315.06
331631,3316.31
331752,3317.52
331874,3318.74
331995,3319.95
332107,3321.07
332220,3322.2
332349,3323.49
332471,3324.71
332592,3325.92
332715,3327.15
332838,3328.38
332953,3329.53
333084,3330.84
333210,3332.1
333327,3333.27
333449,3334.49
333582,3335.82
333712,3337.12
333832,3338.32
333961,3339.61
334089,3340.89
334209,3342.09
334324,3343.24
334448,3344.48
334576,3345.76
334694,3346.94
334813,3348.13
334940,3349.4
335064,3350.64
335179,3351.79
335302,3353.02
335426,3354.26
335547,3355.47
335657,3356.57
335771,3357.71
335892,3358.92
336010,3360.1
336119,3361.19
336247,3362.47
336376,3363.76
336492,3364.92
336599,3365.99
336701,3367.01
336806,3368.06
336914,3369.14
337014,3370.14
337117,3371.17
337220,3372.2
337316,3373.16
337406,3374.06
337497,3374.97
337584,3375.84
337670,3376.7
337757,3377.57
337842,3378.42
337926,3379.26
338012,3380.12
338096,3380.96
338179,3381.79
338262,3382.62
338345,3383.45
338427,3384.27
338508,3385.08
338590,3385.9
338673,3386.73
338759,3387.59
338916,3389.16
339058,3390.58
339193,3391.93
339321,3393.21
339455,3394.55
339587,3395.87
339714,3397.14
339842,3398.42
339977,3399.77
340105,3401.05
340224,3402.24
340341,3403.41
340473,3404.73
340600,3406.0
340722,3407.22
340857,3408.57
340984,3409.84
341101,3411.01
341214,3412.14
341352,3413.52
341484,3414.84
341605,3416.05
341731,3417.31
341857,3418.57
341983,3419.83
342097,3420.97
342202,3422.02
342319,3423.19
342443,3424.43
342562,3425.62
342672,3426.72
342798,3427.98
342923,3429.23
343035,3430.35
343159,3431.59
343286,3432.86
343409,3434.09
343516,3435.16
343621,3436.21
343723,3437.23
343821,3438.21
343922,3439.22
344062,3440.62
344203,3442.03
344318,3443.18
344434,3444.34
344569,3445.69
344694,3446.94
344812,3448.12
344949,3449.49
345080,3450.8
345199,3451.99
345329,3453.29
345468,3454.68
345595,3455.95
345708,3457.08
345832,3458.32
345960,3459.6
346080,3460.8
346217,3462.17
346353,3463.53
346477,3464.77
346598,3465.98
346730,3467.3
346862,3468.62
346988,3469.88
347120,3471.2
347245,3472.45
347368,3473.68
347494,3474.94
347618,3476.18
347735,3477.35
347856,3478.56
347980,3479.8
348089,3480.89
348190,3481.9
348297,3482.97
348433,3484.33
348554,3485.54
348679,3486.79
348812,3488.12
348939,3489.39
349055,3490.55
349178,3491.78
349310,3493.1
349433,3494.33
349544,3495.44
349652,3496.52
349789,3497.89
349914,3499.14
350033,3500.33
350152,3501.52
350283,3502.83
350407,3504.07
350536,3505.36
350654,3506.54
350759,3507.59
350855,3508.55
350953,3509.53
351094,3510.94
351235,3512.35
351362,3513.62
351490,3514.9
351618,3516.18
351749,3517.49
351872,3518.72
351984,3519.84
352113,3521.13
352238,3522.38
352352,3523.52
352467,3524.67
352592,3525.92
352715,3527.15
352837,3528.37
352968,3529.68
353092,3530.92
353212,3532.12
353337,3533.37
353464,3534.64
353580,3535.8
353699,3536.99
353824,3538.24
353939,3539.39
354048,3540.48
354171,3541.71
354298,3542.98
354415,3544.15
354534,3545.34
354669,3546.69
354790,3547.9
354904,3549.04
355021,3550.21
355149,3551.49
355274,3552.74
355406,3554.06
355537,3555.37
355660,3556.6
355774,3557.74
355902,3559.02
356023,3560.23
356142,3561.42
356265,3562.65
356391,3563.91
356509,3565.09
356616,3566.16
356736,3567.36
356860,3568.6
356981,3569.81
357090,3570.9
357212,3572.12
357339,3573.39
357456,3574.56
357561,3575.61
357675,3576.75
357805,3578.05
357929,3579.29
358046,3580.46
358175,3581.75
358299,3582.99
358419,3584.19
358542,3585.42
358666,3586.66
358789,3587.89
358915,3589.15
359041,3590.41
359160,3591.6
359268,3592.68
359382,3593.82
359518,3595.18
359642,3596.42
359760,3597.6
359887,3598.87
360009,3600.09
360119,3601.19
360227,3602.27
360338,3603.38
360452,3604.52
360562,3605.62
360678,3606.78
360808,3608.08
360934,3609.34
361051,3610.51
361172,3611.72
361294,3612.94
361409,3614.09
361518,3615.18
361638,3616.38
361758,3617.58
361872,3618.72
361997,3619.97
362118,3621.18
362227,3622.27
362330,3623.3
362469,3624.69
362596,3625.96
362720,3627.2
362854,3628.54
362984,3629.84
363106,3631.06
363240,3632.4
363365,3633.65
363483,3634.83
363611,3636.11
363740,3637.4
363861,3638.61
363974,3639.74
364091,3640.91
364217,3642.17
364337,3643.37
364458,3644.58
364588,3645.88
364713,3647.13
364833,3648.33
364966,3649.66
365093,3650.93
365214,3652.14
365350,3653.5
365481,3654.81
365607,3656.07
365725,3657.25
365849,3658.49
365973,3659.73
366091,3660.91
366215,3662.15
366342,3663.42
366468,3664.68
366582,3665.82
366693,3666.93
366810,3668.1
366926,3669.26
367031,3670.31
367139,3671.39
367251,3672.51
367363,3673.63
367465,3674.65
367579,3675.79
367710,3677.1
367834,3678.34
367953,3679.53
368079,3680.79
368202,3682.02
368315,3683.15
368438,3684.38
368554,3685.54
368662,3686.62
368779,3687.79
368902,3689.02
369014,3690.14
369125,3691.25
369245,3692.45
369368,3693.68
369480,3694.8
369590,3695.9
369707,3697.07
369825,3698.25
369942,3699.42
370053,3700.53
370181,3701.81
370310,3703.1
370421,3704.21
370548,3705.48
370675,3706.75
370786,3707.86
370898,3708.98
371016,3710.16
371132,3711.32
371243,3712.43
371352,3713.52
371469,3714.69
371582,3715.82
371689,3716.89
371801,3718.01
371928,3719.28
372053,3720.53
372169,3721.69
372297,3722.97
372420,3724.2
372538,3725.38
372663,3726.63
372790,3727.9
372910,3729.1
373023,3730.23
373145,3731.45
373271,3732.71
373392,3733.92
373520,3735.2
373647,3736.47
373766,3737.66
373873,3738.73
373977,3739.77
374091,3740.91
374211,3742.11
374327,3743.27
374452,3744.52
374580,3745.8
374701,3747.01
374819,3748.19
374941,3749.41
375053,3750.53
375157,3751.57
375266,3752.66
375378,3753.78
375482,3754.82
375610,3756.1
375734,3757.34
375849,3758.49
375960,3759.6
376082,3760.82
376205,3762.05
376320,3763.2
376437,3764.37
376555,3765.55
376670,3766.7
376780,3767.8
376892,3768.92
377021,3770.21
377142,3771.42
377253,3772.53
377371,3773.71
377489,3774.89
377600,3776.0
377705,3777.05
377834,3778.34
377960,3779.6
378074,3780.74
378185,3781.85
378296,3782.96
378412,3784.12
378524,3785.24
378653,3786.53
378777,3787.77
378898,3788.98
379008,3790.08
379127,3791.27
379252,3792.52
379374,3793.74
379491,3794.91
379625,3796.25
379759,3797.59
379872,3798.72
379986,3799.86
380118,3801.18
380241,3802.41
380361,3803.61
380496,3804.96
380625,3806.25
380745,3807.45
380870,3808.7
380997,3809.97
381118,3811.18
381233,3812.33
381356,3813.56
381476,3814.76
381589,3815.89
381701,3817.01
381825,3818.25
381940,3819.4
382054,3820.54
382169,3821.69
382281,3822.81
382385,3823.85
382494,3824.94
382610,3826.1
382723,3827.23
382828,3828.28
382943,3829.43
383074,3830.74
383195,3831.95
383325,3833.25
383455,3834.55
383580,3835.8
383698,3836.98
383822,3838.22
383942,3839.42
384055,3840.55
384166,3841.66
384288,3842.88
384406,3844.06
384516,3845.16
384630,3846.3
384748,3847.48
384864,3848.64
384973,3849.73
385091,3850.91
385207,3852.07
385316,3853.16
385424,3854.24
385539,3855.39
385662,3856.62
385784,3857.84
385902,3859.02
386017,3860.17
386123,3861.23
386248,3862.48
386373,3863.73
386493,3864.93
386612,3866.12
386737,3867.37
386857,3868.57
386967,3869.67
387097,3870.97
387225,3872.25
387345,3873.45
387464,3874.64
387587,3875.87
387708,3877.08
387819,3878.19
387934,3879.34
388051,3880.51
388167,3881.67
388275,3882.75
388394,3883.94
388521,3885.21
388639,3886.39
388750,3887.5
388860,3888.6
388980,3889.8
389096,3890.96
389205,3892.05
389340,3893.4
389475,3894.75
389592,3895.92
389715,3897.15
389836,3898.36
389954,3899.54
390065,3900.65
390182,3901.82
390306,3903.06
390425,3904.25
390550,3905.5
390666,3906.66
390772,3907.72
390881,3908.81
390997,3909.97
391120,3911.2
391239,3912.39
391367,3913.67
391496,3914.96
391621,3916.21
391740,3917.4
391866,3918.66
391988,3919.88
392105,3921.05
392220,3922.2
392336,3923.36
392449,3924.49
392553,3925.53
392681,3926.81
392811,3928.11
392934,3929.34
393048,3930.48
393164,3931.64
393280,3932.8
393390,3933.9
393497,3934.97
393613,3936.13
393732,3937.32
393847,3938.47
393963,3939.63
394080,3940.8
394189,3941.89
394298,3942.98
394408,3944.08
394525,3945.25
394643,3946.43
394768,3947.68
394889,3948.89
395003,3950.03
395117,3951.17
395230,3952.3
395338,3953.38
395445,3954.45
395561,3955.61
395676,3956.76
395787,3957.87
395899,3958.99
396019,3960.19
396145,3961.45
396258,3962.58
396369,3963.69
396478,3964.78
396588,3965.88
396696,3966.96
396817,3968.17
396955,3969.55
397083,3970.83
397207,3972.07
397331,3973.31
397444,3974.44
397549,3975.49
397676,3976.76
397802,3978.02
397917,3979.17
398033,3980.33
398155,3981.55
398275,3982.75
398389,3983.89
398504,3985.04
398619,3986.19
398727,3987.27
398850,3988.5
398980,3989.8
399109,3991.09
399230,3992.3
399359,3993.59
399487,3994.87
399603,3996.03
399724,3997.24
399859,3998.59
399974,3999.74
400087,4000.87
400210,4002.1
400338,4003.38
400457,4004.57
400587,4005.87
400714,4007.14
400831,4008.31
400960,4009.6
401089,4010.89
401212,4012.12
401331,4013.31
401458,4014.58
401578,4015.78
401686,4016.86
401795,4017.95
401906,4019.06
402014,4020.14
402120,4021.2
402245,4022.45
402371,4023.71
402492,4024.92
402613,4026.13
402739,4027.39
402859,4028.59
402970,4029.7
403091,4030.91
403217,4032.17
403333,4033.33
403456,4034.56
403589,4035.89
403710,4037.1
403823,4038.23
403947,4039.47
404065,4040.65
404175,4041.75
404286,4042.86
404404,4044.04
404523,4045.23
404632,4046.32
404747,4047.47
404865,4048.65
404976,4049.76
405088,4050.88
405214,4052.14
405339,4053.39
405451,4054.51
405574,4055.74
405696,4056.96
405807,4058.07
405926,4059.26
406051,4060.51
406166,4061.66
406273,4062.73
406379,4063.79
406500,4065.0
406613,4066.13
406740,4067.4
406861,4068.61
406968,4069.68
407075,4070.75
407183,4071.83
407296,4072.96
407411,4074.11
407540,4075.4
407665,4076.65
407781,4077.81
407899,4078.99
408027,4080.27
408144,4081.44
408251,4082.51
408368,4083.68
408487,4084.87
408600,4086.0
408707,4087.07
408816,4088.16
408924,4089.24
409026,4090.26
409136,4091.36
409254,4092.54
409370,4093.7
409483,4094.83
409611,4096.11
409733,4097.33
409846,4098.46
409961,4099.61
410082,4100.82
410200,4102.0
410317,4103.17
410453,4104.53
410581,4105.81
410698,4106.98
410810,4108.1
410947,4109.47
411072,4110.72
411185,4111.85
411310,4113.1
411434,4114.34
411546,4115.46
411656,4116.56
411759,4117.59
411867,4118.67
411975,4119.75
412087,4120.87
412212,4122.12
412335,4123.35
412446,4124.46
412553,4125.53
412667,4126.67
412783,4127.83
412905,4129.05
413039,4130.39
413160,4131.6
413272,4132.72
413393,4133.93
413519,4135.19
413639,4136.39
413761,4137.61
413883,4138.83
413993,4139.93
414105,4141.05
414235,4142.35
414360,4143.6
414475,4144.75
414586,4145.86
414694,4146.94
414807,4148.07
414935,4149.35
415075,4150.75
415207,4152.07
415335,4153.35
415465,4154.65
415589,4155.89
415708,4157.08
415822,4158.22
415951,4159.51
416073,4160.73
416183,4161.83
416297,4162.97
416411,4164.11
416517,4165.17
416619,4166.19
416732,4167.32
416860,4168.6
416980,4169.8
417103,4171.03
417229,4172.29
417350,4173.5
417457,4174.57
417565,4175.65
417675,4176.75
417790,4177.9
417896,4178.96
418030,4180.3
418165,4181.65
418282,4182.82
418396,4183.96
418514,4185.14
418635,4186.35
418743,4187.43
418858,4188.58
418980,4189.8
419096,4190.96
419206,4192.06
419325,4193.25
419451,4194.51
419568,4195.68
419673,4196.73
419780,4197.8
419905,4199.05
420019,4200.19
420131,4201.31
420266,4202.66
420399,4203.99
420521,4205.21
420657,4206.57
420786,4207.86
420912,4209.12
421040,4210.4
421162,4211.62
421279,4212.79
421403,4214.03
421520,4215.2
421627,4216.27
421734,4217.34
421846,4218.46
421964,4219.64
422080,4220.8
422187,4221.87
422301,4223.01
422430,4224.3
422552,4225.52
422665,4226.65
422794,4227.94
422918,4229.18
423032,4230.32
423147,4231.47
423276,4232.76
423397,4233.97
423513,4235.13
423640,4236.4
423762,4237.62
423874,4238.74
423990,4239.9
424117,4241.17
424243,4242.43
424355,4243.55
424488,4244.88
424621,4246.21
424743,4247.43
424858,4248.58
424986,4249.86
425112,4251.12
425225,4252.25
425337,4253.37
425456,4254.56
425572,4255.72
425681,4256.81
425800,4258.0
425918,4259.18
426023,4260.23
426133,4261.33
426262,4262.62
426381,4263.81
426485,4264.85
426590,4265.9
426690,4266.9
426786,4267.86
426885,4268.85
427005,4270.05
427131,4271.31
427246,4272.46
427372,4273.72
427495,4274.95
427606,4276.06
427715,4277.15
427841,4278.41
427968,4279.68
428086,4280.86
428205,4282.05
428331,4283.31
428448,4284.48
428561,4285.61
428679,4286.79
428791,4287.91
428899,4288.99
429038,4290.38
429163,4291.63
429278,4292.78
429390,4293.9
429516,4295.16
429641,4296.41
429756,4297.56
429867,4298.67
429983,4299.83
430101,4301.01
430213,4302.13
430332,4303.32
430453,4304.53
430568,4305.68
430691,4306.91
430806,4308.06
430920,4309.2
431027,4310.27
431132,4311.32
431249,4312.49
431379,4313.79
431499,4314.99
431625,4316.25
431753,4317.53
431875,4318.75
431987,4319.87
432109,4321.09
432232,4322.32
432356,4323.56
432469,4324.69
432595,4325.95
432727,4327.27
432850,4328.5
432972,4329.72
433096,4330.96
433219,4332.19
433332,4333.32
433448,4334.48
433573,4335.73
433693,4336.93
433809,4338.09
433935,4339.35
434051,4340.51
434162,4341.62
434278,4342.78
434399,4343.99
434513,4345.13
434623,4346.23
434737,4347.37
434857,4348.57
434971,4349.71
435090,4350.9
435207,4352.07
435318,4353.18
435421,4354.21
435528,4355.28
435654,4356.54
435777,4357.77
435892,4358.92
436010,4360.1
436124,4361.24
436230,4362.3
436341,4363.41
436466,4364.66
436592,4365.92
436703,4367.03
436820,4368.2
436938,4369.38
437053,4370.53
437165,4371.65
437303,4373.03
437430,4374.3
437549,4375.49
437672,4376.72
437791,4377.91
437908,4379.08
438031,4380.31
438153,4381.53
438266,4382.66
438371,4383.71
438484,4384.84
438610,4386.1
438725,4387.25
438840,4388.4
438948,4389.48
439052,4390.52
439154,4391.54
439274,4392.74
439400,4394.0
439517,4395.17
439638,4396.38
439761,4397.61
439878,4398.78
439983,4399.83
440098,4400.98
440219,4402.19
440334,4403.34
440452,4404.52
440574,4405.74
440697,4406.97
440813,4408.13
440936,4409.36
441058,4410.58
441165,4411.65
441264,4412.64
441366,4413.66
441474,4414.74
441608,4416.08
441733,4417.33
441867,4418.67
441989,4419.89
442108,4421.08
442238,4422.38
442355,4423.55
442463,4424.63
442566,4425.66
442680,4426.8
442805,4428.05
442930,4429.3
443043,4430.43
443168,4431.68
443295,4432.95
443416,4434.16
443530,4435.3
443646,4436.46
443764,4437.64
443874,4438.74
443982,4439.82
444091,4440.91
444199,4441.99
444300,4443.0
444408,4444.08
444540,4445.4
444658,4446.58
444762,4447.62
444864,4448.64
444974,4449.74
445079,4450.79
445179,4451.79
445302,4453.02
445436,4454.36
445560,4455.6
445672,4456.72
445789,4457.89
445907,4459.07
446021,4460.21
446136,4461.36
446260,4462.6
446382,4463.82
446493,4464.93
446595,4465.95
446697,4466.97
446803,4468.03
446906,4469.06
447004,4470.04
447155,4471.55
447289,4472.89
447410,4474.1
447534,4475.34
447660,4476.6
447772,4477.72
447874,4478.74
447984,4479.84
448107,4481.07
448232,4482.32
448360,4483.6
448489,4484.89
448600,4486.0
448702,4487.02
448815,4488.15
448943,4489.43
449065,4490.65
449178,4491.78
449288,4492.88
449400,4494.0
449511,4495.11
449619,4496.19
449743,4497.43
449871,4498.71
449985,4499.85
450105,4501.05
450226,4502.26
450340,4503.4
450465,4504.65
450584,4505.84
450695,4506.95
450800,4508.0
450911,4509.11
451032,4510.32
451149,4511.49
451256,4512.56
451364,4513.64
451483,4514.83
451599,4515.99
451717,4517.17
451844,4518.44
451961,4519.61
452079,4520.79
452209,4522.09
452329,4523.29
452441,4524.41
452548,4525.48
452655,4526.55
452791,4527.91
452917,4529.17
453044,4530.44
453158,4531.58
453262,4532.62
453366,4533.66
453475,4534.75
453585,4535.85
453691,4536.91
453803,4538.03
453918,4539.18
454030,4540.3
454132,4541.32
454230,4542.3
454336,4543.36
454442,4544.42
454548,4545.48
454695,4546.95
454824,4548.24
454942,4549.42
455062,4550.62
455187,4551.87
455307,4553.07
455415,4554.15
455556,4555.56
455698,4556.98
455814,4558.14
455936,4559.36
456059,4560.59
456178,4561.78
456292,4562.92
456425,4564.25
456547,4565.47
456653,4566.53
456756,4567.56
456873,4568.73
457003,4570.03
457120,4571.2
457240,4572.4
457353,4573.53
457459,4574.59
457586,4575.86
457712,4577.12
457833,4578.33
457944,4579.44
458053,4580.53
458159,4581.59
458256,4582.56
458405,4584.05
458535,4585.35
458651,4586.51
458781,4587.81
458912,4589.12
459030,4590.3
459135,4591.35
459246,4592.46
459374,4593.74
459495,4594.95
459607,4596.07
459720,4597.2
459835,4598.35
459946,4599.46
460065,4600.65
460186,4601.86
460304,4603.04
460419,4604.19
460533,4605.33
460643,4606.43
460747,4607.47
460862,4608.62
460992,4609.92
461112,4611.12
461219,4612.19
461322,4613.22
461423,4614.23
461528,4615.28
461633,4616.33
461732,4617.32
461877,4618.77
462023,4620.23
462137,4621.37
462253,4622.53
462369,4623.69
462484,4624.84
462593,4625.93
462734,4627.34
462864,4628.64
462977,4629.77
463098,4630.98
463227,4632.27
463348,4633.48
463463,4634.63
463583,4635.83
463701,4637.01
463808,4638.08
463909,4639.09
464012,4640.12
464122,4641.22
464235,4642.35
464340,4643.4
464448,4644.48
464563,4645.63
464678,4646.78
464785,4647.85
464894,4648.94
465008,4650.08
465124,4651.24
465233,4652.33
465348,4653.48
465470,4654.7
465585,4655.85
465690,4656.9
465794,4657.94
465902,4659.02
466002,4660.02
466102,4661.02
466204,4662.04
466311,4663.11
466420,4664.2
466524,4665.24
466665,4666.65
466807,4668.07
466914,4669.14
467022,4670.22
467144,4671.44
467269,4672.69
467381,4673.81
467491,4674.91
467603,4676.03
467719,4677.19
467830,4678.3
467965,4679.65
468090,4680.9
468201,4682.01
468304,4683.04
468413,4684.13
468538,4685.38
468658,4686.58
468775,4687.75
468900,4689.0
469023,4690.23
469132,4691.32
469247,4692.47
469367,4693.67
469484,4694.84
469599,4695.99
469708,4697.08
469822,4698.22
469937,4699.37
470045,4700.45
470155,4701.55
470269,4702.69
470389,4703.89
470500,4705.0
470602,4706.02
470702,4707.02
470814,4708.14
470951,4709.51
471079,4710.79
471217,4712.17
471346,4713.46
471462,4714.62
471583,4715.83
471704,4717.04
471818,4718.18
471921,4719.21
472029,4720.29
472165,4721.65
472287,4722.87
472408,4724.08
472527,4725.27
472644,4726.44
472754,4727.54
472862,4728.62
472976,4729.76
473092,4730.92
473204,4732.04
473305,4733.05
473409,4734.09
473517,4735.17
473615,4736.15
473721,4737.21
473836,4738.36
473970,4739.7
474096,4740.96
474215,4742.15
474328,4743.28
474433,4744.33
474541,4745.41
474643,4746.43
474747,4747.47
474896,4748.96
475045,4750.45
475176,4751.76
475302,4753.02
475418,4754.18
475536,4755.36
475642,4756.42
475744,4757.44
475886,4758.86
476028,4760.28
476147,4761.47
476264,4762.64
476380,4763.8
476487,4764.87
476592,4765.92
476698,4766.98
476806,4768.06
476913,4769.13
477019,4770.19
477131,4771.31
477261,4772.61
477377,4773.77
477481,4774.81
477580,4775.8
477688,4776.88
477826,4778.26
477946,4779.46
478061,4780.61
478181,4781.81
478305,4783.05
478421,4784.21
478534,4785.34
478649,4786.49
478765,4787.65
478876,4788.76
478988,4789.88
479110,4791.1
479230,4792.3
479345,4793.45
479461,4794.61
479577,4795.77
479687,4796.87
479792,4797.92
479896,4798.96
480002,4800.02
480099,4800.99
480196,4801.96
480300,4803.0
480404,4804.04
480504,4805.04
480599,4805.99
480700,4807.0
480821,4808.21
480952,4809.52
481065,4810.65
481169,4811.69
481268,4812.68
481371,4813.71
481473,4814.73
481575,4815.75
481652,4816.52
481730,4817.3
481858,4818.58
481969,4819.69
482068,4820.68
482167,4821.67
482264,4822.64
482368,4823.68
482519,4825.19
482656,4826.56
482781,4827.81
482909,4829.09
483034,4830.34
483152,4831.52
483260,4832.6
483367,4833.67
483470,4834.7
483611,4836.11
483733,4837.33
483851,4838.51
483972,4839.72
484089,4840.89
484207,4842.07
484327,4843.27
484440,4844.4
484542,4845.42
484640,4846.4
484736,4847.36
484832,4848.32
484926,4849.26
485019,4850.19
485121,4851.21
485243,4852.43
485373,4853.73
485491,4854.91
485615,4856.15
485737,4857.37
485849,4858.49
485953,4859.53
486054,4860.54
486158,4861.58
486274,4862.74
486386,4863.86
486500,4865.0
486627,4866.27
486751,4867.51
486855,4868.55
486948,4869.48
487041,4870.41
487158,4871.58
487298,4872.98
487431,4874.31
487551,4875.51
487653,4876.53
487744,4877.44
487840,4878.4
487996,4879.96
488130,4881.3
488245,4882.45
488371,4883.71
488500,4885.0
488623,4886.23
488744,4887.44
488864,4888.64
488975,4889.75
489078,4890.78
489176,4891.76
489279,4892.79
489381,4893.81
489483,4894.83
489597,4895.97
489736,4897.36
489856,4898.56
489968,4899.68
490071,4900.71
490168,4901.68
490262,4902.62
490356,4903.56
490465,4904.65
490611,4906.11
490737,4907.37
490840,4908.4
490934,4909.34
491026,4910.26
491121,4911.21
491216,4912.16
491329,4913.29
491477,4914.77
491610,4916.1
491732,4917.32
491846,4918.46
491954,4919.54
492050,4920.5
492140,4921.4
492230,4922.3
492323,4923.23
492422,4924.22
492523,4925.23
492634,4926.34
492774,4927.74
492896,4928.96
492996,4929.96
493089,4930.89
493178,4931.78
493273,4932.73
493367,4933.67
493460,4934.6
493559,4935.59
493662,4936.62
493759,4937.59
493853,4938.53
493955,4939.55
494061,4940.61
494164,4941.64
494258,4942.58
494352,4943.52
494445,4944.45
494541,4945.41
494635,4946.35
494725,4947.25
494821,4948.21
494923,4949.23
495025,4950.25
495122,4951.22
495226,4952.26
495347,4953.47
495479,4954.79
495596,4955.96
495696,4956.96
495788,4957.88
495878,4958.78
495967,4959.67
496057,4960.57
496148,4961.48
496245,4962.45
496333,4963.33
496421,4964.21
496511,4965.11
496609,4966.09
496705,4967.05
496805,4968.05
496899,4968.99
496991,4969.91
497086,4970.86
497194,4971.94
497288,4972.88
497382,4973.82
497481,4974.81
497593,4975.93
497699,4976.99
497802,4978.02
497904,4979.04
498008,4980.08
498105,4981.05
498193,4981.93
498280,4982.8
498368,4983.68
498463,4984.63
498563,4985.63
498641,4986.41
498719,4987.19
498858,4988.58
498971,4989.71
499075,4990.75
499175,4991.75
499284,4992.84
499386,4993.86
499485,4994.85
499563,4995.63
499641,4996.41
499768,4997.68
499868,4998.68
499956,4999.56
500043,5000.43
500136,5001.36
500211,5002.11
500287,5002.87
500412,5004.12
500520,5005.2
500618,5006.18
500712,5007.12
500804,5008.04
500896,5008.96
500995,5009.95
501102,5011.02
501202,5012.02
501302,5013.02
501403,5014.03
501504,5015.04
501602,5016.02
501692,5016.92
501780,5017.8
501868,5018.68
501963,5019.63
502061,5020.61
502155,5021.55
502254,5022.54
502361,5023.61
502434,5024.34
502508,5025.08
502622,5026.22
502713,5027.13
502796,5027.96
502873,5028.73
502949,5029.49
503026,5030.26
503104,5031.04
503181,5031.81
503262,5032.62
503340,5033.4
503416,5034.16
503493,5034.93
503570,5035.7
503646,5036.46
503722,5037.22
503793,5037.93
503865,5038.65
503937,5039.37
504009,5040.09
504078,5040.78
504147,5041.47
504214,5042.14
504281,5042.81
504346,5043.46
504411,5044.11
504469,5044.69
504537,5045.37
504606,5046.06
504669,5046.69
504732,5047.32
504796,5047.96
504858,5048.58
504920,5049.2
504982,5049.82
505045,5050.45
505108,5051.08
505170,5051.7
505232,5052.32
505295,5052.95
505358,5053.58
505422,5054.22
505487,5054.87
505553,5055.53
505620,5056.2
505689,5056.89
505762,5057.62
505835,5058.35
505906,5059.06
505976,5059.76
506046,5060.46
506116,5061.16
506186,5061.86
506257,5062.57
506329,5063.29
506400,5064.0
506471,5064.71
506540,5065.4
506609,5066.09
506679,5066.79
506749,5067.49
506820,5068.2
506892,5068.92
506963,5069.63
507034,5070.34
507104,5071.04
507176,5071.76
507247,5072.47
507319,5073.19
507389,5073.89
507460,5074.6
507530,5075.3
507599,5075.99
507671,5076.71
507743,5077.43
507818,5078.18
507894,5078.94
507973,5079.73
508051,5080.51
508128,5081.28
508205,5082.05
508284,5082.84
508363,5083.63
508440,5084.4
508518,5085.18
508602,5086.02
508743,5087.43
508884,5088.84
509008,5090.08
509113,5091.13
509219,5092.19
509346,5093.46
509474,5094.74
509576,5095.76
509672,5096.72
509771,5097.71
509872,5098.72
509971,5099.71
510068,5100.68
510213,5102.13
510314,5103.14
510399,5103.99
510478,5104.78
510555,5105.55
510643,5106.43
510710,5107.1
510825,5108.25
510925,5109.25
511028,5110.28
511129,5111.29
511236,5112.36
511379,5113.79
511511,5115.11
511620,5116.2
511713,5117.13
511812,5118.12
511918,5119.18
512068,5120.68
512192,5121.92
512290,5122.9
512384,5123.84
512479,5124.79
512575,5125.75
512674,5126.74
512774,5127.74
512926,5129.26
513056,5130.56
513154,5131.54
513249,5132.49
513361,5133.61
513494,5134.94
513595,5135.95
513691,5136.91
513792,5137.92
513944,5139.44
514070,5140.7
514180,5141.8
514304,5143.04
514425,5144.25
514523,5145.23
514611,5146.11
514699,5146.99
514789,5147.89
514876,5148.76
514962,5149.62
515045,5150.45
515126,5151.26
515207,5152.07
515289,5152.89
515368,5153.68
515447,5154.47
515535,5155.35
515626,5156.26
515698,5156.98
515808,5158.08
515918,5159.18
516012,5160.12
516123,5161.23
516264,5162.64
516392,5163.92
516505,5165.05
516623,5166.23
516748,5167.48
516855,5168.55
516949,5169.49
517047,5170.47
517156,5171.56
517301,5173.01
517424,5174.24
517540,5175.4
517666,5176.66
517765,5177.65
517855,5178.55
517942,5179.42
518031,5180.31
518119,5181.19
518214,5182.14
518300,5183.0
518400,5184.0
518565,5185.65
518711,5187.11
518843,5188.43
518968,5189.68
519102,5191.02
519231,5192.31
519343,5193.43
519441,5194.41
519546,5195.46
519653,5196.53
519756,5197.56
519853,5198.53
519949,5199.49
520097,5200.97
520229,5202.29
520347,5203.47
520446,5204.46
520542,5205.42
520642,5206.42
520789,5207.89
520909,5209.09
521024,5210.24
521145,5211.45
521261,5212.61
521362,5213.62
521469,5214.69
521609,5216.09
521734,5217.34
521839,5218.39
521943,5219.43
522054,5220.54
522177,5221.77
522294,5222.94
522419,5224.19
522548,5225.48
522663,5226.63
522760,5227.6
522852,5228.52
522954,5229.54
523101,5231.01
523220,5232.2
523320,5233.2
523412,5234.12
523502,5235.02
523587,5235.87
523669,5236.69
523754,5237.54
523847,5238.47
523934,5239.34
524020,5240.2
524108,5241.08
524194,5241.94
524280,5242.8
524365,5243.65
524447,5244.47
524525,5245.25
524607,5246.07
524691,5246.91
524783,5247.83
524936,5249.36
525074,5250.74
525216,5252.16
525354,5253.54
525483,5254.83
525604,5256.04
525732,5257.32
525857,5258.57
525981,5259.81
526089,5260.89
526194,5261.94
526298,5262.98
526412,5264.12
526548,5265.48
526677,5266.77
526807,5268.07
526937,5269.37
527049,5270.49
527146,5271.46
527245,5272.45
527397,5273.97
527523,5275.23
527626,5276.26
527749,5277.49
527886,5278.86
528006,5280.06
528105,5281.05
528202,5282.02
528301,5283.01
528403,5284.03
528499,5284.99
528598,5285.98
528704,5287.04
528844,5288.44
528967,5289.67
529073,5290.73
529166,5291.66
529255,5292.55
529341,5293.41
529425,5294.25
529513,5295.13
529589,5295.89
529666,5296.66
529768,5297.68
529855,5298.55
529938,5299.38
530016,5300.16
530098,5300.98
530191,5301.91
530353,5303.53
530498,5304.98
530633,5306.33
530776,5307.76
530913,5309.13
531048,5310.48
531165,5311.65
531307,5313.07
531431,5314.31
531555,5315.55
531665,5316.65
531811,5318.11
531947,5319.47
532072,5320.72
532184,5321.84
532311,5323.11
532433,5324.33
532555,5325.55
532664,5326.64
532803,5328.03
532943,5329.43
533057,5330.57
533158,5331.58
533271,5332.71
533398,5333.98
533525,5335.25
533629,5336.29
533729,5337.29
533835,5338.35
533940,5339.4
534036,5340.36
534142,5341.42
534258,5342.58
534386,5343.86
534493,5344.93
534591,5345.91
534698,5346.98
534798,5347.98
534894,5348.94
534989,5349.89
535066,5350.66
535143,5351.43
535202,5352.02
535262,5352.62
535354,5353.54
535440,5354.4
535525,5355.25
535622,5356.22
535713,5357.13
535799,5357.99
535881,5358.81
535970,5359.7
536071,5360.71
536165,5361.65
536258,5362.58
536419,5364.19
536571,5365.71
536714,5367.14
536850,5368.5
536990,5369.9
537127,5371.27
537264,5372.64
537391,5373.91
537520,5375.2
537645,5376.45
537760,5377.6
537863,5378.63
538001,5380.01
538139,5381.39
538266,5382.66
538380,5383.8
538484,5384.84
538586,5385.86
538692,5386.92
538803,5388.03
538912,5389.12
539030,5390.3
539162,5391.62
539278,5392.78
539376,5393.76
539474,5394.74
539576,5395.76
539675,5396.75
539771,5397.71
539870,5398.7
539976,5399.76
540115,5401.15
540240,5402.4
540364,5403.64
540465,5404.65
540561,5405.61
540658,5406.58
540757,5407.57
540855,5408.55
540953,5409.53
541109,5411.09
541243,5412.43
541365,5413.65
541491,5414.91
541623,5416.23
541747,5417.47
541850,5418.5
541945,5419.45
542041,5420.41
542144,5421.44
542247,5422.47
542403,5424.03
542547,5425.47
542679,5426.79
542802,5428.02
542938,5429.38
543062,5430.62
543167,5431.67
543276,5432.76
543422,5434.22
543550,5435.5
543664,5436.64
543799,5437.99
543921,5439.21
544030,5440.3
544142,5441.42
544260,5442.6
544391,5443.91
544506,5445.06
544606,5446.06
544702,5447.02
544799,5447.99
544897,5448.97
544992,5449.92
545092,5450.92
545203,5452.03
545349,5453.49
545479,5454.79
545587,5455.87
545689,5456.89
545796,5457.96
545910,5459.1
546021,5460.21
546163,5461.63
546301,5463.01
546412,5464.12
546510,5465.1
546604,5466.04
546707,5467.07
546810,5468.1
546910,5469.1
547009,5470.09
547115,5471.15
547268,5472.68
547390,5473.9
547507,5475.07
547623,5476.23
547734,5477.34
547883,5478.83
548020,5480.2
548146,5481.46
548254,5482.54
548377,5483.77
548511,5485.11
548627,5486.27
548729,5487.29
548833,5488.33
548984,5489.84
549113,5491.13
549218,5492.18
549320,5493.2
549423,5494.23
549525,5495.25
549623,5496.23
549724,5497.24
549836,5498.36
549977,5499.77
550094,5500.94
550207,5502.07
550313,5503.13
550410,5504.1
550521,5505.21
550638,5506.38
550761,5507.61
550875,5508.75
551005,5510.05
551134,5511.34
551247,5512.47
551356,5513.56
551468,5514.68
551573,5515.73
551669,5516.69
551776,5517.76
551933,5519.33
552075,5520.75
552205,5522.05
552330,5523.3
552457,5524.57
552575,5525.75
552676,5526.76
552767,5527.67
552866,5528.66
553023,5530.23
553155,5531.55
553263,5532.63
553379,5533.79
553509,5535.09
553625,5536.25
553721,5537.21
553814,5538.14
553904,5539.04
553998,5539.98
554092,5540.92
554188,5541.88
554348,5543.48
554483,5544.83
554592,5545.92
554689,5546.89
554784,5547.84
554882,5548.82
554978,5549.78
555070,5550.7
555167,5551.67
555271,5552.71
555377,5553.77
555475,5554.75
555568,5555.68
555661,5556.61
555755,5557.55
555852,5558.52
555947,5559.47
556043,5560.43
556145,5561.45
556249,5562.49
556352,5563.52
556447,5564.47
556544,5565.44
556644,5566.44
556746,5567.46
556842,5568.42
556939,5569.39
557038,5570.38
557146,5571.46
557250,5572.5
557348,5573.48
557456,5574.56
557605,5576.05
557732,5577.32
557837,5578.37
557934,5579.34
558029,5580.29
558123,5581.23
558217,5582.17
558322,5583.22
558476,5584.76
558609,5586.09
558726,5587.26
558865,5588.65
558998,5589.98
559111,5591.11
559227,5592.27
559358,5593.58
559479,5594.79
559581,5595.81
559675,5596.75
559772,5597.72
559873,5598.73
559974,5599.74
560070,5600.7
560174,5601.74
560276,5602.76
560380,5603.8
560478,5604.78
560580,5605.8
560683,5606.83
560788,5607.88
560889,5608.89
560984,5609.84
561083,5610.83
561184,5611.84
561293,5612.93
561391,5613.91
561481,5614.81
561573,5615.73
561669,5616.69
561779,5617.79
561917,5619.17
562032,5620.32
562141,5621.41
562250,5622.5
562349,5623.49
562442,5624.42
562541,5625.41
562695,5626.95
562822,5628.22
562921,5629.21
563013,5630.13
563113,5631.13
563226,5632.26
563340,5633.4
563468,5634.68
563609,5636.09
563731,5637.31
563831,5638.31
563927,5639.27
564020,5640.2
564118,5641.18
564220,5642.2
564323,5643.23
564447,5644.47
564583,5645.83
564700,5647.0
564810,5648.1
564909,5649.09
565003,5650.03
565094,5650.94
565187,5651.87
565281,5652.81
565385,5653.85
565485,5654.85
565585,5655.85
565689,5656.89
565843,5658.43
565967,5659.67
566077,5660.77
566177,5661.77
566276,5662.76
566371,5663.71
566466,5664.66
566576,5665.76
566725,5667.25
566850,5668.5
566953,5669.53
567050,5670.5
567149,5671.49
567248,5672.48
567348,5673.48
567446,5674.46
567601,5676.01
567736,5677.36
567844,5678.44
567945,5679.45
568043,5680.43
568151,5681.51
568252,5682.52
568350,5683.5
568463,5684.63
568597,5685.97
568721,5687.21
568847,5688.47
568975,5689.75
569082,5690.82
569179,5691.79
569277,5692.77
569390,5693.9
569535,5695.35
569655,5696.55
569790,5697.9
569916,5699.16
570024,5700.24
570115,5701.15
570206,5702.06
570301,5703.01
570459,5704.59
570591,5705.91
570715,5707.15
570853,5708.53
570978,5709.78
571082,5710.82
571185,5711.85
571287,5712.87
571387,5713.87
571485,5714.85
571588,5715.88
571707,5717.07
571839,5718.39
571944,5719.44
572038,5720.38
572129,5721.29
572219,5722.19
572309,5723.09
572412,5724.12
572557,5725.57
572678,5726.78
572791,5727.91
572897,5728.97
572991,5729.91
573083,5730.83
573178,5731.78
573275,5732.75
573382,5733.82
573485,5734.85
573581,5735.81
573685,5736.85
573796,5737.96
573910,5739.1
574006,5740.06
574102,5741.02
574198,5741.98
574296,5742.96
574399,5743.99
574495,5744.95
574595,5745.95
574703,5747.03
574851,5748.51
574977,5749.77
575103,5751.03
575219,5752.19
575317,5753.17
575408,5754.08
575501,5755.01
575601,5756.01
575701,5757.01
575798,5757.98
575903,5759.03
576020,5760.2
576140,5761.4
576249,5762.49
576348,5763.48
576440,5764.4
576527,5765.27
576610,5766.1
576694,5766.94
576789,5767.89
576882,5768.82
576977,5769.77
577076,5770.76
577172,5771.72
577262,5772.62
577352,5773.52
577446,5774.46
577538,5775.38
577628,5776.28
577728,5777.28
577807,5778.07
577886,5778.86
578020,5780.2
578157,5781.57
578294,5782.94
578426,5784.26
578531,5785.31
578632,5786.32
578738,5787.38
578812,5788.12
578886,5788.86
579016,5790.16
579121,5791.21
579221,5792.21
579324,5793.24
579427,5794.27
579525,5795.25
579627,5796.27
579728,5797.28
579830,5798.3
579931,5799.31
580030,5800.3
580145,5801.45
580279,5802.79
580413,5804.13
580514,5805.14
580608,5806.08
580700,5807.0
580792,5807.92
580885,5808.85
580975,5809.75
581070,5810.7
581172,5811.72
581276,5812.76
581374,5813.74
581473,5814.73
581578,5815.78
581694,5816.94
581828,5818.28
581962,5819.62
582085,5820.85
582201,5822.01
582301,5823.01
582392,5823.92
582490,5824.9
582592,5825.92
582693,5826.93
582791,5827.91
582895,5828.95
583000,5830.0
583102,5831.02
583198,5831.98
583290,5832.9
583384,5833.84
583485,5834.85
583593,5835.93
583699,5836.99
583797,5837.97
583900,5839.0
584005,5840.05
584113,5841.13
584214,5842.14
584316,5843.16
584420,5844.2
584532,5845.32
584638,5846.38
584734,5847.34
584830,5848.3
584929,5849.29
585031,5850.31
585128,5851.28
585223,5852.23
585322,5853.22
585419,5854.19
585512,5855.12
585601,5856.01
585685,5856.85
585770,5857.7
585859,5858.59
586019,5860.19
586166,5861.66
586303,5863.03
586438,5864.38
586573,5865.73
586706,5867.06
586811,5868.11
586915,5869.15
587025,5870.25
587152,5871.52
587267,5872.67
587371,5873.71
587487,5874.87
587620,5876.2
587749,5877.49
587851,5878.51
587949,5879.49
588049,5880.49
588156,5881.56
588258,5882.58
588349,5883.49
588444,5884.44
588549,5885.49
588688,5886.88
588812,5888.12
588921,5889.21
589023,5890.23
589128,5891.28
589231,5892.31
589331,5893.31
589435,5894.35
589590,5895.9
589722,5897.22
589824,5898.24
589918,5899.18
590012,5900.12
590110,5901.1
590211,5902.11
590310,5903.1
590411,5904.11
590508,5905.08
590600,5906.0
590686,5906.86
590771,5907.71
590860,5908.6
591020,5910.2
591158,5911.58
591296,5912.96
591421,5914.21
591525,5915.25
591631,5916.31
591773,5917.73
591892,5918.92
591993,5919.93
592094,5920.94
592197,5921.97
592299,5922.99
592397,5923.97
592514,5925.14
592652,5926.52
592780,5927.8
592887,5928.87
592985,5929.85
593079,5930.79
593177,5931.77
593276,5932.76
593373,5933.73
593478,5934.78
593633,5936.33
593761,5937.61
593867,5938.67
593969,5939.69
594068,5940.68
594162,5941.62
594254,5942.54
594344,5943.44
594435,5944.35
594531,5945.31
594623,5946.23
594714,5947.14
594810,5948.1
594909,5949.09
595005,5950.05
595098,5950.98
595194,5951.94
595297,5952.97
595401,5954.01
595498,5954.98
595593,5955.93
595693,5956.93
595799,5957.99
595901,5959.01
595997,5959.97
596097,5960.97
596196,5961.96
596294,5962.94
596388,5963.88
596479,5964.79
596572,5965.72
596676,5966.76
596783,5967.83
596885,5968.85
596987,5969.87
597096,5970.96
597169,5971.69
597242,5972.42
597357,5973.57
597459,5974.59
597552,5975.52
597656,5976.56
597758,5977.58
597858,5978.58
598014,5980.14
598153,5981.53
598277,5982.77
598377,5983.77
598471,5984.71
598566,5985.66
598667,5986.67
598769,5987.69
598872,5988.72
599027,5990.27
599163,5991.63
599285,5992.85
599394,5993.94
599497,5994.97
599599,5995.99
599698,5996.98
599791,5997.91
599889,5998.89
600008,6000.08
600152,6001.52
600283,6002.83
600410,6004.1
600544,6005.44
600650,6006.5
600743,6007.43
600841,6008.41
600947,6009.47
601101,6011.01
601232,6012.32
601368,6013.68
601502,6015.02
601619,6016.19
601723,6017.23
601861,6018.61
601999,6019.99
602107,6021.07
602197,6021.97
602281,6022.81
602362,6023.62
602446,6024.46
602602,6026.02
602728,6027.28
602876,6028.76
603010,6030.1
603132,6031.32
603234,6032.34
603334,6033.34
603432,6034.32
603533,6035.33
603631,6036.31
603727,6037.27
603824,6038.24
603930,6039.3
604032,6040.32
604125,6041.25
604219,6042.19
604316,6043.16
604416,6044.16
604515,6045.15
604608,6046.08
604701,6047.01
604803,6048.03
604926,6049.26
605042,6050.42
605137,6051.37
605231,6052.31
605326,6053.26
605436,6054.36
605541,6055.41
605640,6056.4
605746,6057.46
605900,6059.0
606029,6060.29
606139,6061.39
606249,6062.49
606367,6063.67
606476,6064.76
606574,6065.74
606676,6066.76
606784,6067.84
606884,6068.84
606985,6069.85
607129,6071.29
607254,6072.54
607352,6073.52
607444,6074.44
607536,6075.36
607631,6076.31
607727,6077.27
607823,6078.23
607933,6079.33
608005,6080.05
608077,6080.77
608191,6081.91
608293,6082.93
608389,6083.89
608490,6084.9
608587,6085.87
608683,6086.83
608788,6087.88
608939,6089.39
609067,6090.67
609175,6091.75
609270,6092.7
609360,6093.6
609449,6094.49
609538,6095.38
609636,6096.36
609714,6097.14
609792,6097.92
609911,6099.11
610015,6100.15
610112,6101.12
610216,6102.16
610325,6103.25
610426,6104.26
610525,6105.25
610628,6106.28
610739,6107.39
610837,6108.37
610928,6109.28
611018,6110.18
611111,6111.11
611210,6112.1
611304,6113.04
611396,6113.96
611500,6115.0
611603,6116.03
611699,6116.99
611788,6117.88
611875,6118.75
611963,6119.63
612050,6120.5
612141,6121.41
612298,6122.98
612435,6124.35
612549,6125.49
612658,6126.58
612771,6127.71
612883,6128.83
612985,6129.85
613079,6130.79
613177,6131.77
613281,6132.81
613402,6134.02
613521,6135.21
613638,6136.38
613771,6137.71
613891,6138.91
613996,6139.96
614092,6140.92
614193,6141.93
614331,6143.31
614470,6144.7
614572,6145.72
614671,6146.71
614780,6147.8
614924,6149.24
615048,6150.48
615164,6151.64
615280,6152.8
615410,6154.1
615529,6155.29
615632,6156.32
615732,6157.32
615831,6158.31
615932,6159.32
616029,6160.29
616128,6161.28
616243,6162.43
616315,6163.15
616388,6163.88
616504,6165.04
616612,6166.12
616710,6167.1
616806,6168.06
616899,6168.99
616989,6169.89
617082,6170.82
617184,6171.84
617285,6172.85
617381,6173.81
617478,6174.78
617578,6175.78
617678,6176.78
617777,6177.77
617871,6178.71
617962,6179.62
618057,6180.57
618153,6181.53
618247,6182.47
618339,6183.39
618430,6184.3
618530,6185.3
618627,6186.27
618723,6187.23
618815,6188.15
618911,6189.11
619005,6190.05
619107,6191.07
619225,6192.25
619356,6193.56
619488,6194.88
619609,6196.09
619709,6197.09
619803,6198.03
619896,6198.96
619984,6199.84
620075,6200.75
620167,6201.67
620267,6202.67
620373,6203.73
620477,6204.77
620578,6205.78
620656,6206.56
620735,6207.35
620860,6208.6
620985,6209.85
621091,6210.91
621189,6211.89
621286,6212.86
621379,6213.79
621469,6214.69
621563,6215.63
621665,6216.65
621785,6217.85
621906,6219.06
622031,6220.31
622152,6221.52
622268,6222.68
622369,6223.69
622467,6224.67
622578,6225.78
622703,6227.03
622805,6228.05
622908,6229.08
623035,6230.35
623163,6231.63
623269,6232.69
623366,6233.66
623462,6234.62
623558,6235.58
623658,6236.58
623754,6237.54
623851,6238.51
623954,6239.54
624060,6240.6
624160,6241.6
624257,6242.57
624356,6243.56
624454,6244.54
624551,6245.51
624646,6246.46
624743,6247.43
624846,6248.46
624948,6249.48
625044,6250.44
625145,6251.45
625251,6252.51
625363,6253.63
625466,6254.66
625569,6255.69
625667,6256.67
625777,6257.77
625882,6258.82
625977,6259.77
626078,6260.78
626183,6261.83
626288,6262.88
626382,6263.82
626475,6264.75
626572,6265.72
626666,6266.66
626756,6267.56
626841,6268.41
626925,6269.25
627011,6270.11
627102,6271.02
627195,6271.95
627295,6272.95
627389,6273.89
627479,6274.79
627569,6275.69
627662,6276.62
627751,6277.51
627840,6278.4
627932,6279.32
628079,6280.79
628227,6282.27
628365,6283.65
628499,6284.99
628616,6286.16
628734,6287.34
628865,6288.65
628996,6289.96
629113,6291.13
629213,6292.13
629307,6293.07
629405,6294.05
629480,6294.8
629556,6295.56
629681,6296.81
629787,6297.87
629892,6298.92
629996,6299.96
630095,6300.95
630190,6301.9
630280,6302.8
630368,6303.68
630460,6304.6
630537,6305.37
630615,6306.15
630741,6307.41
630855,6308.55
630975,6309.75
631093,6310.93
631197,6311.97
631302,6313.02
631407,6314.07
631507,6315.07
631602,6316.02
631700,6317.0
631802,6318.02
631903,6319.03
631998,6319.98
632090,6320.9
632186,6321.86
632290,6322.9
632398,6323.98
632498,6324.98
632603,6326.03
632712,6327.12
632815,6328.15
632909,6329.09
633003,6330.03
633099,6330.99
633203,6332.03
633306,6333.06
633402,6334.02
633497,6334.97
633598,6335.98
633707,6337.07
633813,6338.13
633915,6339.15
634012,6340.12
634101,6341.01
634188,6341.88
634272,6342.72
634357,6343.57
634444,6344.44
634562,6345.62
634665,6346.65
634769,6347.69
634918,6349.18
635068,6350.68
635200,6352.0
635339,6353.39
635460,6354.6
635562,6355.62
635674,6356.74
635811,6358.11
635948,6359.48
636055,6360.55
636149,6361.49
636242,6362.42
636333,6363.33
636425,6364.25
636528,6365.28
636633,6366.33
636730,6367.3
636828,6368.28
636936,6369.36
637043,6370.43
637142,6371.42
637235,6372.35
637328,6373.28
637421,6374.21
637515,6375.15
637610,6376.1
637701,6377.01
637800,6378.0
637875,6378.75
637950,6379.5
638068,6380.68
638186,6381.86
638292,6382.92
638423,6384.23
638553,6385.53
638671,6386.71
638796,6387.96
638920,6389.2
639033,6390.33
639132,6391.32
639229,6392.29
639325,6393.25
639430,6394.3
639532,6395.32
639636,6396.36
639785,6397.85
639918,6399.18
640032,6400.32
640137,6401.37
640243,6402.43
640359,6403.59
640473,6404.73
640577,6405.77
640686,6406.86
640797,6407.97
640899,6408.99
640992,6409.92
641086,6410.86
641181,6411.81
641273,6412.73
641365,6413.65
641456,6414.56
641554,6415.54
641691,6416.91
641828,6418.28
641945,6419.45
642071,6420.71
642187,6421.87
642303,6423.03
642422,6424.22
642539,6425.39
642642,6426.42
642736,6427.36
642834,6428.34
642942,6429.42
643057,6430.57
643165,6431.65
643266,6432.66
643364,6433.64
643462,6434.62
643557,6435.57
643654,6436.54
643771,6437.71
643901,6439.01
644020,6440.2
644119,6441.19
644213,6442.13
644302,6443.02
644389,6443.89
644477,6444.77
644562,6445.62
644651,6446.51
644756,6447.56
644851,6448.51
644944,6449.44
645048,6450.48
645201,6452.01
645335,6453.35
645474,6454.74
645605,6456.05
645716,6457.16
645826,6458.26
645966,6459.66
646097,6460.97
646210,6462.1
646319,6463.19
646449,6464.49
646569,6465.69
646675,6466.75
646774,6467.74
646872,6468.72
646975,6469.75
647085,6470.85
647190,6471.9
647325,6473.25
647449,6474.49
647567,6475.67
647675,6476.75
647772,6477.72
647868,6478.68
647965,6479.65
648065,6480.65
648161,6481.61
648260,6482.6
648366,6483.66
648471,6484.71
648570,6485.7
648663,6486.63
648761,6487.61
648858,6488.58
648960,6489.6
649058,6490.58
649152,6491.52
649250,6492.5
649347,6493.47
649446,6494.46
649543,6495.43
649639,6496.39
649737,6497.37
649841,6498.41
649947,6499.47
650044,6500.44
650137,6501.37
650232,6502.32
650332,6503.32
650429,6504.29
650520,6505.2
650612,6506.12
650705,6507.05
650802,6508.02
650896,6508.96
650988,6509.88
651084,6510.84
651188,6511.88
651292,6512.92
651391,6513.91
651534,6515.34
651678,6516.78
651780,6517.8
651876,6518.76
651980,6519.8
652116,6521.16
652246,6522.46
652364,6523.64
652497,6524.97
652631,6526.31
652735,6527.35
652840,6528.4
652949,6529.49
653067,6530.67
653175,6531.75
653283,6532.83
653388,6533.88
653483,6534.83
653579,6535.79
653676,6536.76
653771,6537.71
653863,6538.63
653964,6539.64
654067,6540.67
654186,6541.86
654304,6543.04
654418,6544.18
654528,6545.28
654629,6546.29
654723,6547.23
654819,6548.19
654916,6549.16
655013,6550.13
655109,6551.09
655205,6552.05
655315,6553.15
655451,6554.51
655569,6555.69
655676,6556.76
655779,6557.79
655883,6558.83
655981,6559.81
656079,6560.79
656189,6561.89
656259,6562.59
656329,6563.29
656443,6564.43
656545,6565.45
656639,6566.39
656734,6567.34
656827,6568.27
656929,6569.29
657003,6570.03
657077,6570.77
657190,6571.9
657304,6573.04
657400,6574.0
657504,6575.04
657621,6576.21
657741,6577.41
657862,6578.62
657983,6579.83
658098,6580.98
658199,6581.99
658332,6583.32
658461,6584.61
658578,6585.78
658683,6586.83
658795,6587.95
658910,6589.1
659017,6590.17
659114,6591.14
659215,6592.15
659325,6593.25
659444,6594.44
659558,6595.58
659684,6596.84
659809,6598.09
659923,6599.23
660021,6600.21
660118,6601.18
660216,6602.16
660317,6603.17
660412,6604.12
660512,6605.12
660616,6606.16
660726,6607.26
660830,6608.3
660932,6609.32
661036,6610.36
661142,6611.42
661241,6612.41
661334,6613.34
661431,6614.31
661533,6615.33
661636,6616.36
661733,6617.33
661835,6618.35
661946,6619.46
662060,6620.6
662162,6621.62
662259,6622.59
662359,6623.59
662469,6624.69
662576,6625.76
662679,6626.79
662784,6627.84
662895,6628.95
662999,6629.99
663104,6631.04
663222,6632.22
663343,6633.43
663448,6634.48
663553,6635.53
663657,6636.57
663762,6637.62
663863,6638.63
663973,6639.73
664099,6640.99
664215,6642.15
664318,6643.18
664421,6644.21
664528,6645.28
664630,6646.3
664724,6647.24
664827,6648.27
664940,6649.4
665069,6650.69
665181,6651.81
665289,6652.89
665386,6653.86
665485,6654.85
665589,6655.89
665739,6657.39
665878,6658.78
666004,6660.04
666114,6661.14
666246,6662.46
666378,6663.78
666486,6664.86
666591,6665.91
666704,6667.04
666816,6668.16
666919,6669.19
667022,6670.22
667128,6671.28
667236,6672.36
667334,6673.34
667438,6674.38
667550,6675.5
667675,6676.75
667787,6677.87
667908,6679.08
668027,6680.27
668134,6681.34
668232,6682.32
668337,6683.37
668454,6684.54
668576,6685.76
668685,6686.85
668799,6687.99
668925,6689.25
669045,6690.45
669145,6691.45
669238,6692.38
669329,6693.29
669422,6694.22
669516,6695.16
669608,6696.08
669709,6697.09
669782,6697.82
669856,6698.56
669975,6699.75
670092,6700.92
670201,6702.01
670296,6702.96
670390,6703.9
670484,6704.84
670579,6705.79
670674,6706.74
670767,6707.67
670865,6708.65
670975,6709.75
671104,6711.04
671225,6712.25
671357,6713.57
671475,6714.75
671577,6715.77
671681,6716.81
671791,6717.91
671899,6718.99
671999,6719.99
672113,6721.13
672242,6722.42
672352,6723.52
672454,6724.54
672551,6725.51
672651,6726.51
672748,6727.48
672844,6728.44
672969,6729.69
673104,6731.04
673223,6732.23
673330,6733.3
673445,6734.45
673566,6735.66
673678,6736.78
673785,6737.85
673908,6739.08
674034,6740.34
674143,6741.43
674249,6742.49
674361,6743.61
674480,6744.8
674584,6745.84
674687,6746.87
674798,6747.98
674915,6749.15
675020,6750.2
675124,6751.24
675227,6752.27
675328,6753.28
675426,6754.26
675523,6755.23
675624,6756.24
675725,6757.25
675822,6758.22
675919,6759.19
676020,6760.2
676123,6761.23
676226,6762.26
676322,6763.22
676422,6764.22
676532,6765.32
676640,6766.4
676740,6767.4
676857,6768.57
676991,6769.91
677105,6771.05
677205,6772.05
677301,6773.01
677400,6774.0
677499,6774.99
677594,6775.94
677703,6777.03
677846,6778.46
677971,6779.71
678085,6780.85
678211,6782.11
678332,6783.32
678438,6784.38
678542,6785.42
678646,6786.46
678758,6787.58
678863,6788.63
678964,6789.64
679069,6790.69
679179,6791.79
679280,6792.8
679379,6793.79
679482,6794.82
679585,6795.85
679683,6796.83
679777,6797.77
679877,6798.77
679985,6799.85
680089,6800.89
680196,6801.96
680269,6802.69
680343,6803.43
680465,6804.65
680565,6805.65
680661,6806.61
680758,6807.58
680856,6808.56
680953,6809.53
681060,6810.6
681201,6812.01
681330,6813.3
681437,6814.37
681551,6815.51
681672,6816.72
681777,6817.77
681882,6818.82
681987,6819.87
682099,6820.99
682206,6822.06
682310,6823.1
682422,6824.22
682552,6825.52
682668,6826.68
682792,6827.92
682907,6829.07
683005,6830.05
683102,6831.02
683201,6832.01
683299,6832.99
683397,6833.97
683536,6835.36
683675,6836.75
683787,6837.87
683893,6838.93
684005,6840.05
684116,6841.16
684217,6842.17
684314,6843.14
684419,6844.19
684553,6845.53
684688,6846.88
684814,6848.14
684939,6849.39
685050,6850.5
685153,6851.53
685258,6852.58
685371,6853.71
685474,6854.74
685578,6855.78
685685,6856.85
685805,6858.05
685926,6859.26
686043,6860.43
686157,6861.57
686263,6862.63
686360,6863.6
686460,6864.6
686563,6865.63
686663,6866.63
686762,6867.62
686874,6868.74
687002,6870.02
687131,6871.31
687252,6872.52
687373,6873.73
687486,6874.86
687594,6875.94
687702,6877.02
687817,6878.17
687925,6879.25
688030,6880.3
688156,6881.56
688284,6882.84
688397,6883.97
688504,6885.04
688606,6886.06
688705,6887.05
688798,6887.98
688896,6888.96
689000,6890.0
689110,6891.1
689215,6892.15
689328,6893.28
689452,6894.52
689571,6895.71
689680,6896.8
689789,6897.89
689899,6898.99
689999,6899.99
690103,6901.03
690208,6902.08
690313,6903.13
690413,6904.13
690512,6905.12
690619,6906.19
690737,6907.37
690858,6908.58
690975,6909.75
691099,6910.99
691212,6912.12
691313,6913.13
691426,6914.26
691553,6915.53
691667,6916.67
691767,6917.67
691866,6918.66
691971,6919.71
692070,6920.7
692166,6921.66
692270,6922.7
692382,6923.82
692500,6925.0
692609,6926.09
692718,6927.18
692828,6928.28
692929,6929.29
693026,6930.26
693124,6931.24
693227,6932.27
693325,6933.25
693422,6934.22
693530,6935.3
693666,6936.66
693802,6938.02
693923,6939.23
694046,6940.46
694159,6941.59
694261,6942.61
694369,6943.69
694483,6944.83
694592,6945.92
694690,6946.9
694789,6947.89
694893,6948.93
694999,6949.99
695099,6950.99
695201,6952.01
695302,6953.02
695404,6954.04
695501,6955.01
695593,6955.93
695688,6956.88
695789,6957.89
695893,6958.93
695994,6959.94
696097,6960.97
696200,6962.0
696301,6963.01
696397,6963.97
696494,6964.94
696603,6966.03
696732,6967.32
696854,6968.54
696981,6969.81
697106,6971.06
697214,6972.14
697320,6973.2
697431,6974.31
697550,6975.5
697662,6976.62
697769,6977.69
697883,6978.83
698009,6980.09
698122,6981.22
698227,6982.27
698350,6983.5
698473,6984.73
698574,6985.74
698674,6986.74
698780,6987.8
698894,6988.94
699007,6990.07
699141,6991.41
699275,6992.75
699384,6993.84
699493,6994.93
699627,6996.27
699751,6997.51
699858,6998.58
699962,6999.62
700075,7000.75
700191,7001.91
700296,7002.96
700406,7004.06
700532,7005.32
700654,7006.54
700761,7007.61
700868,7008.68
700977,7009.77
701082,7010.82
701180,7011.8
701283,7012.83
701395,7013.95
701513,7015.13
701618,7016.18
701728,7017.28
701849,7018.49
701955,7019.55
702058,7020.58
702175,7021.75
702290,7022.9
702390,7023.9
702497,7024.97
702607,7026.07
702713,7027.13
702812,7028.12
702915,7029.15
703033,7030.33
703152,7031.52
703257,7032.57
703358,7033.58
703457,7034.57
703551,7035.51
703651,7036.51
703763,7037.63
703893,7038.93
704008,7040.08
704118,7041.18
704224,7042.24
704322,7043.22
704417,7044.17
704518,7045.18
704619,7046.19
704719,7047.19
704813,7048.13
704912,7049.12
705029,7050.29
705151,7051.51
705258,7052.58
705368,7053.68
705496,7054.96
705624,7056.24
705737,7057.37
705848,7058.48
705957,7059.57
706058,7060.58
706154,7061.54
706258,7062.58
706367,7063.67
706478,7064.78
706582,7065.82
706701,7067.01
706830,7068.3
706952,7069.52
707057,7070.57
707165,7071.65
707288,7072.88
707406,7074.06
707512,7075.12
707614,7076.14
707722,7077.22
707829,7078.29
707935,7079.35
708065,7080.65
708189,7081.89
708292,7082.92
708390,7083.9
708485,7084.85
708581,7085.81
708675,7086.75
708774,7087.74
708883,7088.83
709018,7090.18
709135,7091.35
709249,7092.49
709359,7093.59
709455,7094.55
709549,7095.49
709644,7096.44
709744,7097.44
709841,7098.41
709951,7099.51
710092,7100.92
710219,7102.19
710321,7103.21
710419,7104.19
710518,7105.18
710618,7106.18
710715,7107.15
710825,7108.25
710966,7109.66
711079,7110.79
711182,7111.82
711277,7112.77
711368,7113.68
711457,7114.57
711548,7115.48
711626,7116.26
711705,7117.05
711832,7118.32
711938,7119.38
712041,7120.41
712141,7121.41
712242,7122.42
712336,7123.36
712429,7124.29
712526,7125.26
712644,7126.44
712769,7127.69
712876,7128.76
713001,7130.01
713132,7131.32
713241,7132.41
713348,7133.48
713468,7134.68
713599,7135.99
713718,7137.18
713846,7138.46
713972,7139.72
714078,7140.78
714191,7141.91
714303,7143.03
714403,7144.03
714500,7145.0
714602,7146.02
714709,7147.09
714811,7148.11
714928,7149.28
715067,7150.67
715188,7151.88
715313,7153.13
715438,7154.38
715551,7155.51
715653,7156.53
715763,7157.63
715889,7158.89
716000,7160.0
716107,7161.07
716217,7162.17
716318,7163.18
716413,7164.13
716513,7165.13
716618,7166.18
716721,7167.21
716824,7168.24
716941,7169.41
717071,7170.71
717178,7171.78
717281,7172.81
717379,7173.79
717478,7174.78
717575,7175.75
717674,7176.74
717800,7178.0
717930,7179.3
718041,7180.41
718141,7181.41
718235,7182.35
718331,7183.31
718432,7184.32
718530,7185.3
718652,7186.52
718785,7187.85
718896,7188.96
719003,7190.03
719109,7191.09
719211,7192.11
719308,7193.08
719411,7194.11
719532,7195.32
719663,7196.63
719787,7197.87
719911,7199.11
720029,7200.29
720128,7201.28
720223,7202.23
720323,7203.23
720459,7204.59
720595,7205.95
720715,7207.15
720837,7208.37
720956,7209.56
721064,7210.64
721169,7211.69
721275,7212.75
721381,7213.81
721481,7214.81
721584,7215.84
721698,7216.98
721831,7218.31
721941,7219.41
722050,7220.5
722158,7221.58
722262,7222.62
722360,7223.6
722461,7224.61
722566,7225.66
722664,7226.64
722760,7227.6
722856,7228.56
722962,7229.62
723035,7230.35
723109,7231.09
723232,7232.32
723354,7233.54
723458,7234.58
723559,7235.59
723668,7236.68
723783,7237.83
723891,7238.91
724025,7240.25
724154,7241.54
724269,7242.69
724377,7243.77
724493,7244.93
724609,7246.09
724716,7247.16
724816,7248.16
724922,7249.22
725034,7250.34
725145,7251.45
725273,7252.73
725405,7254.05
725531,7255.31
725644,7256.44
725766,7257.66
725880,7258.8
725981,7259.81
726080,7260.8
726179,7261.79
726280,7262.8
726379,7263.79
726487,7264.87
726599,7265.99
726712,7267.12
726839,7268.39
726961,7269.61
727070,7270.7
727178,7271.78
727296,7272.96
727412,7274.12
727531,7275.31
727644,7276.44
727746,7277.46
727841,7278.41
727936,7279.36
728036,7280.36
728142,7281.42
728289,7282.89
728419,7284.19
728529,7285.29
728640,7286.4
728774,7287.74
728892,7288.92
728997,7289.97
729102,7291.02
729212,7292.12
729318,7293.18
729419,7294.19
729527,7295.27
729636,7296.36
729736,7297.36
729831,7298.31
729935,7299.35
730055,7300.55
730182,7301.82
730306,7303.06
730434,7304.34
730562,7305.62
730675,7306.75
730786,7307.86
730893,7308.93
731000,7310.0
731097,7310.97
731198,7311.98
731300,7313.0
731400,7314.0
731499,7314.99
731576,7315.76
731653,7316.53
731782,7317.82
731884,7318.84
731984,7319.84
732083,7320.83
732181,7321.81
732276,7322.76
732372,7323.72
732482,7324.82
732627,7326.27
732755,7327.55
732883,7328.83
733005,7330.05
733112,7331.12
733207,7332.07
733307,7333.07
733408,7334.08
733504,7335.04
733609,7336.09
733759,7337.59
733884,7338.84
734001,7340.01
734128,7341.28
734246,7342.46
734348,7343.48
734450,7344.5
734555,7345.55
734662,7346.62
734759,7347.59
734865,7348.65
735006,7350.06
735134,7351.34
735242,7352.42
735350,7353.5
735463,7354.63
735569,7355.69
735673,7356.73
735781,7357.81
735884,7358.84
735979,7359.79
736080,7360.8
736188,7361.88
736299,7362.99
736417,7364.17
736554,7365.54
736686,7366.86
736798,7367.98
736913,7369.13
737045,7370.45
737160,7371.6
737265,7372.65
737390,7373.9
737520,7375.2
737626,7376.26
737727,7377.27
737829,7378.29
737930,7379.3
738027,7380.27
738125,7381.25
738235,7382.35
738354,7383.54
738473,7384.73
738611,7386.11
738739,7387.39
738845,7388.45
738951,7389.51
739060,7390.6
739183,7391.83
739294,7392.94
739400,7394.0
739508,7395.08
739615,7396.15
739712,7397.12
739813,7398.13
739926,7399.26
740047,7400.47
740168,7401.68
740288,7402.88
740394,7403.94
740490,7404.9
740592,7405.92
740698,7406.98
740798,7407.98
740895,7408.95
741004,7410.04
741142,7411.42
741264,7412.64
741381,7413.81
741491,7414.91
741591,7415.91
741688,7416.88
741798,7417.98
741938,7419.38
742055,7420.55
742180,7421.8
742305,7423.05
742411,7424.11
742513,7425.13
742617,7426.17
742731,7427.31
742841,7428.41
742947,7429.47
743074,7430.74
743200,7432.0
743308,7433.08
743413,7434.13
743517,7435.17
743619,7436.19
743716,7437.16
743824,7438.24
743967,7439.67
744088,7440.88
744199,7441.99
744313,7443.13
744440,7444.4
744550,7445.5
744655,7446.55
744786,7447.86
744905,7449.05
745010,7450.1
745107,7451.07
745211,7452.11
745285,7452.85
745359,7453.59
745471,7454.71
745585,7455.85
745699,7456.99
745804,7458.04
745905,7459.05
746012,7460.12
746145,7461.45
746256,7462.56
746364,7463.64
746478,7464.78
746592,7465.92
746693,7466.93
746798,7467.98
746947,7469.47
747070,7470.7
747171,7471.71
747263,7472.63
747360,7473.6
747471,7474.71
747595,7475.95
747731,7477.31
747863,7478.63
747976,7479.76
748078,7480.78
748189,7481.89
748324,7483.24
748442,7484.42
748563,7485.63
748699,7486.99
748821,7488.21
748941,7489.41
749057,7490.57
749167,7491.67
749270,7492.7
749378,7493.78
749499,7494.99
749621,7496.21
749731,7497.31
749838,7498.38
749958,7499.58
750065,7500.65
750165,7501.65
750268,7502.68
750371,7503.71
750470,7504.7
750575,7505.75
750724,7507.24
750849,7508.49
750968,7509.68
751081,7510.81
751186,7511.86
751284,7512.84
751379,7513.79
751484,7514.84
751593,7515.93
751718,7517.18
751827,7518.27
751963,7519.63
752088,7520.88
752194,7521.94
752294,7522.94
752398,7523.98
752506,7525.06
752608,7526.08
752709,7527.09
752848,7528.48
752976,7529.76
753090,7530.9
753226,7532.26
753346,7533.46
753449,7534.49
753545,7535.45
753647,7536.47
753796,7537.96
753920,7539.2
754050,7540.5
754168,7541.68
754272,7542.72
754376,7543.76
754480,7544.8
754579,7545.79
754684,7546.84
754782,7547.82
754880,7548.8
754978,7549.78
755089,7550.89
755222,7552.22
755334,7553.34
755453,7554.53
755580,7555.8
755694,7556.94
755791,7557.91
755884,7558.84
755986,7559.86
756092,7560.92
756192,7561.92
756342,7563.42
756470,7564.7
756579,7565.79
756709,7567.09
756824,7568.24
756924,7569.24
757030,7570.3
757139,7571.39
757245,7572.45
757348,7573.48
757466,7574.66
757594,7575.94
757700,7577.0
757801,7578.01
757906,7579.06
758011,7580.11
758109,7581.09
758212,7582.12
758361,7583.61
758485,7584.85
758601,7586.01
758733,7587.33
758851,7588.51
758954,7589.54
759066,7590.66
759183,7591.83
759289,7592.89
759387,7593.87
759495,7594.95
759631,7596.31
759744,7597.44
759853,7598.53
759965,7599.65
760080,7600.8
760185,7601.85
760293,7602.93
760406,7604.06
760512,7605.12
760612,7606.12
760724,7607.24
760854,7608.54
760974,7609.74
761081,7610.81
761196,7611.96
761314,7613.14
761422,7614.22
761534,7615.34
761670,7616.7
761788,7617.88
761899,7618.99
762004,7620.04
762107,7621.07
762198,7621.98
762290,7622.9
762381,7623.81
762481,7624.81
762579,7625.79
762677,7626.77
762793,7627.93
762930,7629.3
763055,7630.55
763176,7631.76
763294,7632.94
763396,7633.96
763497,7634.97
763597,7635.97
763693,7636.93
763797,7637.97
763914,7639.14
764032,7640.32
764143,7641.43
764258,7642.58
764380,7643.8
764486,7644.86
764587,7645.87
764699,7646.99
764841,7648.41
764966,7649.66
765105,7651.05
765225,7652.25
765333,7653.33
765467,7654.67
765602,7656.02
765705,7657.05
765802,7658.02
765906,7659.06
766044,7660.44
766182,7661.82
766287,7662.87
766402,7664.02
766534,7665.34
766654,7666.54
766758,7667.58
766863,7668.63
766967,7669.67
767070,7670.7
767167,7671.67
767275,7672.75
767421,7674.21
767545,7675.45
767656,7676.56
767767,7677.67
767872,7678.72
767967,7679.67
768065,7680.65
768168,7681.68
768270,7682.7
768364,7683.64
768464,7684.64
768568,7685.68
768670,7686.7
768768,7687.68
768881,7688.81
769023,7690.23
769149,7691.49
769270,7692.7
769396,7693.96
769509,7695.09
769612,7696.12
769719,7697.19
769834,7698.34
769937,7699.37
770040,7700.4
770142,7701.42
770252,7702.52
770355,7703.55
770455,7704.55
770558,7705.58
770660,7706.6
770761,7707.61
770872,7708.72
770980,7709.8
771084,7710.84
771193,7711.93
771303,7713.03
771402,7714.02
771503,7715.03
771578,7715.78
771653,7716.53
771780,7717.8
771886,7718.86
771996,7719.96
772135,7721.35
772255,7722.55
772359,7723.59
772469,7724.69
772597,7725.97
772715,7727.15
772828,7728.28
772957,7729.57
773076,7730.76
773178,7731.78
773285,7732.85
773409,7734.09
773524,7735.24
773633,7736.33
773740,7737.4
773844,7738.44
773943,7739.43
774045,7740.45
774147,7741.47
774247,7742.47
774341,7743.41
774440,7744.4
774517,7745.17
774594,7745.94
774717,7747.17
774824,7748.24
774927,7749.27
775032,7750.32
775131,7751.31
775236,7752.36
775352,7753.52
775478,7754.78
775600,7756.0
775731,7757.31
775848,7758.48
775957,7759.57
776062,7760.62
776165,7761.65
776262,7762.62
776370,7763.7
776481,7764.81
776596,7765.96
776698,7766.98
776807,7768.07
776931,7769.31
777055,7770.55
777164,7771.64
777279,7772.79
777387,7773.87
777487,7774.87
777600,7776.0
777722,7777.22
777836,7778.36
777946,7779.46
778059,7780.59
778172,7781.72
778276,7782.76
778384,7783.84
778492,7784.92
778599,7785.99
778723,7787.23
778847,7788.47
778947,7789.47
779041,7790.41
779136,7791.36
779239,7792.39
779336,7793.36
779435,7794.35
779541,7795.41
779646,7796.46
779745,7797.45
779851,7798.51
779960,7799.6
780061,7800.61
780161,7801.61
780269,7802.69
780402,7804.02
780536,7805.36
780648,7806.48
780754,7807.54
780865,7808.65
780968,7809.68
781075,7810.75
781203,7812.03
781321,7813.21
781423,7814.23
781521,7815.21
781624,7816.24
781756,7817.56
781889,7818.89
782008,7820.08
782132,7821.32
782249,7822.49
782363,7823.63
782490,7824.9
782607,7826.07
782708,7827.08
782802,7828.02
782901,7829.01
782998,7829.98
783093,7830.93
783201,7832.01
783313,7833.13
783432,7834.32
783547,7835.47
783661,7836.61
783774,7837.74
783875,7838.75
783973,7839.73
784082,7840.82
784200,7842.0
784307,7843.07
784420,7844.2
784537,7845.37
784644,7846.44
784741,7847.41
784838,7848.38
784937,7849.37
785032,7850.32
785127,7851.27
785227,7852.27
785330,7853.3
785432,7854.32
785528,7855.28
785629,7856.29
785735,7857.35
785844,7858.44
785942,7859.42
786049,7860.49
786160,7861.6
786270,7862.7
786366,7863.66
786464,7864.64
786566,7865.66
786664,7866.64
786765,7867.65
786903,7869.03
787042,7870.42
787151,7871.51
787268,7872.68
787380,7873.8
787484,7874.84
787586,7875.86
787697,7876.97
787809,7878.09
787913,7879.13
788021,7880.21
788135,7881.35
788246,7882.46
788348,7883.48
788455,7884.55
788570,7885.7
788674,7886.74
788775,7887.75
788880,7888.8
788988,7889.88
789090,7890.9
789212,7892.12
789332,7893.32
789443,7894.43
789541,7895.41
789641,7896.41
789745,7897.45
789851,7898.51
789949,7899.49
790052,7900.52
790166,7901.66
790292,7902.92
790414,7904.14
790536,7905.36
790639,7906.39
790735,7907.35
790831,7908.31
790930,7909.3
791026,7910.26
791119,7911.19
791219,7912.19
791331,7913.31
791450,7914.5
791563,7915.63
791682,7916.82
791809,7918.09
791916,7919.16
792018,7920.18
792119,7921.19
792219,7922.19
792314,7923.14
792409,7924.09
792483,7924.83
792558,7925.58
792673,7926.73
792788,7927.88
792882,7928.82
792979,7929.79
793072,7930.72
793166,7931.66
793259,7932.59
793355,7933.55
793431,7934.31
793507,7935.07
793626,7936.26
793745,7937.45
793860,7938.6
793965,7939.65
794064,7940.64
794168,7941.68
794275,7942.75
794385,7943.85
794510,7945.1
794643,7946.43
794764,7947.64
794869,7948.69
794976,7949.76
795082,7950.82
795183,7951.83
795288,7952.88
795403,7954.03
795526,7955.26
795631,7956.31
795747,7957.47
795876,7958.76
795987,7959.87
796094,7960.94
796208,7962.08
796317,7963.17
796418,7964.18
796547,7965.47
796676,7966.76
796777,7967.77
796873,7968.73
796968,7969.68
797064,7970.64
797166,7971.66
797268,7972.68
797364,7973.64
797464,7974.64
797561,7975.61
797657,7976.57
797751,7977.51
797852,7978.52
797963,7979.63
798070,7980.7
798168,7981.68
798274,7982.74
798388,7983.88
798493,7984.93
798591,7985.91
798693,7986.93
798801,7988.01
798902,7989.02
798999,7989.99
799106,7991.06
799218,7992.18
799318,7993.18
799412,7994.12
799507,7995.07
799602,7996.02
799702,7997.02
799801,7998.01
799917,7999.17
800052,8000.52
800188,8001.88
800295,8002.95
800400,8004.0
800502,8005.02
800607,8006.07
800703,8007.03
800803,8008.03
800904,8009.04
801001,8010.01
801096,8010.96
801191,8011.91
801293,8012.93
801395,8013.95
801492,8014.92
801595,8015.95
801701,8017.01
801809,8018.09
801908,8019.08
802009,8020.09
802124,8021.24
802240,8022.4
802347,8023.47
802453,8024.53
802556,8025.56
802652,8026.52
802745,8027.45
802844,8028.44
802945,8029.45
803043,8030.43
803142,8031.42
803254,8032.54
803381,8033.81
803509,8035.09
803622,8036.22
803739,8037.39
803848,8038.48
803956,8039.56
804069,8040.69
804177,8041.77
804279,8042.79
804391,8043.91
804516,8045.16
804624,8046.24
804729,8047.29
804834,8048.34
804934,8049.34
805039,8050.39
805139,8051.39
805234,8052.34
805331,8053.31
805433,8054.33
805568,8055.68
805704,8057.04
805824,8058.24
805938,8059.38
806039,8060.39
806140,8061.4
806244,8062.44
806342,8063.42
806443,8064.43
806553,8065.53
806672,8066.72
806785,8067.85
806895,8068.95
807001,8070.01
807100,8071.0
807203,8072.03
807306,8073.06
807406,8074.06
807500,8075.0
807597,8075.97
807705,8077.05
807816,8078.16
807918,8079.18
808022,8080.22
808131,8081.31
808241,8082.41
808346,8083.46
808463,8084.63
808586,8085.86
808693,8086.93
808790,8087.9
808888,8088.88
808990,8089.9
809091,8090.91
809189,8091.89
809261,8092.61
809334,8093.34
809448,8094.48
809562,8095.62
809659,8096.59
809754,8097.54
809848,8098.48
809941,8099.41
810039,8100.39
810145,8101.45
810248,8102.48
810348,8103.48
810462,8104.62
810591,8105.91
810702,8107.02
810804,8108.04
810908,8109.08
811018,8110.18
811120,8111.2
811221,8112.21
811324,8113.24
811433,8114.33
811532,8115.32
811633,8116.33
811736,8117.36
811841,8118.41
811936,8119.36
812038,8120.38
812141,8121.41
812240,8122.4
812337,8123.37
812412,8124.12
812487,8124.87
812602,8126.02
812718,8127.18
812816,8128.16
812916,8129.16
813015,8130.15
813118,8131.18
813218,8132.18
813294,8132.94
813371,8133.71
813484,8134.84
813597,8135.97
813693,8136.93
813789,8137.89
813887,8138.87
813982,8139.82
814087,8140.87
814165,8141.65
814243,8142.43
814370,8143.7
814484,8144.84
814595,8145.95
814697,8146.97
814793,8147.93
814890,8148.9
814986,8149.86
815078,8150.78
815173,8151.73
815282,8152.82
815404,8154.04
815526,8155.26
815639,8156.39
815742,8157.42
815843,8158.43
815941,8159.41
816041,8160.41
816136,8161.36
816232,8162.32
816335,8163.35
816439,8164.39
816534,8165.34
816629,8166.29
816720,8167.2
816812,8168.12
816901,8169.01
816986,8169.86
817078,8170.78
817177,8171.77
817270,8172.7
817360,8173.6
817452,8174.52
817547,8175.47
817635,8176.35
817722,8177.22
817808,8178.08
817891,8178.91
817969,8179.69
818046,8180.46
818123,8181.23
818200,8182.0
818282,8182.82
818368,8183.68
818455,8184.55
818550,8185.5
818660,8186.6
818791,8187.91
818906,8189.06
819005,8190.05
819100,8191.0
819202,8192.02
819297,8192.97
819382,8193.82
819463,8194.63
819539,8195.39
819614,8196.14
819692,8196.92
819777,8197.77
819872,8198.72
819993,8199.93
820143,8201.43
820289,8202.89
820427,8204.27
820564,8205.64
820704,8207.04
820840,8208.4
820954,8209.54
821052,8210.52
821144,8211.44
821239,8212.39
821340,8213.4
821447,8214.47
821605,8216.05
821745,8217.45
821874,8218.74
821979,8219.79
822076,8220.76
822169,8221.69
822263,8222.63
822360,8223.6
822460,8224.6
822558,8225.58
822653,8226.53
822750,8227.5
822852,8228.52
822932,8229.32
823013,8230.13
823078,8230.78
823144,8231.44
823246,8232.46
823344,8233.44
823442,8234.42
823542,8235.42
823638,8236.38
823735,8237.35
823851,8238.51
823987,8239.87
824108,8241.08
824206,8242.06
824295,8242.95
824379,8243.79
824460,8244.6
824543,8245.43
824643,8246.43
824733,8247.33
824835,8248.35
824924,8249.24
825018,8250.18
825110,8251.1
825196,8251.96
825280,8252.8
825364,8253.64
825443,8254.43
825520,8255.2
825597,8255.97
825673,8256.73
825748,8257.48
825822,8258.22
825896,8258.96
825968,8259.68
826040,8260.4
826111,8261.11
826182,8261.82
826252,8262.52
826322,8263.22
826393,8263.93
826463,8264.63
826533,8265.33
826603,8266.03
826676,8266.76
826752,8267.52
826832,8268.32
826921,8269.21
827028,8270.28
827125,8271.25
827207,8272.07
827294,8272.94
827401,8274.01
827539,8275.39
827665,8276.65
827782,8277.82
827878,8278.78
827962,8279.62
828043,8280.43
828126,8281.26
828202,8282.02
828279,8282.79
828381,8283.81
828483,8284.83
828636,8286.36
828767,8287.67
828884,8288.84
828992,8289.92
829099,8290.99
829209,8292.09
829310,8293.1
829412,8294.12
829511,8295.11
829602,8296.02
829689,8296.89
829774,8297.74
829856,8298.56
829940,8299.4
830021,8300.21
830108,8301.08
830203,8302.03
830290,8302.9
830376,8303.76
830480,8304.8
830644,8306.44
830789,8307.89
830927,8309.27
831058,8310.58
831167,8311.67
831263,8312.63
831355,8313.55
831445,8314.45
831534,8315.34
831622,8316.22
831707,8317.07
831786,8317.86
831865,8318.65
831949,8319.49
832047,8320.47
832145,8321.45
832246,8322.46
832341,8323.41
832447,8324.47
832602,8326.02
832739,8327.39
832864,8328.64
832988,8329.88
833117,8331.17
833233,8332.33
833339,8333.39
833437,8334.37
833543,8335.43
833688,8336.88
833821,8338.21
833933,8339.33
834030,8340.3
834126,8341.26
834223,8342.23
834326,8343.26
834427,8344.27
834528,8345.28
834678,8346.78
834814,8348.14
834942,8349.42
835049,8350.49
835143,8351.43
835234,8352.34
835328,8353.28
835421,8354.21
835516,8355.16
835632,8356.32
835774,8357.74
835890,8358.9
836012,8360.12
836134,8361.34
836242,8362.42
836338,8363.38
836432,8364.32
836527,8365.27
836621,8366.21
836714,8367.14
836823,8368.23
836970,8369.7
837096,8370.96
837200,8372.0
837300,8373.0
837398,8373.98
837497,8374.97
837592,8375.92
837692,8376.92
837800,8378.0
837944,8379.44
838064,8380.64
838176,8381.76
838283,8382.83
838388,8383.88
838484,8384.84
838576,8385.76
838672,8386.72
838781,8387.81
838882,8388.82
838981,8389.81
839084,8390.84
839188,8391.88
839284,8392.84
839381,8393.81
839481,8394.81
839582,8395.82
839680,8396.8
839780,8397.8
839877,8398.77
839970,8399.7
840057,8400.57
840142,8401.42
840225,8402.25
840307,8403.07
840386,8403.86
840466,8404.66
840554,8405.54
840647,8406.47
840727,8407.27
840808,8408.08
840944,8409.44
841074,8410.74
841202,8412.02
841329,8413.29
841437,8414.37
841532,8415.32
841625,8416.25
841721,8417.21
841816,8418.16
841916,8419.16
842031,8420.31
842161,8421.61
842270,8422.7
842374,8423.74
842476,8424.76
842572,8425.72
842664,8426.64
842759,8427.59
842858,8428.58
842968,8429.68
843075,8430.75
843199,8431.99
843333,8433.33
843457,8434.57
843568,8435.68
843679,8436.79
843779,8437.79
843870,8438.7
843957,8439.57
844048,8440.48
844154,8441.54
844266,8442.66
844372,8443.72
844509,8445.09
844641,8446.41
844764,8447.64
844875,8448.75
844986,8449.86
845093,8450.93
845201,8452.01
845296,8452.96
845397,8453.97
845497,8454.97
845595,8455.95
845686,8456.86
845773,8457.73
845860,8458.6
845949,8459.49
846037,8460.37
846123,8461.23
846211,8462.11
846296,8462.96
846376,8463.76
846454,8464.54
846532,8465.32
846614,8466.14
846705,8467.05
846791,8467.91
846873,8468.73
846957,8469.57
847039,8470.39
847124,8471.24
847209,8472.09
847294,8472.94
847377,8473.77
847458,8474.58
847536,8475.36
847613,8476.13
847688,8476.88
847763,8477.63
847836,8478.36
847909,8479.09
847983,8479.83
848056,8480.56
848129,8481.29
848203,8482.03
848281,8482.81
848364,8483.64
848456,8484.56
848559,8485.59
848654,8486.54
848743,8487.43
848833,8488.33
848935,8489.35
849006,8490.06
849077,8490.77
849188,8491.88
849287,8492.87
849378,8493.78
849463,8494.63
849547,8495.47
849637,8496.37
849792,8497.92
849924,8499.24
850062,8500.62
850194,8501.94
850308,8503.08
850404,8504.04
850493,8504.93
850583,8505.83
850660,8506.6
850738,8507.38
850858,8508.58
850979,8509.79
851108,8511.08
851226,8512.26
851331,8513.31
851444,8514.44
851578,8515.78
851702,8517.02
851811,8518.11
851944,8519.44
852069,8520.69
852171,8521.71
852263,8522.63
852357,8523.57
852459,8524.59
852577,8525.77
852685,8526.85
852801,8528.01
852936,8529.36
853059,8530.59
853166,8531.66
853293,8532.93
853412,8534.12
853512,8535.12
853605,8536.05
853704,8537.04
853813,8538.13
853942,8539.42
854057,8540.57
854161,8541.61
854261,8542.61
854364,8543.64
854463,8544.63
854562,8545.62
854672,8546.72
854782,8547.82
854882,8548.82
854990,8549.9
855093,8550.93
855188,8551.88
855283,8552.83
855377,8553.77
855467,8554.67
855553,8555.53
855640,8556.4
855728,8557.28
855814,8558.14
855898,8558.98
855987,8559.87
856092,8560.92
856192,8561.92
856285,8562.85
856375,8563.75
856462,8564.62
856550,8565.5
856625,8566.25
856760,8567.6
856902,8569.02
857037,8570.37
857163,8571.63
857276,8572.76
857379,8573.79
857477,8574.77
857572,8575.72
857675,8576.75
857751,8577.51
857827,8578.27
857893,8578.93
857960,8579.6
858067,8580.67
858165,8581.65
858262,8582.62
858372,8583.72
858495,8584.95
858618,8586.18
858750,8587.5
858879,8588.79
858987,8589.87
859093,8590.93
859202,8592.02
859329,8593.29
859441,8594.41
859548,8595.48
859662,8596.62
859781,8597.81
859887,8598.87
859988,8599.88
860095,8600.95
860212,8602.12
860316,8603.16
860422,8604.22
860560,8605.6
860675,8606.75
860776,8607.76
860872,8608.72
860970,8609.7
861072,8610.72
861173,8611.73
861324,8613.24
861458,8614.58
861578,8615.78
861683,8616.83
861798,8617.98
861914,8619.14
862016,8620.16
862111,8621.11
862212,8622.12
862318,8623.18
862427,8624.27
862528,8625.28
862633,8626.33
862746,8627.46
862858,8628.58
862958,8629.58
863054,8630.54
863149,8631.49
863249,8632.49
863346,8633.46
863450,8634.5
863594,8635.94
863718,8637.18
863820,8638.2
863917,8639.17
864015,8640.15
864110,8641.1
864204,8642.04
864304,8643.04
864407,8644.07
864508,8645.08
864605,8646.05
864703,8647.03
864808,8648.08
864952,8649.52
865074,8650.74
865182,8651.82
865283,8652.83
865380,8653.8
865476,8654.76
865571,8655.71
865688,8656.88
865825,8658.25
865947,8659.47
866054,8660.54
866175,8661.75
866299,8662.99
866404,8664.04
866506,8665.06
866607,8666.07
866705,8667.05
866798,8667.98
866896,8668.96
867006,8670.06
867146,8671.46
867264,8672.64
867383,8673.83
867498,8674.98
867599,8675.99
867690,8676.9
867784,8677.84
867886,8678.86
867995,8679.95
868094,8680.94
868197,8681.97
868294,8682.94
868399,8683.99
868500,8685.0
868611,8686.11
868758,8687.58
868888,8688.88
868999,8689.99
869124,8691.24
869247,8692.47
869353,8693.53
869460,8694.6
869564,8695.64
869666,8696.66
869762,8697.62
869860,8698.6
869961,8699.61
870068,8700.68
870172,8701.72
870270,8702.7
870374,8703.74
870483,8704.83
870586,8705.86
870685,8706.85
870789,8707.89
870895,8708.95
870994,8709.94
871091,8710.91
871195,8711.95
871306,8713.06
871404,8714.04
871506,8715.06
871610,8716.1
871714,8717.14
871813,8718.13
871921,8719.21
872033,8720.33
872153,8721.53
872263,8722.63
872369,8723.69
872475,8724.75
872571,8725.71
872663,8726.63
872756,8727.56
872861,8728.61
872971,8729.71
873079,8730.79
873217,8732.17
873345,8733.45
873454,8734.54
873554,8735.54
873649,8736.49
873747,8737.47
873846,8738.46
873944,8739.44
874095,8740.95
874231,8742.31
874349,8743.49
874468,8744.68
874601,8746.01
874722,8747.22
874820,8748.2
874924,8749.24
875036,8750.36
875141,8751.41
875238,8752.38
875354,8753.54
875489,8754.89
875611,8756.11
875708,8757.08
875801,8758.01
875900,8759.0
876000,8760.0
876109,8761.09
876263,8762.63
876399,8763.99
876512,8765.12
876619,8766.19
876717,8767.17
876811,8768.11
876903,8769.03
876999,8769.99
877078,8770.78
877157,8771.57
877285,8772.85
877402,8774.02
877517,8775.17
877618,8776.18
877716,8777.16
877862,8778.62
877985,8779.85
878083,8780.83
878178,8781.78
878278,8782.78
878388,8783.88
878491,8784.91
878617,8786.17
878749,8787.49
878868,8788.68
878973,8789.73
879079,8790.79
879184,8791.84
879284,8792.84
879382,8793.82
879491,8794.91
879611,8796.11
879729,8797.29
879830,8798.3
879931,8799.31
880040,8800.4
880151,8801.51
880250,8802.5
880349,8803.49
880448,8804.48
880551,8805.51
880648,8806.48
880746,8807.46
880850,8808.5
880968,8809.68
881093,8810.93
881210,8812.1
881328,8813.28
881437,8814.37
881534,8815.34
881637,8816.37
881741,8817.41
881844,8818.44
881939,8819.39
882036,8820.36
882136,8821.36
882239,8822.39
882336,8823.36
882435,8824.35
882535,8825.35
882634,8826.34
882727,8827.27
882820,8828.2
882917,8829.17
883020,8830.2
883121,8831.21
883220,8832.2
883331,8833.31
883471,8834.71
883592,8835.92
883701,8837.01
883805,8838.05
883911,8839.11
884008,8840.08
884104,8841.04
884205,8842.05
884319,8843.19
884440,8844.4
884556,8845.56
884683,8846.83
884805,8848.05
884910,8849.1
885019,8850.19
885144,8851.44
885258,8852.58
885362,8853.62
885465,8854.65
885570,8855.7
885666,8856.66
885761,8857.61
885862,8858.62
885971,8859.71
886073,8860.73
886178,8861.78
886289,8862.89
886423,8864.23
886538,8865.38
886659,8866.59
886784,8867.84
886897,8868.97
886997,8869.97
887101,8871.01
887208,8872.08
887311,8873.11
887409,8874.09
887518,8875.18
887627,8876.27
887729,8877.29
887823,8878.23
887919,8879.19
888022,8880.22
888126,8881.26
888224,8882.24
888353,8883.53
888469,8884.69
888596,8885.96
888698,8886.98
888793,8887.93
888890,8888.9
888990,8889.9
889095,8890.95
889175,8891.75
889256,8892.56
889396,8893.96
889518,8895.18
889650,8896.5
889773,8897.73
889874,8898.74
889973,8899.73
890081,8900.81
890217,8902.17
890354,8903.54
890484,8904.84
890612,8906.12
890718,8907.18
890829,8908.29
890948,8909.48
891061,8910.61
891162,8911.62
891267,8912.67
891385,8913.85
891501,8915.01
891610,8916.1
891717,8917.17
891817,8918.17
891912,8919.12
892011,8920.11
892112,8921.12
892211,8922.11
892306,8923.06
892407,8924.07
892514,8925.14
892615,8926.15
892711,8927.11
892811,8928.11
892914,8929.14
893016,8930.16
893113,8931.13
893210,8932.1
893315,8933.15
893388,8933.88
893461,8934.61
893586,8935.86
893708,8937.08
893825,8938.25
893929,8939.29
894024,8940.24
894124,8941.24
894229,8942.29
894332,8943.32
894430,8944.3
894536,8945.36
894611,8946.11
894687,8946.87
894798,8947.98
894910,8949.1
895008,8950.08
895113,8951.13
895216,8952.16
895312,8953.12
895435,8954.35
895572,8955.72
895691,8956.91
895814,8958.14
895936,8959.36
896051,8960.51
896153,8961.53
896262,8962.62
896381,8963.81
896490,8964.9
896592,8965.92
896731,8967.31
896861,8968.61
896972,8969.72
897088,8970.88
897210,8972.1
897325,8973.25
897430,8974.3
897541,8975.41
897661,8976.61
897775,8977.75
897875,8978.75
897974,8979.74
898072,8980.72
898170,8981.7
898265,8982.65
898367,8983.67
898471,8984.71
898577,8985.77
898674,8986.74
898775,8987.75
898880,8988.8
898985,8989.85
899084,8990.84
899197,8991.97
899335,8993.35
899449,8994.49
899550,8995.5
899645,8996.45
899745,8997.45
899845,8998.45
899944,8999.44
900021,9000.21
900098,9000.98
900221,9002.21
900344,9003.44
900456,9004.56
900591,9005.91
900709,9007.09
900817,9008.17
900927,9009.27
901038,9010.38
901139,9011.39
901245,9012.45
901355,9013.55
901459,9014.59
901562,9015.62
901675,9016.75
901799,9017.99
901910,9019.1
902019,9020.19
902130,9021.3
902234,9022.34
902331,9023.31
902435,9024.35
902541,9025.41
902641,9026.41
902744,9027.44
902854,9028.54
902963,9029.63
903060,9030.6
903163,9031.63
903263,9032.63
903362,9033.62
903458,9034.58
903558,9035.58
903662,9036.62
903762,9037.62
903858,9038.58
903961,9039.61
904087,9040.87
904220,9042.2
904325,9043.25
904426,9044.26
904532,9045.32
904633,9046.33
904729,9047.29
904835,9048.35
904972,9049.72
905097,9050.97
905209,9052.09
905339,9053.39
905457,9054.57
905561,9055.61
905659,9056.59
905759,9057.59
905871,9058.71
905983,9059.83
906097,9060.97
906228,9062.28
906351,9063.51
906451,9064.51
906550,9065.5
906649,9066.49
906743,9067.43
906836,9068.36
906934,9069.34
907039,9070.39
907189,9071.89
907315,9073.15
907443,9074.43
907563,9075.63
907668,9076.68
907774,9077.74
907880,9078.8
907985,9079.85
908083,9080.83
908183,9081.83
908285,9082.85
908395,9083.95
908494,9084.94
908593,9085.93
908695,9086.95
908800,9088.0
908896,9088.96
908991,9089.91
909087,9090.87
909189,9091.89
909292,9092.92
909392,9093.92
909469,9094.69
909546,9095.46
909671,9096.71
909779,9097.79
909885,9098.85
909993,9099.93
910099,9100.99
910198,9101.98
910307,9103.07
910447,9104.47
910570,9105.7
910677,9106.77
910787,9107.87
910896,9108.96
910993,9109.93
911091,9110.91
911189,9111.89
911297,9112.97
911401,9114.01
911505,9115.05
911580,9115.8
911655,9116.55
911780,9117.8
911888,9118.88
911993,9119.93
912094,9120.94
912192,9121.92
912296,9122.96
912417,9124.17
912538,9125.38
912649,9126.49
912758,9127.58
912868,9128.68
912968,9129.68
913066,9130.66
913169,9131.69
913275,9132.75
913384,9133.84
913485,9134.85
913592,9135.92
913706,9137.06
913833,9138.33
913951,9139.51
914080,9140.8
914204,9142.04
914310,9143.1
914417,9144.17
914524,9145.24
914625,9146.25
914719,9147.19
914812,9148.12
914906,9149.06
915008,9150.08
915108,9151.08
915227,9152.27
915364,9153.64
915484,9154.84
915601,9156.01
915717,9157.17
915827,9158.27
915927,9159.27
916032,9160.32
916144,9161.44
916259,9162.59
916356,9163.56
916451,9164.51
916549,9165.49
916649,9166.49
916746,9167.46
916856,9168.56
917001,9170.01
917127,9171.27
917229,9172.29
917328,9173.28
917423,9174.23
917519,9175.19
917614,9176.14
917730,9177.3
917865,9178.65
917983,9179.83
918082,9180.82
918178,9181.78
918281,9182.81
918386,9183.86
918490,9184.9
918648,9186.48
918784,9187.84
918896,9188.96
919029,9190.29
919151,9191.51
919254,9192.54
919353,9193.53
919454,9194.54
919556,9195.56
919655,9196.55
919806,9198.06
919936,9199.36
920043,9200.43
920154,9201.54
