sample,time_sec
77924,779.24
78177,781.77
78300,783.0
80356,803.56
82412,824.12
82460,824.6
82502,825.02
82560,825.6
82606,826.06
82666,826.66
82714,827.14
82758,827.58
82817,828.17
82868,828.68
82921,829.21
82958,829.58
82994,829.94
83062,830.62
83145,831.45
83298,832.98
83435,834.35
83503,835.03
83572,835.72
83719,837.19
83770,837.7
83811,838.11
83844,838.44
83880,838.8
83993,839.93
84037,840.37
84114,841.14
84171,841.71
84223,842.23
113544,1135.44
113627,1136.27
113665,1136.65
113894,1138.94
114124,1141.24
114290,1142.9
114342,1143.42
114389,1143.89
114437,1144.37
114533,1145.33
114598,1145.98
114720,1147.2
114843,1148.43
114947,1149.47
115048,1150.48
115154,1151.54
115247,1152.47
115349,1153.49
115456,1154.56
115543,1155.43
115627,1156.27
115692,1156.92
115784,1157.84
115869,1158.69
115933,1159.33
116028,1160.28
116109,1161.09
116189,1161.89
116253,1162.53
116343,1163.43
116419,1164.19
116498,1164.98
116581,1165.81
116670,1166.7
116762,1167.62
116835,1168.35
116928,1169.28
116997,1169.97
117085,1170.85
117181,1171.81
117236,1172.36
117281,1172.81
117345,1173.45
117379,1173.79
117433,1174.33
117482,1174.82
117582,1175.82
117687,1176.87
117795,1177.95
117898,1178.98
118006,1180.06
118107,1181.07
118210,1182.1
118322,1183.22
118413,1184.13
118512,1185.12
118618,1186.18
118717,1187.17
118818,1188.18
118919,1189.19
119011,1190.11
119110,1191.1
119216,1192.16
119314,1193.14
119416,1194.16
119523,1195.23
119624,1196.24
119730,1197.3
119829,1198.29
119931,1199.31
120043,1200.43
120155,1201.55
120270,1202.7
120385,1203.85
120503,1205.03
120615,1206.15
120727,1207.27
120819,1208.19
120912,1209.12
121015,1210.15
121112,1211.12
121220,1212.2
121321,1213.21
121419,1214.19
121524,1215.24
121631,1216.31
121729,1217.29
121834,1218.34
121946,1219.46
122044,1220.44
122142,1221.42
122259,1222.59
122364,1223.64
122465,1224.65
122573,1225.73
122672,1226.72
122763,1227.63
122864,1228.64
122975,1229.75
123074,1230.74
123185,1231.85
123291,1232.91
123404,1234.04
123526,1235.26
123634,1236.34
123743,1237.43
123848,1238.48
123953,1239.53
124053,1240.53
124160,1241.6
124264,1242.64
124361,1243.61
124461,1244.61
124559,1245.59
124658,1246.58
124759,1247.59
124851,1248.51
124947,1249.47
125040,1250.4
125138,1251.38
125238,1252.38
125332,1253.32
125426,1254.26
125525,1255.25
125617,1256.17
125713,1257.13
125813,1258.13
125911,1259.11
126014,1260.14
126111,1261.11
126213,1262.13
126322,1263.22
126420,1264.2
126519,1265.19
126626,1266.26
126729,1267.29
126838,1268.38
126936,1269.36
127040,1270.4
127141,1271.41
127245,1272.45
127351,1273.51
127455,1274.55
127544,1275.44
127643,1276.43
127749,1277.49
127839,1278.39
127929,1279.29
128028,1280.28
128117,1281.17
128206,1282.06
128294,1282.94
128382,1283.82
128469,1284.69
128558,1285.58
128647,1286.47
128734,1287.34
128818,1288.18
128898,1288.98
128961,1289.61
129060,1290.6
129160,1291.6
129259,1292.59
129362,1293.62
129461,1294.61
129563,1295.63
129660,1296.6
129755,1297.55
129854,1298.54
129949,1299.49
130043,1300.43
130135,1301.35
130231,1302.31
130326,1303.26
130420,1304.2
130515,1305.15
130613,1306.13
130711,1307.11
130804,1308.04
130891,1308.91
130977,1309.77
131061,1310.61
131125,1311.25
131225,1312.25
131325,1313.25
131410,1314.1
131493,1314.93
131557,1315.57
131658,1316.58
131760,1317.6
131852,1318.52
131943,1319.43
132015,1320.15
132119,1321.19
132206,1322.06
132270,1322.7
132316,1323.16
132380,1323.8
132468,1324.68
132556,1325.56
132639,1326.39
132703,1327.03
132806,1328.06
132889,1328.89
132967,1329.67
133036,1330.36
133132,1331.32
133226,1332.26
133322,1333.22
133418,1334.18
133450,1334.5
133512,1335.12
133599,1335.99
133685,1336.85
133748,1337.48
133852,1338.52
133943,1339.43
134034,1340.34
134122,1341.22
134211,1342.11
134303,1343.03
134394,1343.94
134489,1344.89
134582,1345.82
134676,1346.76
134776,1347.76
134877,1348.77
134969,1349.69
135059,1350.59
135150,1351.5
135215,1352.15
135339,1353.39
135463,1354.63
135567,1355.67
135694,1356.94
135816,1358.16
135920,1359.2
136021,1360.21
136127,1361.27
136232,1362.32
136293,1362.93
136336,1363.36
136436,1364.36
136538,1365.38
136639,1366.39
136742,1367.42
136844,1368.44
136942,1369.42
137006,1370.06
137126,1371.26
137246,1372.46
137348,1373.48
137442,1374.42
137543,1375.43
137644,1376.44
137747,1377.47
137851,1378.51
137957,1379.57
138063,1380.63
138163,1381.63
138251,1382.51
138315,1383.15
138434,1384.34
138553,1385.53
138644,1386.44
138727,1387.27
138791,1387.91
138918,1389.18
139045,1390.45
139151,1391.51
139251,1392.51
139348,1393.48
139438,1394.38
139502,1395.02
139625,1396.25
139749,1397.49
139854,1398.54
139966,1399.66
140067,1400.67
140175,1401.75
140294,1402.94
140386,1403.86
140450,1404.5
140580,1405.8
140696,1406.96
140808,1408.08
140917,1409.17
141013,1410.13
141109,1411.09
141197,1411.97
141262,1412.62
141387,1413.87
141513,1415.13
141618,1416.18
141717,1417.17
141820,1418.2
141919,1419.19
142019,1420.19
142124,1421.24
142227,1422.27
142327,1423.27
142422,1424.22
142488,1424.88
142604,1426.04
142721,1427.21
142812,1428.12
142906,1429.06
143002,1430.02
143097,1430.97
143186,1431.86
143277,1432.77
143339,1433.39
143454,1434.54
143570,1435.7
143661,1436.61
143755,1437.55
143854,1438.54
143957,1439.57
144044,1440.44
144108,1441.08
144218,1442.18
144329,1443.29
144424,1444.24
144525,1445.25
144621,1446.21
144717,1447.17
144816,1448.16
144911,1449.11
145004,1450.04
145099,1450.99
145181,1451.81
145248,1452.48
145373,1453.73
145477,1454.77
145571,1455.71
145668,1456.68
145764,1457.64
145857,1458.57
145954,1459.54
146036,1460.36
146100,1461.0
146211,1462.11
146322,1463.22
146402,1464.02
146467,1464.67
146588,1465.88
146684,1466.84
146776,1467.76
146867,1468.67
146931,1469.31
147043,1470.43
147130,1471.3
147216,1472.16
147279,1472.79
147385,1473.85
147467,1474.67
147529,1475.29
147635,1476.35
147720,1477.2
147806,1478.06
147869,1478.69
147978,1479.78
148067,1480.67
148160,1481.6
148252,1482.52
148342,1483.42
148446,1484.46
148550,1485.5
148645,1486.45
148742,1487.42
148846,1488.46
148946,1489.46
149031,1490.31
149098,1490.98
149217,1492.17
149322,1493.22
149418,1494.18
149514,1495.14
149614,1496.14
149709,1497.09
149797,1497.97
149880,1498.8
149947,1499.47
150073,1500.73
150199,1501.99
150306,1503.06
150404,1504.04
150494,1504.94
150559,1505.59
150679,1506.79
150799,1507.99
150908,1509.08
151002,1510.02
151086,1510.86
151154,1511.54
151268,1512.68
151382,1513.82
151474,1514.74
151569,1515.69
151660,1516.6
151751,1517.51
151868,1518.68
151969,1519.69
152078,1520.78
152182,1521.82
152294,1522.94
152414,1524.14
152516,1525.16
152623,1526.23
152743,1527.43
152862,1528.62
152968,1529.68
153081,1530.81
153201,1532.01
153310,1533.1
153415,1534.15
153533,1535.33
153646,1536.46
153748,1537.48
153861,1538.61
153972,1539.72
154070,1540.7
154180,1541.8
154292,1542.92
154389,1543.89
154498,1544.98
154609,1546.09
154709,1547.09
154817,1548.17
154919,1549.19
155027,1550.27
155133,1551.33
155226,1552.26
155292,1552.92
155412,1554.12
155532,1555.32
155636,1556.36
155745,1557.45
155838,1558.38
155940,1559.4
156047,1560.47
156143,1561.43
156246,1562.46
156349,1563.49
156453,1564.53
156551,1565.51
156655,1566.55
156748,1567.48
156849,1568.49
156954,1569.54
157043,1570.43
157140,1571.4
157237,1572.37
157321,1573.21
157427,1574.27
157513,1575.13
157583,1575.83
157684,1576.84
157786,1577.86
157888,1578.88
157992,1579.92
158097,1580.97
158200,1582.0
158298,1582.98
158404,1584.04
158509,1585.09
158606,1586.06
158702,1587.02
158802,1588.02
158902,1589.02
158994,1589.94
159091,1590.91
159190,1591.9
159291,1592.91
159395,1593.95
159487,1594.87
159566,1595.66
159630,1596.3
159694,1596.94
159792,1597.92
159893,1598.93
160000,1600.0
160100,1601.0
160208,1602.08
160320,1603.2
160420,1604.2
160526,1605.26
160639,1606.39
160737,1607.37
160847,1608.47
160965,1609.65
161066,1610.66
161168,1611.68
161281,1612.81
161387,1613.87
161486,1614.86
161593,1615.93
161700,1617.0
161801,1618.01
161911,1619.11
162023,1620.23
162124,1621.24
162232,1622.32
162327,1623.27
162432,1624.32
162547,1625.47
162651,1626.51
162744,1627.44
162830,1628.3
162920,1629.2
163009,1630.09
163099,1630.99
163206,1632.06
163313,1633.13
163410,1634.1
163501,1635.01
163588,1635.88
163677,1636.77
163767,1637.67
163874,1638.74
163982,1639.82
164082,1640.82
164171,1641.71
164271,1642.71
164379,1643.79
164472,1644.72
164573,1645.73
164684,1646.84
164786,1647.86
164894,1648.94
165001,1650.01
165102,1651.02
165197,1651.97
165287,1652.87
165381,1653.81
165469,1654.69
165557,1655.57
165664,1656.64
165771,1657.71
165873,1658.73
165972,1659.72
166077,1660.77
166181,1661.81
166271,1662.71
166371,1663.71
166484,1664.84
166581,1665.81
166679,1666.79
166791,1667.91
166892,1668.92
166998,1669.98
167110,1671.1
167208,1672.08
167314,1673.14
167431,1674.31
167534,1675.34
167647,1676.47
167772,1677.72
167886,1678.86
168001,1680.01
168112,1681.12
168217,1682.17
168334,1683.34
168438,1684.38
168544,1685.44
168659,1686.59
168757,1687.57
168856,1688.56
168967,1689.67
169078,1690.78
169175,1691.75
169279,1692.79
169390,1693.9
169494,1694.94
169595,1695.95
169690,1696.9
169777,1697.77
169875,1698.75
169979,1699.79
170082,1700.82
170182,1701.82
170283,1702.83
170382,1703.82
170477,1704.77
170568,1705.68
170666,1706.66
170774,1707.74
170869,1708.69
170969,1709.69
171079,1710.79
171178,1711.78
171280,1712.8
171389,1713.89
171483,1714.83
171586,1715.86
171699,1716.99
171797,1717.97
171903,1719.03
172018,1720.18
172115,1721.15
172222,1722.22
172340,1723.4
172440,1724.4
172551,1725.51
172669,1726.69
172773,1727.73
172877,1728.77
172999,1729.99
173106,1731.06
173213,1732.13
173335,1733.35
173442,1734.42
173550,1735.5
173672,1736.72
173779,1737.79
173887,1738.87
174006,1740.06
174106,1741.06
174217,1742.17
174333,1743.33
174431,1744.31
174544,1745.44
174661,1746.61
174760,1747.6
174872,1748.72
174994,1749.94
175102,1751.02
175210,1752.1
175330,1753.3
175431,1754.31
175544,1755.44
175658,1756.58
175754,1757.54
175862,1758.62
175978,1759.78
176080,1760.8
176188,1761.88
176301,1763.01
176400,1764.0
176507,1765.07
176616,1766.16
176711,1767.11
176815,1768.15
176922,1769.22
177016,1770.16
177118,1771.18
177224,1772.24
177317,1773.17
177421,1774.21
177529,1775.29
177626,1776.26
177729,1777.29
177833,1778.33
177928,1779.28
178032,1780.32
178138,1781.38
178234,1782.34
178338,1783.38
178447,1784.47
178542,1785.42
178646,1786.46
178757,1787.57
178862,1788.62
178955,1789.55
179060,1790.6
179174,1791.74
179270,1792.7
179377,1793.77
179480,1794.8
179583,1795.83
179690,1796.9
179788,1797.88
179890,1798.9
180001,1800.01
180095,1800.95
180195,1801.95
180300,1803.0
180382,1803.82
180447,1804.47
180550,1805.5
180654,1806.54
180738,1807.38
180818,1808.18
180887,1808.87
181014,1810.14
181114,1811.14
181203,1812.03
181301,1813.01
181409,1814.09
181507,1815.07
181600,1816.0
181690,1816.9
181768,1817.68
181834,1818.34
181934,1819.34
182024,1820.24
182108,1821.08
182192,1821.92
182277,1822.77
182362,1823.62
182442,1824.42
182523,1825.23
182604,1826.04
182677,1826.77
182733,1827.33
182826,1828.26
182918,1829.18
182999,1829.99
183084,1830.84
183174,1831.74
183267,1832.67
183349,1833.49
183413,1834.13
183505,1835.05
183583,1835.83
183647,1836.47
183760,1837.6
183873,1838.73
183969,1839.69
184065,1840.65
184154,1841.54
184220,1842.2
184343,1843.43
184457,1844.57
184563,1845.63
184668,1846.68
184774,1847.74
184867,1848.67
184959,1849.59
185025,1850.25
185151,1851.51
185277,1852.77
185381,1853.81
185473,1854.73
185563,1855.63
185628,1856.28
185755,1857.55
185882,1858.82
185991,1859.91
186094,1860.94
186188,1861.88
186284,1862.84
186396,1863.96
186509,1865.09
186619,1866.19
186724,1867.24
186819,1868.19
186931,1869.31
187042,1870.42
187147,1871.47
187248,1872.48
187355,1873.55
187458,1874.58
187554,1875.54
187661,1876.61
187766,1877.66
187862,1878.62
187960,1879.6
188066,1880.66
188169,1881.69
188267,1882.67
188355,1883.55
188418,1884.18
188529,1885.29
188640,1886.4
188737,1887.37
188836,1888.36
188931,1889.31
189023,1890.23
189109,1891.09
189173,1891.73
189291,1892.91
189410,1894.1
189501,1895.01
189602,1896.02
189704,1897.04
189795,1897.95
189898,1898.98
189997,1899.97
190095,1900.95
190195,1901.95
190298,1902.98
190381,1903.81
190442,1904.42
190558,1905.58
190674,1906.74
190769,1907.69
190866,1908.66
190963,1909.63
191058,1910.58
191147,1911.47
191210,1912.1
191328,1913.28
191447,1914.47
191545,1915.45
191643,1916.43
191741,1917.41
191824,1918.24
191885,1918.85
191996,1919.96
192108,1921.08
192201,1922.01
192294,1922.94
192386,1923.86
192470,1924.7
192532,1925.32
192642,1926.42
192752,1927.52
192845,1928.45
192930,1929.3
193018,1930.18
193111,1931.11
193200,1932.0
193287,1932.87
193350,1933.5
193461,1934.61
193573,1935.73
193668,1936.68
193755,1937.55
193839,1938.39
193905,1939.05
194051,1940.51
194164,1941.64
194274,1942.74
194375,1943.75
194471,1944.71
194536,1945.36
194666,1946.66
194797,1947.97
194894,1948.94
194997,1949.97
195115,1951.15
195229,1952.29
195342,1953.42
195439,1954.39
195507,1955.07
195647,1956.47
195770,1957.7
195880,1958.8
195990,1959.9
196088,1960.88
196181,1961.81
196249,1962.49
196392,1963.92
196518,1965.18
196635,1966.35
196751,1967.51
196858,1968.58
196955,1969.55
197023,1970.23
197161,1971.61
197281,1972.81
197387,1973.87
197495,1974.95
197592,1975.92
197686,1976.86
197753,1977.53
197889,1978.89
198006,1980.06
198115,1981.15
198223,1982.23
198327,1983.27
198418,1984.18
198483,1984.83
198591,1985.91
198700,1987.0
198763,1987.63
198879,1988.79
198976,1989.76
199075,1990.75
199167,1991.67
199253,1992.53
199316,1993.16
199433,1994.33
199551,1995.51
199654,1996.54
199748,1997.48
199840,1998.4
199905,1999.05
200027,2000.27
200150,2001.5
200241,2002.41
200305,2003.05
200417,2004.17
200530,2005.3
200626,2006.26
200662,2006.62
200726,2007.26
200825,2008.25
200924,2009.24
201023,2010.23
201120,2011.2
201210,2012.1
201302,2013.02
201393,2013.93
201478,2014.78
201540,2015.4
201661,2016.61
201758,2017.58
201851,2018.51
201946,2019.46
202043,2020.43
202139,2021.39
202237,2022.37
202330,2023.3
202416,2024.16
202485,2024.85
202594,2025.94
202694,2026.94
202788,2027.88
202873,2028.73
202936,2029.36
203044,2030.44
203152,2031.52
203243,2032.43
203336,2033.36
203429,2034.29
203517,2035.17
203612,2036.12
203716,2037.16
203807,2038.07
203903,2039.03
204007,2040.07
204099,2040.99
204193,2041.93
204294,2042.94
204385,2043.85
204479,2044.79
204584,2045.84
204685,2046.85
204783,2047.83
204872,2048.72
204964,2049.64
205022,2050.22
205063,2050.63
205162,2051.62
205249,2052.49
205311,2053.11
205362,2053.62
205414,2054.14
205518,2055.18
205581,2055.81
205682,2056.82
205783,2057.83
205866,2058.66
205944,2059.44
206006,2060.06
206070,2060.7
206129,2061.29
206188,2061.88
206253,2062.53
206318,2063.18
206395,2063.95
206455,2064.55
206547,2065.47
206639,2066.39
206721,2067.21
206793,2067.93
206860,2068.6
206955,2069.55
207036,2070.36
207117,2071.17
207180,2071.8
207279,2072.79
207379,2073.79
207467,2074.67
207557,2075.57
207645,2076.45
207723,2077.23
207787,2077.87
207891,2078.91
207995,2079.95
208083,2080.83
208166,2081.66
208228,2082.28
208332,2083.32
208437,2084.37
208531,2085.31
208627,2086.27
208726,2087.26
208823,2088.23
208921,2089.21
209006,2090.06
209071,2090.71
209186,2091.86
209301,2093.01
209395,2093.95
209495,2094.95
209586,2095.86
209674,2096.74
209738,2097.38
209863,2098.63
209988,2099.88
210086,2100.86
210192,2101.92
210303,2103.03
210407,2104.07
210504,2105.04
210616,2106.16
210731,2107.31
210835,2108.35
210931,2109.31
211033,2110.33
211135,2111.35
211263,2112.63
211377,2113.77
211477,2114.77
211574,2115.74
211691,2116.91
211806,2118.06
211911,2119.11
212011,2120.11
212115,2121.15
212219,2122.19
212349,2123.49
212472,2124.72
212575,2125.75
212673,2126.73
212782,2127.82
212894,2128.94
213005,2130.05
213110,2131.1
213209,2132.09
213310,2133.1
213425,2134.25
213539,2135.39
213646,2136.46
213745,2137.45
213840,2138.4
213936,2139.36
214032,2140.32
214161,2141.61
214271,2142.71
214373,2143.73
214468,2144.68
214567,2145.67
214679,2146.79
214789,2147.89
214901,2149.01
215011,2150.11
215111,2151.11
215208,2152.08
215318,2153.18
215428,2154.28
215537,2155.37
215637,2156.37
215736,2157.36
215847,2158.47
215957,2159.57
216066,2160.66
216173,2161.73
216269,2162.69
216364,2163.64
216475,2164.75
216584,2165.84
216693,2166.93
216799,2167.99
216896,2168.96
216995,2169.95
217104,2171.04
217213,2172.13
217320,2173.2
217420,2174.2
217516,2175.16
217630,2176.3
217743,2177.43
217854,2178.54
217955,2179.55
218063,2180.63
218174,2181.74
218281,2182.81
218380,2183.8
218472,2184.72
218561,2185.61
218650,2186.5
218763,2187.63
218869,2188.69
218983,2189.83
219094,2190.94
219190,2191.9
219281,2192.81
219376,2193.76
219481,2194.81
219584,2195.84
219684,2196.84
219786,2197.86
219880,2198.8
219971,2199.71
220060,2200.6
220152,2201.52
220245,2202.45
220358,2203.58
220471,2204.71
220566,2205.66
220661,2206.61
220767,2207.67
220871,2208.71
220974,2209.74
221073,2210.73
221169,2211.69
221265,2212.65
221375,2213.75
221482,2214.82
221586,2215.86
221684,2216.84
221780,2217.8
221888,2218.88
221995,2219.95
222095,2220.95
222191,2221.91
222292,2222.92
222399,2223.99
222504,2225.04
222607,2226.07
222704,2227.04
222797,2227.97
222905,2229.05
223013,2230.13
223118,2231.18
223218,2232.18
223326,2233.26
223437,2234.37
223529,2235.29
223626,2236.26
223730,2237.3
223822,2238.22
223912,2239.12
224001,2240.01
224090,2240.9
224179,2241.79
224268,2242.68
224356,2243.56
224449,2244.49
224551,2245.51
224664,2246.64
224757,2247.57
224857,2248.57
224957,2249.57
225049,2250.49
225147,2251.47
225252,2252.52
225356,2253.56
225454,2254.54
225542,2255.42
225633,2256.33
225725,2257.25
225834,2258.34
225943,2259.43
226040,2260.4
226133,2261.33
226229,2262.29
226331,2263.31
226433,2264.33
226528,2265.28
226632,2266.32
226737,2267.37
226831,2268.31
226936,2269.36
227046,2270.46
227145,2271.45
227238,2272.38
227347,2273.47
227457,2274.57
227555,2275.55
227657,2276.57
227768,2277.68
227877,2278.77
227979,2279.79
228088,2280.88
228199,2281.99
228289,2282.89
228384,2283.84
228480,2284.8
228596,2285.96
228712,2287.12
228817,2288.17
228925,2289.25
229022,2290.22
229129,2291.29
229237,2292.37
229325,2293.25
229410,2294.1
229495,2294.95
229601,2296.01
229700,2297.0
229804,2298.04
229906,2299.06
230003,2300.03
230099,2300.99
230196,2301.96
230287,2302.87
230386,2303.86
230489,2304.89
230581,2305.81
230671,2306.71
230775,2307.75
230878,2308.78
230969,2309.69
231068,2310.68
231172,2311.72
231268,2312.68
231366,2313.66
231469,2314.69
231568,2315.68
231661,2316.61
231765,2317.65
231875,2318.75
231978,2319.78
232082,2320.82
232174,2321.74
232280,2322.8
232387,2323.87
232488,2324.88
232586,2325.86
232688,2326.88
232793,2327.93
232896,2328.96
232987,2329.87
233088,2330.88
233195,2331.95
233299,2332.99
233403,2334.03
233508,2335.08
233604,2336.04
233708,2337.08
233815,2338.15
233920,2339.2
234025,2340.25
234119,2341.19
234223,2342.23
234331,2343.31
234430,2344.3
234536,2345.36
234638,2346.38
234737,2347.37
234847,2348.47
234958,2349.58
235055,2350.55
235165,2351.65
235275,2352.75
235361,2353.61
235447,2354.47
235543,2355.43
235650,2356.5
235758,2357.58
235863,2358.63
235968,2359.68
236070,2360.7
236171,2361.71
236264,2362.64
236366,2363.66
236466,2364.66
236559,2365.59
236657,2366.57
236760,2367.6
236854,2368.54
236956,2369.56
237058,2370.58
237149,2371.49
237244,2372.44
237327,2373.27
237414,2374.14
237501,2375.01
237605,2376.05
237710,2377.1
237806,2378.06
237909,2379.09
238005,2380.05
238108,2381.08
238215,2382.15
238311,2383.11
238415,2384.15
238525,2385.25
238622,2386.22
238727,2387.27
238823,2388.23
238925,2389.25
239027,2390.27
239119,2391.19
239220,2392.2
239327,2393.27
239423,2394.23
239529,2395.29
239615,2396.15
239702,2397.02
239801,2398.01
239909,2399.09
240017,2400.17
240110,2401.1
240213,2402.13
240322,2403.22
240420,2404.2
240528,2405.28
240639,2406.39
240740,2407.4
240848,2408.48
240961,2409.61
241066,2410.66
241174,2411.74
241288,2412.88
241388,2413.88
241493,2414.93
241605,2416.05
241707,2417.07
241805,2418.05
241918,2419.18
242029,2420.29
242125,2421.25
242236,2422.36
242348,2423.48
242448,2424.48
242554,2425.54
242664,2426.64
242765,2427.65
242856,2428.56
242949,2429.49
243042,2430.42
243162,2431.62
243269,2432.69
243368,2433.68
243472,2434.72
243583,2435.83
243690,2436.9
243792,2437.92
243899,2438.99
244003,2440.03
244100,2441.0
244205,2442.05
244309,2443.09
244402,2444.02
244507,2445.07
244614,2446.14
244717,2447.17
244816,2448.16
244921,2449.21
245026,2450.26
245128,2451.28
245233,2452.33
245331,2453.31
245437,2454.37
245543,2455.43
245639,2456.39
245749,2457.49
245857,2458.57
245957,2459.57
246066,2460.66
246173,2461.73
246271,2462.71
246381,2463.81
246491,2464.91
246591,2465.91
246698,2466.98
246808,2468.08
246906,2469.06
247013,2470.13
247122,2471.22
247219,2472.19
247320,2473.2
247429,2474.29
247530,2475.3
247632,2476.32
247739,2477.39
247840,2478.4
247939,2479.39
248047,2480.47
248146,2481.46
248242,2482.42
248348,2483.48
248453,2484.53
248546,2485.46
248650,2486.5
248756,2487.56
248857,2488.57
248952,2489.52
249058,2490.58
249165,2491.65
249260,2492.6
249365,2493.65
249472,2494.72
249567,2495.67
249671,2496.71
249777,2497.77
249874,2498.74
249977,2499.77
250082,2500.82
250176,2501.76
250278,2502.78
250383,2503.83
250477,2504.77
250583,2505.83
250672,2506.72
250769,2507.69
250871,2508.71
250964,2509.64
251057,2510.57
251148,2511.48
251234,2512.34
251324,2513.24
251408,2514.08
251489,2514.89
251570,2515.7
251648,2516.48
251729,2517.29
251790,2517.9
251887,2518.87
251984,2519.84
252064,2520.64
252125,2521.25
252209,2522.09
252294,2522.94
252355,2523.55
252416,2524.16
252463,2524.63
252510,2525.1
252583,2525.83
252656,2526.56
252716,2527.16
252798,2527.98
252870,2528.7
252941,2529.41
253003,2530.03
253070,2530.7
253151,2531.51
253212,2532.12
253287,2532.87
253356,2533.56
253415,2534.15
253489,2534.89
253552,2535.52
253615,2536.15
253687,2536.87
253754,2537.54
253814,2538.14
253885,2538.85
253953,2539.53
254012,2540.12
254094,2540.94
254166,2541.66
254223,2542.23
254302,2543.02
254381,2543.81
254439,2544.39
254523,2545.23
254608,2546.08
254685,2546.85
254759,2547.59
254821,2548.21
254910,2549.1
254995,2549.95
255080,2550.8
255158,2551.58
255223,2552.23
255310,2553.1
255398,2553.98
255475,2554.75
255535,2555.35
255610,2556.1
255691,2556.91
255751,2557.51
255791,2557.91
255829,2558.29
255897,2558.97
255959,2559.59
256030,2560.3
256098,2560.98
256160,2561.6
256233,2562.33
256303,2563.03
256363,2563.63
256408,2564.08
256442,2564.42
256508,2565.08
256575,2565.75
256656,2566.56
256728,2567.28
256790,2567.9
256869,2568.69
256941,2569.41
257002,2570.02
257080,2570.8
257150,2571.5
257213,2572.13
257297,2572.97
257370,2573.7
257433,2574.33
257514,2575.14
257585,2575.85
257647,2576.47
257692,2576.92
257728,2577.28
257800,2578.0
257860,2578.6
257940,2579.4
258009,2580.09
258073,2580.73
258149,2581.49
258220,2582.2
258282,2582.82
258344,2583.44
258390,2583.9
258436,2584.36
258507,2585.07
258579,2585.79
258651,2586.51
258710,2587.1
258791,2587.91
258862,2588.62
258923,2589.23
258998,2589.98
259066,2590.66
259126,2591.26
259199,2591.99
259269,2592.69
259332,2593.32
259429,2594.29
259512,2595.12
259587,2595.87
259651,2596.51
259741,2597.41
259831,2598.31
259892,2598.92
259981,2599.81
260053,2600.53
260116,2601.16
260200,2602.0
260278,2602.78
260339,2603.39
260436,2604.36
260533,2605.33
260620,2606.2
260700,2607.0
260763,2607.63
260854,2608.54
260945,2609.45
261007,2610.07
261093,2610.93
261166,2611.66
261228,2612.28
261317,2613.17
261393,2613.93
261456,2614.56
261552,2615.52
261633,2616.33
261695,2616.95
261789,2617.89
261883,2618.83
261947,2619.47
262037,2620.37
262114,2621.14
262176,2621.76
262271,2622.71
262351,2623.51
262412,2624.12
262513,2625.13
262614,2626.14
262703,2627.03
262792,2627.92
262879,2628.79
262942,2629.42
263016,2630.16
263100,2631.0
263144,2631.44
263223,2632.23
263289,2632.89
263379,2633.79
263457,2634.57
263521,2635.21
263621,2636.21
263704,2637.04
263765,2637.65
263864,2638.64
263964,2639.64
264044,2640.44
264108,2641.08
264197,2641.97
264276,2642.76
264338,2643.38
264442,2644.42
264537,2645.37
264627,2646.27
264716,2647.16
264798,2647.98
264862,2648.62
264931,2649.31
264987,2649.87
265081,2650.81
265176,2651.76
265270,2652.7
265361,2653.61
265426,2654.26
265546,2655.46
265636,2656.36
265699,2656.99
265824,2658.24
265915,2659.15
265978,2659.78
266093,2660.93
266174,2661.74
266237,2662.37
266355,2663.55
266446,2664.46
266535,2665.35
266597,2665.97
266715,2667.15
266800,2668.0
266863,2668.63
266982,2669.82
267079,2670.79
267172,2671.72
267257,2672.57
267320,2673.2
267441,2674.41
267537,2675.37
267622,2676.22
267684,2676.84
267802,2678.02
267885,2678.85
267947,2679.47
268068,2680.68
268158,2681.58
268242,2682.42
268304,2683.04
268435,2684.35
268531,2685.31
268634,2686.34
268742,2687.42
268842,2688.42
268941,2689.41
269051,2690.51
269158,2691.58
269250,2692.5
269315,2693.15
269427,2694.27
269518,2695.18
269582,2695.82
269714,2697.14
269827,2698.27
269934,2699.34
270041,2700.41
270138,2701.38
270241,2702.41
270345,2703.45
270451,2704.51
270550,2705.5
270646,2706.46
270740,2707.4
270834,2708.34
270947,2709.47
271061,2710.61
271167,2711.67
271276,2712.76
271382,2713.82
271481,2714.81
271578,2715.78
271683,2716.83
271787,2717.87
271887,2718.87
271981,2719.81
272085,2720.85
272190,2721.9
272291,2722.91
272387,2723.87
272494,2724.94
272601,2726.01
272704,2727.04
272803,2728.03
272911,2729.11
273017,2730.17
273114,2731.14
273220,2732.2
273326,2733.26
273428,2734.28
273523,2735.23
273627,2736.27
273729,2737.29
273824,2738.24
273926,2739.26
274028,2740.28
274123,2741.23
274214,2742.14
274317,2743.17
274420,2744.2
274519,2745.19
274611,2746.11
274711,2747.11
274815,2748.15
274916,2749.16
275010,2750.1
275109,2751.09
275211,2752.11
275311,2753.11
275404,2754.04
275502,2755.02
275604,2756.04
275701,2757.01
275790,2757.9
275880,2758.8
275986,2759.86
276092,2760.92
276185,2761.85
276279,2762.79
276371,2763.71
276459,2764.59
276547,2765.47
276649,2766.49
276752,2767.52
276845,2768.45
276929,2769.29
277014,2770.14
277099,2770.99
277197,2771.97
277305,2773.05
277402,2774.02
277508,2775.08
277609,2776.09
277705,2777.05
277798,2777.98
277902,2779.02
278003,2780.03
278096,2780.96
278200,2782.0
278303,2783.03
278400,2784.0
278498,2784.98
278601,2786.01
278700,2787.0
278791,2787.91
278892,2788.92
278992,2789.92
279084,2790.84
279173,2791.73
279263,2792.63
279380,2793.8
279481,2794.81
279589,2795.89
279689,2796.89
279786,2797.86
279889,2798.89
279989,2799.89
280080,2800.8
280181,2801.81
280281,2802.81
280373,2803.73
280459,2804.59
280545,2805.45
280657,2806.57
280755,2807.55
280855,2808.55
280949,2809.49
281045,2810.45
281145,2811.45
281241,2812.41
281332,2813.32
281416,2814.16
281501,2815.01
281610,2816.1
281707,2817.07
281805,2818.05
281894,2818.94
281979,2819.79
282065,2820.65
282173,2821.73
282266,2822.66
282364,2823.64
282458,2824.58
282551,2825.51
282650,2826.5
282747,2827.47
282839,2828.39
282939,2829.39
283038,2830.38
283130,2831.3
283229,2832.29
283329,2833.29
283421,2834.21
283519,2835.19
283621,2836.21
283713,2837.13
283809,2838.09
283909,2839.09
284005,2840.05
284098,2840.98
284199,2841.99
284299,2842.99
284390,2843.9
284483,2844.83
284582,2845.82
284681,2846.81
284773,2847.73
284862,2848.62
284951,2849.51
285059,2850.59
285168,2851.68
285269,2852.69
285372,2853.72
285469,2854.69
285573,2855.73
285676,2856.76
285774,2857.74
285878,2858.78
285980,2859.8
286075,2860.75
286177,2861.77
286278,2862.78
286374,2863.74
286465,2864.65
286566,2865.66
286668,2866.68
286765,2867.65
286863,2868.63
286968,2869.68
287074,2870.74
287171,2871.71
287265,2872.65
287372,2873.72
287479,2874.79
287577,2875.77
287684,2876.84
287791,2877.91
287892,2878.92
288000,2880.0
288104,2881.04
288201,2882.01
288307,2883.07
288412,2884.12
288510,2885.1
288612,2886.12
288717,2887.17
288815,2888.15
288913,2889.13
289018,2890.18
289119,2891.19
289215,2892.15
289321,2893.21
289422,2894.22
289519,2895.19
289623,2896.23
289726,2897.26
289823,2898.23
289929,2899.29
290034,2900.34
290129,2901.29
290229,2902.29
290331,2903.31
290427,2904.27
290524,2905.24
290627,2906.27
290726,2907.26
290821,2908.21
290924,2909.24
291026,2910.26
291120,2911.2
291222,2912.22
291325,2913.25
291417,2914.17
291516,2915.16
291616,2916.16
291709,2917.09
291796,2917.96
291884,2918.84
291998,2919.98
292096,2920.96
292199,2921.99
292292,2922.92
292389,2923.89
292491,2924.91
292580,2925.8
292669,2926.69
292758,2927.58
292858,2928.58
292959,2929.59
293030,2930.3
293114,2931.14
293188,2931.88
293276,2932.76
293359,2933.59
293443,2934.43
293549,2935.49
293639,2936.39
293729,2937.29
293822,2938.22
293916,2939.16
294011,2940.11
294098,2940.98
294179,2941.79
294261,2942.61
294364,2943.64
294446,2944.46
294507,2945.07
294599,2945.99
294691,2946.91
294780,2947.8
294870,2948.7
294977,2949.77
295073,2950.73
295163,2951.63
295262,2952.62
295367,2953.67
295468,2954.68
295560,2955.6
295661,2956.61
295764,2957.64
295865,2958.65
295958,2959.58
296062,2960.62
296168,2961.68
296262,2962.62
296366,2963.66
296471,2964.71
296572,2965.72
296665,2966.65
296762,2967.62
296851,2968.51
296941,2969.41
297049,2970.49
297157,2971.57
297256,2972.56
297363,2973.63
297467,2974.67
297565,2975.65
297657,2976.57
297750,2977.5
297844,2978.44
297966,2979.66
298073,2980.73
298170,2981.7
298267,2982.67
298372,2983.72
298477,2984.77
298578,2985.78
298674,2986.74
298780,2987.8
298887,2988.87
298992,2989.92
299090,2990.9
299187,2991.87
299295,2992.95
299400,2994.0
299502,2995.02
299598,2995.98
299699,2996.99
299805,2998.05
299910,2999.1
300008,3000.08
300117,3001.17
300224,3002.24
300324,3003.24
300429,3004.29
300535,3005.35
300633,3006.33
300737,3007.37
300843,3008.43
300941,3009.41
301038,3010.38
301143,3011.43
301248,3012.48
301348,3013.48
301454,3014.54
301562,3015.62
301663,3016.63
301763,3017.63
301868,3018.68
301970,3019.7
302066,3020.66
302166,3021.66
302271,3022.71
302373,3023.73
302467,3024.67
302565,3025.65
302667,3026.67
302768,3027.68
302862,3028.62
302961,3029.61
303065,3030.65
303166,3031.66
303261,3032.61
303360,3033.6
303464,3034.64
303567,3035.67
303661,3036.61
303761,3037.61
303865,3038.65
303965,3039.65
304058,3040.58
304157,3041.57
304262,3042.62
304366,3043.66
304463,3044.63
304557,3045.57
304660,3046.6
304763,3047.63
304860,3048.6
304954,3049.54
305044,3050.44
305134,3051.34
305241,3052.41
305349,3053.49
305447,3054.47
305551,3055.51
305649,3056.49
305744,3057.44
305839,3058.39
305931,3059.31
306024,3060.24
306148,3061.48
306264,3062.64
306372,3063.72
306471,3064.71
306569,3065.69
306667,3066.67
306763,3067.63
306862,3068.62
306962,3069.62
307060,3070.6
307152,3071.52
307245,3072.45
307357,3073.57
307470,3074.7
307571,3075.71
307672,3076.72
307773,3077.73
307869,3078.69
307968,3079.68
308068,3080.68
308160,3081.6
308253,3082.53
308375,3083.75
308487,3084.87
308595,3085.95
308703,3087.03
308812,3088.12
308915,3089.15
309013,3090.13
309116,3091.16
309217,3092.17
309315,3093.15
309415,3094.15
309518,3095.18
309614,3096.14
309717,3097.17
309824,3098.24
309923,3099.23
310030,3100.3
310137,3101.37
310237,3102.37
310347,3103.47
310454,3104.54
310556,3105.56
310666,3106.66
310776,3107.76
310877,3108.77
310982,3109.82
311091,3110.91
311190,3111.9
311292,3112.92
311391,3113.91
311498,3114.98
311599,3115.99
311701,3117.01
311814,3118.14
311917,3119.17
312023,3120.23
312126,3121.26
312230,3122.3
312336,3123.36
312441,3124.41
312547,3125.47
312657,3126.57
312761,3127.61
312863,3128.63
312970,3129.7
313075,3130.75
313180,3131.8
313289,3132.89
313394,3133.94
313503,3135.03
313612,3136.12
313715,3137.15
313824,3138.24
313933,3139.33
314036,3140.36
314139,3141.39
314246,3142.46
314350,3143.5
314449,3144.49
314557,3145.57
314660,3146.6
314752,3147.52
314841,3148.41
314924,3149.24
315007,3150.07
315104,3151.04
315202,3152.02
315290,3152.9
315379,3153.79
315494,3154.94
315599,3155.99
315701,3157.01
315795,3157.95
315889,3158.89
315986,3159.86
316084,3160.84
316179,3161.79
316275,3162.75
316375,3163.75
316474,3164.74
316570,3165.7
316664,3166.64
316759,3167.59
316880,3168.8
317001,3170.01
317117,3171.17
317222,3172.22
317333,3173.33
317445,3174.45
317550,3175.5
317661,3176.61
317770,3177.7
317870,3178.7
317978,3179.78
318088,3180.88
318194,3181.94
318307,3183.07
318417,3184.17
318523,3185.23
318635,3186.35
318741,3187.41
318841,3188.41
318946,3189.46
319050,3190.5
319149,3191.49
319257,3192.57
319361,3193.61
319461,3194.61
319574,3195.74
319687,3196.87
319791,3197.91
319896,3198.96
320003,3200.03
320107,3201.07
320221,3202.21
320336,3203.36
320433,3204.33
320530,3205.3
320628,3206.28
320724,3207.24
320822,3208.22
320917,3209.17
321006,3210.06
321091,3210.91
321177,3211.77
321277,3212.77
321378,3213.78
321472,3214.72
321564,3215.64
321659,3216.59
321757,3217.57
321854,3218.54
321954,3219.54
322058,3220.58
322162,3221.62
322267,3222.67
322371,3223.71
322477,3224.77
322577,3225.77
322681,3226.81
322785,3227.85
322885,3228.85
322987,3229.87
323088,3230.88
323186,3231.86
323288,3232.88
323388,3233.88
323486,3234.86
323590,3235.9
323696,3236.96
323798,3237.98
323903,3239.03
324009,3240.09
324110,3241.1
324216,3242.16
324321,3243.21
324421,3244.21
324524,3245.24
324630,3246.3
324732,3247.32
324831,3248.31
324934,3249.34
325036,3250.36
325134,3251.34
325227,3252.27
325321,3253.21
325436,3254.36
325552,3255.52
325654,3256.54
325751,3257.51
325848,3258.48
325950,3259.5
326048,3260.48
326148,3261.48
326249,3262.49
326347,3263.47
326438,3264.38
326530,3265.3
326639,3266.39
326748,3267.48
326841,3268.41
326932,3269.32
327026,3270.26
327120,3271.2
327236,3272.36
327352,3273.52
327461,3274.61
327577,3275.77
327688,3276.88
327802,3278.02
327909,3279.09
328021,3280.21
328132,3281.32
328237,3282.37
328348,3283.48
328454,3284.54
328561,3285.61
328675,3286.75
328780,3287.8
328891,3288.91
329002,3290.02
329102,3291.02
329205,3292.05
329301,3293.01
329389,3293.89
329489,3294.89
329612,3296.12
329735,3297.35
329852,3298.52
329965,3299.65
330076,3300.76
330192,3301.92
330305,3303.05
330408,3304.08
330518,3305.18
330626,3306.26
330727,3307.27
330837,3308.37
330944,3309.44
331048,3310.48
331165,3311.65
331275,3312.75
331376,3313.76
331484,3314.84
331588,3315.88
331698,3316.98
331807,3318.07
331911,3319.11
332023,3320.23
332133,3321.33
332240,3322.4
332348,3323.48
332459,3324.59
332570,3325.7
332667,3326.67
332770,3327.7
332855,3328.55
332933,3329.33
333012,3330.12
333108,3331.08
333225,3332.25
333342,3333.42
333459,3334.59
333572,3335.72
333684,3336.84
333802,3338.02
333910,3339.1
334025,3340.25
334139,3341.39
334241,3342.41
334345,3343.45
334456,3344.56
334553,3345.53
334650,3346.5
334736,3347.36
334830,3348.3
334924,3349.24
335019,3350.19
335146,3351.46
335275,3352.75
335386,3353.86
335489,3354.89
335588,3355.88
335681,3356.81
335768,3357.68
335855,3358.55
335968,3359.68
336064,3360.64
336162,3361.62
336263,3362.63
336360,3363.6
336457,3364.57
336555,3365.55
336652,3366.52
336752,3367.52
336851,3368.51
336949,3369.49
337012,3370.12
337137,3371.37
337262,3372.62
337365,3373.65
337467,3374.67
337565,3375.65
337660,3376.6
337754,3377.54
337816,3378.16
337937,3379.37
338058,3380.58
338157,3381.57
338248,3382.48
338340,3383.4
338402,3384.02
338524,3385.24
338646,3386.46
338747,3387.47
338842,3388.42
338943,3389.43
339044,3390.44
339141,3391.41
339240,3392.4
339338,3393.38
339439,3394.39
339540,3395.4
339639,3396.39
339702,3397.02
339825,3398.25
339949,3399.49
340048,3400.48
340142,3401.42
340236,3402.36
340299,3402.99
340359,3403.59
340419,3404.19
340540,3405.4
340630,3406.3
340716,3407.16
340777,3407.77
340880,3408.8
340983,3409.83
341086,3410.86
341214,3412.14
341327,3413.27
341446,3414.46
341559,3415.59
341675,3416.75
341793,3417.93
341901,3419.01
342017,3420.17
342132,3421.32
342234,3422.34
342340,3423.4
342452,3424.52
342560,3425.6
342667,3426.67
342781,3427.81
342889,3428.89
343003,3430.03
343113,3431.13
343222,3432.22
343330,3433.3
343429,3434.29
343518,3435.18
343604,3436.04
343699,3436.99
343795,3437.95
343913,3439.13
344032,3440.32
344142,3441.42
344260,3442.6
344371,3443.71
344488,3444.88
344600,3446.0
344714,3447.14
344822,3448.22
344929,3449.29
345040,3450.4
345149,3451.49
345244,3452.44
345333,3453.33
345414,3454.14
345504,3455.04
345595,3455.95
345722,3457.22
345837,3458.37
345947,3459.47
346051,3460.51
346155,3461.55
346262,3462.62
346365,3463.65
346470,3464.7
346576,3465.76
346678,3466.78
346778,3467.78
346881,3468.81
346981,3469.81
347074,3470.74
347164,3471.64
347251,3472.51
347339,3473.39
347452,3474.52
347549,3475.49
347646,3476.46
347741,3477.41
347841,3478.41
347944,3479.44
348046,3480.46
348153,3481.53
348261,3482.61
348364,3483.64
348472,3484.72
348578,3485.78
348678,3486.78
348780,3487.8
348879,3488.79
348984,3489.84
349090,3490.9
349190,3491.9
349294,3492.94
349400,3494.0
349503,3495.03
349606,3496.06
349712,3497.12
349809,3498.09
349894,3498.94
349979,3499.79
350086,3500.86
350178,3501.78
350272,3502.72
350366,3503.66
350493,3504.93
350602,3506.02
350726,3507.26
350829,3508.29
350930,3509.3
351028,3510.28
351128,3511.28
351225,3512.25
351313,3513.13
351401,3514.01
351513,3515.13
351599,3515.99
351661,3516.61
351785,3517.85
351910,3519.1
352014,3520.14
352119,3521.19
352223,3522.23
352328,3523.28
352434,3524.34
352536,3525.36
352639,3526.39
352742,3527.42
352841,3528.41
352941,3529.41
353044,3530.44
353144,3531.44
353247,3532.47
353352,3533.52
353452,3534.52
353554,3535.54
353656,3536.56
353755,3537.55
353856,3538.56
353957,3539.57
354055,3540.55
354118,3541.18
354227,3542.27
354337,3543.37
354426,3544.26
354487,3544.87
354606,3546.06
354698,3546.98
354794,3547.94
354857,3548.57
354991,3549.91
355114,3551.14
355229,3552.29
355337,3553.37
355452,3554.52
355562,3555.62
355659,3556.59
355755,3557.55
355836,3558.36
355898,3558.98
356015,3560.15
356144,3561.44
356253,3562.53
356383,3563.83
356506,3565.06
356620,3566.2
356733,3567.33
356843,3568.43
356951,3569.51
357075,3570.75
357174,3571.74
357269,3572.69
357362,3573.62
357425,3574.25
357539,3575.39
357625,3576.25
357686,3576.86
357797,3577.97
357882,3578.82
357943,3579.43
358076,3580.76
358191,3581.91
358302,3583.02
358417,3584.17
358517,3585.17
358618,3586.18
358718,3587.18
358817,3588.17
358917,3589.17
359016,3590.16
359080,3590.8
359198,3591.98
359316,3593.16
359411,3594.11
359506,3595.06
359601,3596.01
359693,3596.93
359756,3597.56
359868,3598.68
359980,3599.8
360073,3600.73
360166,3601.66
360258,3602.58
360346,3603.46
360441,3604.41
360537,3605.37
360666,3606.66
360779,3607.79
360900,3609.0
361013,3610.13
361132,3611.32
361251,3612.51
361361,3613.61
361477,3614.77
361589,3615.89
361695,3616.95
361803,3618.03
361906,3619.06
362021,3620.21
362110,3621.1
362192,3621.92
362254,3622.54
362356,3623.56
362458,3624.58
362564,3625.64
362668,3626.68
362773,3627.73
362883,3628.83
362985,3629.85
363086,3630.86
363183,3631.83
363277,3632.77
363374,3633.74
363465,3634.65
363551,3635.51
363637,3636.37
363747,3637.47
363847,3638.47
363952,3639.52
364080,3640.8
364199,3641.99
364316,3643.16
364424,3644.24
364525,3645.25
364616,3646.16
364703,3647.03
364790,3647.9
364878,3648.78
364992,3649.92
365089,3650.89
365193,3651.93
365300,3653.0
365404,3654.04
365510,3655.1
365617,3656.17
365721,3657.21
365830,3658.3
365932,3659.32
366035,3660.35
366139,3661.39
366240,3662.4
366339,3663.39
366436,3664.36
366530,3665.3
366615,3666.15
366700,3667.0
366808,3668.08
366895,3668.95
366978,3669.78
367062,3670.62
367167,3671.67
367268,3672.68
367368,3673.68
367473,3674.73
367581,3675.81
367680,3676.8
367777,3677.77
367878,3678.78
367975,3679.75
368071,3680.71
368169,3681.69
368264,3682.64
368359,3683.59
368455,3684.55
368583,3685.83
368697,3686.97
368800,3688.0
368897,3688.97
368998,3689.98
369096,3690.96
369181,3691.81
369266,3692.66
369373,3693.73
369460,3694.6
369549,3695.49
369638,3696.38
369755,3697.55
369854,3698.54
369953,3699.53
370050,3700.5
370148,3701.48
370248,3702.48
370345,3703.45
370438,3704.38
370531,3705.31
370656,3706.56
370757,3707.57
370856,3708.56
370953,3709.53
371054,3710.54
371157,3711.57
371256,3712.56
371356,3713.56
371456,3714.56
371558,3715.58
371658,3716.58
371760,3717.6
371864,3718.64
371964,3719.64
372063,3720.63
372164,3721.64
372259,3722.59
372338,3723.38
372417,3724.17
372513,3725.13
372604,3726.04
372696,3726.96
372822,3728.22
372934,3729.34
373050,3730.5
373182,3731.82
373304,3733.04
373424,3734.24
373535,3735.35
373649,3736.49
373760,3737.6
373867,3738.67
373991,3739.91
374103,3741.03
374206,3742.06
374316,3743.16
374420,3744.2
374524,3745.24
374625,3746.25
374718,3747.18
374810,3748.1
374901,3749.01
374992,3749.92
375111,3751.11
375216,3752.16
375316,3753.16
375413,3754.13
375514,3755.14
375619,3756.19
375721,3757.21
375823,3758.23
375928,3759.28
376030,3760.3
376129,3761.29
376215,3762.15
376302,3763.02
376409,3764.09
376511,3765.11
376620,3766.2
376731,3767.31
376830,3768.3
376924,3769.24
377023,3770.23
377124,3771.24
377226,3772.26
377330,3773.3
377429,3774.29
377524,3775.24
377619,3776.19
377744,3777.44
377851,3778.51
377954,3779.54
378053,3780.53
378152,3781.52
378259,3782.59
378359,3783.59
378455,3784.55
378552,3785.52
378648,3786.48
378711,3787.11
378833,3788.33
378955,3789.55
379057,3790.57
379157,3791.57
379255,3792.55
379350,3793.5
379450,3794.5
379552,3795.52
379617,3796.17
379716,3797.16
379815,3798.15
379875,3798.75
379976,3799.76
380063,3800.63
380188,3801.88
380297,3802.97
380407,3804.07
380518,3805.18
380621,3806.21
380728,3807.28
380833,3808.33
380935,3809.35
381039,3810.39
381142,3811.42
381239,3812.39
381340,3813.4
381442,3814.42
381539,3815.39
381602,3816.02
381731,3817.31
381840,3818.4
381946,3819.46
382043,3820.43
382136,3821.36
382198,3821.98
382321,3823.21
382413,3824.13
382505,3825.05
382567,3825.67
382695,3826.95
382793,3827.93
382884,3828.84
382974,3829.74
383035,3830.35
383158,3831.58
383281,3832.81
383387,3833.87
383487,3834.87
383582,3835.82
383680,3836.8
383744,3837.44
383871,3838.71
383979,3839.79
384078,3840.78
384174,3841.74
384272,3842.72
384336,3843.36
384468,3844.68
384587,3845.87
384697,3846.97
384796,3847.96
384895,3848.95
384995,3849.95
385059,3850.59
385188,3851.88
385302,3853.02
385401,3854.01
385499,3854.99
385595,3855.95
385686,3856.86
385748,3857.48
385863,3858.63
385948,3859.48
386009,3860.09
386140,3861.4
386242,3862.42
386335,3863.35
386431,3864.31
386529,3865.29
386622,3866.22
386684,3866.84
386814,3868.14
386920,3869.2
387019,3870.19
387117,3871.17
387212,3872.12
387309,3873.09
387407,3874.07
387471,3874.71
387599,3875.99
387707,3877.07
387805,3878.05
387900,3879.0
387997,3879.97
388095,3880.95
388158,3881.58
388291,3882.91
388399,3883.99
388495,3884.95
388591,3885.91
388685,3886.85
388747,3887.47
388880,3888.8
388990,3889.9
389088,3890.88
389187,3891.87
389285,3892.85
389350,3893.5
389481,3894.81
389594,3895.94
389695,3896.95
389796,3897.96
389896,3898.96
389991,3899.91
390054,3900.54
390178,3901.78
390267,3902.67
390328,3903.28
390435,3904.35
390518,3905.18
390579,3905.79
390712,3907.12
390821,3908.21
390931,3909.31
391055,3910.55
391171,3911.71
391280,3912.8
391388,3913.88
391508,3915.08
391605,3916.05
391698,3916.98
391761,3917.61
391892,3918.92
392004,3920.04
392116,3921.16
392216,3922.16
392317,3923.17
392418,3924.18
392516,3925.16
392616,3926.16
392716,3927.16
392780,3927.8
392911,3929.11
393023,3930.23
393122,3931.22
393221,3932.21
393319,3933.19
393415,3934.15
393514,3935.14
393613,3936.13
393682,3936.82
393811,3938.11
393914,3939.14
394009,3940.09
394106,3941.06
394198,3941.98
394260,3942.6
394379,3943.79
394468,3944.68
394530,3945.3
394664,3946.64
394781,3947.81
394886,3948.86
394990,3949.9
395090,3950.9
395191,3951.91
395294,3952.94
395393,3953.93
395492,3954.92
395592,3955.92
395687,3956.87
395784,3957.84
395883,3958.83
395978,3959.78
396040,3960.4
396170,3961.7
396275,3962.75
396375,3963.75
396473,3964.73
396569,3965.69
396668,3966.68
396767,3967.67
396831,3968.31
396959,3969.59
397071,3970.71
397169,3971.69
397267,3972.67
397365,3973.65
397463,3974.63
397526,3975.26
397661,3976.61
397778,3977.78
397887,3978.87
397988,3979.88
398083,3980.83
398180,3981.8
398244,3982.44
398357,3983.57
398441,3984.41
398502,3985.02
398607,3986.07
398698,3986.98
398825,3988.25
398942,3989.42
399052,3990.52
399165,3991.65
399289,3992.89
399406,3994.06
399515,3995.15
399614,3996.14
399716,3997.16
399816,3998.16
399880,3998.8
400009,4000.09
400116,4001.16
400222,4002.22
400322,4003.22
400418,4004.18
400518,4005.18
400617,4006.17
400681,4006.81
400813,4008.13
400931,4009.31
401039,4010.39
401143,4011.43
401245,4012.45
401344,4013.44
401446,4014.46
401548,4015.48
401645,4016.45
401707,4017.07
401826,4018.26
401914,4019.14
401975,4019.75
402103,4021.03
402197,4021.97
402293,4022.93
402390,4023.9
402453,4024.53
402587,4025.87
402702,4027.02
402803,4028.03
402903,4029.03
403001,4030.01
403100,4031.0
403200,4032.0
403294,4032.94
403357,4033.57
403486,4034.86
403591,4035.91
403685,4036.85
403781,4037.81
403845,4038.45
403973,4039.73
404077,4040.77
404175,4041.75
404273,4042.73
404371,4043.71
404465,4044.65
404528,4045.28
404658,4046.58
404764,4047.64
404862,4048.62
404961,4049.61
405059,4050.59
405156,4051.56
405257,4052.57
405322,4053.22
405450,4054.5
405554,4055.54
405649,4056.49
405734,4057.34
405795,4057.95
405891,4058.91
405978,4059.78
406040,4060.4
406176,4061.76
406294,4062.94
406407,4064.07
406535,4065.35
406644,4066.44
406747,4067.47
406849,4068.49
406947,4069.47
407046,4070.46
407111,4071.11
407235,4072.35
407360,4073.6
407462,4074.62
407556,4075.56
407653,4076.53
407751,4077.51
407814,4078.14
407946,4079.46
408061,4080.61
408160,4081.6
408259,4082.59
408359,4083.59
408423,4084.23
408555,4085.55
408673,4086.73
408776,4087.76
408877,4088.77
408970,4089.7
409056,4090.56
409118,4091.18
409221,4092.21
409301,4093.01
409362,4093.62
409461,4094.61
409557,4095.57
409679,4096.79
409791,4097.91
409904,4099.04
410007,4100.07
410108,4101.08
410205,4102.05
410303,4103.03
410403,4104.03
410466,4104.66
410593,4105.93
410704,4107.04
410804,4108.04
410902,4109.02
411003,4110.03
411103,4111.03
411199,4111.99
411298,4112.98
411362,4113.62
411493,4114.93
411610,4116.1
411716,4117.16
411814,4118.14
411914,4119.14
412013,4120.13
412075,4120.75
412209,4122.09
412326,4123.26
412438,4124.38
412538,4125.38
412634,4126.34
412730,4127.3
412793,4127.93
412925,4129.25
413033,4130.33
413134,4131.34
413230,4132.3
413328,4133.28
413391,4133.91
413520,4135.2
413633,4136.33
413736,4137.36
413832,4138.32
413928,4139.28
413990,4139.9
414106,4141.06
414194,4141.94
414279,4142.79
414342,4143.42
414476,4144.76
414595,4145.95
414700,4147.0
414806,4148.06
414912,4149.12
415014,4150.14
415119,4151.19
415225,4152.25
415326,4153.26
415389,4153.89
415523,4155.23
415640,4156.4
415756,4157.56
415862,4158.62
415965,4159.65
416068,4160.68
416167,4161.67
416263,4162.63
416326,4163.26
416458,4164.58
416574,4165.74
416687,4166.87
416788,4167.88
416887,4168.87
416988,4169.88
417086,4170.86
417150,4171.5
417272,4172.72
417395,4173.95
417501,4175.01
417605,4176.05
417702,4177.02
417801,4178.01
417901,4179.01
417964,4179.64
418073,4180.73
418182,4181.82
418265,4182.65
418326,4183.26
418433,4184.33
418524,4185.24
418632,4186.32
418762,4187.62
418874,4188.74
418990,4189.9
419104,4191.04
419209,4192.09
419320,4193.2
419427,4194.27
419533,4195.33
419644,4196.44
419747,4197.47
419852,4198.52
419960,4199.6
420060,4200.6
420164,4201.64
420270,4202.7
420368,4203.68
420470,4204.7
420566,4205.66
420652,4206.52
420715,4207.15
420829,4208.29
420931,4209.31
421025,4210.25
421115,4211.15
421178,4211.78
421284,4212.84
421372,4213.72
421468,4214.68
421564,4215.64
421627,4216.27
421759,4217.59
421874,4218.74
421975,4219.75
422074,4220.74
422174,4221.74
422271,4222.71
422368,4223.68
422467,4224.67
422531,4225.31
422648,4226.48
422766,4227.66
422862,4228.62
422958,4229.58
423021,4230.21
423140,4231.4
423260,4232.6
423357,4233.57
423453,4234.53
423550,4235.5
423613,4236.13
423724,4237.24
423835,4238.35
423924,4239.24
424011,4240.11
424073,4240.73
424189,4241.89
424306,4243.06
424409,4244.09
424508,4245.08
424604,4246.04
424704,4247.04
424805,4248.05
424868,4248.68
424998,4249.98
425109,4251.09
425208,4252.08
425306,4253.06
425403,4254.03
425497,4254.97
425560,4255.6
425679,4256.79
425764,4257.64
425825,4258.25
425924,4259.24
426008,4260.08
426070,4260.7
426203,4262.03
426317,4263.17
426438,4264.38
426559,4265.59
426669,4266.69
426783,4267.83
426901,4269.01
427009,4270.09
427122,4271.22
427232,4272.32
427340,4273.4
427446,4274.46
427543,4275.43
427630,4276.3
427694,4276.94
427806,4278.06
427892,4278.92
427953,4279.53
428062,4280.62
428151,4281.51
428244,4282.44
428307,4283.07
428438,4284.38
428551,4285.51
428655,4286.55
428754,4287.54
428850,4288.5
428943,4289.43
429040,4290.4
429102,4291.02
429231,4292.31
429343,4293.43
429445,4294.45
429543,4295.43
429643,4296.43
429742,4297.42
429806,4298.06
429934,4299.34
430045,4300.45
430143,4301.43
430240,4302.4
430337,4303.37
430431,4304.31
430493,4304.93
430610,4306.1
430728,4307.28
430827,4308.27
430924,4309.24
431012,4310.12
431097,4310.97
431159,4311.59
431279,4312.79
431373,4313.73
431478,4314.78
431579,4315.79
431677,4316.77
431784,4317.84
431889,4318.89
431985,4319.85
432055,4320.55
432183,4321.83
432281,4322.81
432374,4323.74
432466,4324.66
432530,4325.3
432659,4326.59
432767,4327.67
432861,4328.61
432953,4329.53
433016,4330.16
433131,4331.31
433218,4332.18
433303,4333.03
433366,4333.66
433494,4334.94
433600,4336.0
433697,4336.97
433795,4337.95
433890,4338.9
433983,4339.83
434045,4340.45
434164,4341.64
434283,4342.83
434383,4343.83
434479,4344.79
434572,4345.72
434635,4346.35
434763,4347.63
434865,4348.65
434962,4349.62
435058,4350.58
435147,4351.47
435210,4352.1
435327,4353.27
435413,4354.13
435474,4354.74
435602,4356.02
435704,4357.04
435802,4358.02
435903,4359.03
436000,4360.0
436100,4361.0
436201,4362.01
436299,4362.99
436361,4363.61
436480,4364.8
436600,4366.0
436701,4367.01
436799,4367.99
436893,4368.93
436987,4369.87
437051,4370.51
437177,4371.77
437273,4372.73
437365,4373.65
437427,4374.27
437530,4375.3
437611,4376.11
437671,4376.71
437777,4377.77
437866,4378.66
437928,4379.28
438066,4380.66
438189,4381.89
438310,4383.1
438423,4384.23
438542,4385.42
438654,4386.54
438766,4387.66
438878,4388.78
438980,4389.8
439075,4390.75
439172,4391.72
439236,4392.36
439363,4393.63
439472,4394.72
439574,4395.74
439668,4396.68
439761,4397.61
439824,4398.24
439950,4399.5
440051,4400.51
440150,4401.5
440243,4402.43
440338,4403.38
440402,4404.02
440532,4405.32
440635,4406.35
440727,4407.27
440819,4408.19
440882,4408.82
441010,4410.1
441110,4411.1
441204,4412.04
441290,4412.9
441352,4413.52
441467,4414.67
441582,4415.82
441680,4416.8
441778,4417.78
441840,4418.4
441975,4419.75
442093,4420.93
442197,4421.97
442299,4422.99
442398,4423.98
442496,4424.96
442597,4425.97
442692,4426.92
442754,4427.54
442887,4428.87
443001,4430.01
443101,4431.01
443190,4431.9
443253,4432.53
443361,4433.61
443444,4434.44
443505,4435.05
443609,4436.09
443698,4436.98
443784,4437.84
443846,4438.46
443977,4439.77
444089,4440.89
444197,4441.97
444306,4443.06
444402,4444.02
444498,4444.98
444593,4445.93
444686,4446.86
444749,4447.49
444872,4448.72
444996,4449.96
445099,4450.99
445200,4452.0
445299,4452.99
445398,4453.98
445463,4454.63
445598,4455.98
445711,4457.11
445815,4458.15
445915,4459.15
446011,4460.11
446075,4460.75
446208,4462.08
446316,4463.16
446419,4464.19
446519,4465.19
446611,4466.11
446703,4467.03
446766,4467.66
446900,4469.0
447019,4470.19
447136,4471.36
447238,4472.38
447339,4473.39
447434,4474.34
447522,4475.22
447585,4475.85
447711,4477.11
447811,4478.11
447911,4479.11
448010,4480.1
448073,4480.73
448202,4482.02
448311,4483.11
448408,4484.08
448505,4485.05
448569,4485.69
448693,4486.93
448794,4487.94
448889,4488.89
448978,4489.78
449040,4490.4
449167,4491.67
449258,4492.58
449319,4493.19
449432,4494.32
449517,4495.17
449579,4495.79
449710,4497.1
449821,4498.21
449941,4499.41
450052,4500.52
450155,4501.55
450252,4502.52
450352,4503.52
450452,4504.52
450515,4505.15
450635,4506.35
450756,4507.56
450854,4508.54
450951,4509.51
451041,4510.41
451104,4511.04
451212,4512.12
451293,4512.93
451355,4513.55
451454,4514.54
451541,4515.41
451603,4516.03
451723,4517.23
451843,4518.43
451942,4519.42
452046,4520.46
452150,4521.5
452251,4522.51
452354,4523.54
452453,4524.53
452553,4525.53
452659,4526.59
452761,4527.61
452857,4528.57
452961,4529.61
453067,4530.67
453162,4531.62
453265,4532.65
453372,4533.72
453468,4534.68
453568,4535.68
453673,4536.73
453770,4537.7
453867,4538.67
453958,4539.58
454038,4540.38
454100,4541.0
454206,4542.06
454303,4543.03
454399,4543.99
454496,4544.96
454592,4545.92
454683,4546.83
454745,4547.45
454851,4548.51
454958,4549.58
455045,4550.45
455107,4551.07
455208,4552.08
455310,4553.1
455372,4553.72
455479,4554.79
455566,4555.66
455627,4556.27
455727,4557.27
455808,4558.08
455869,4558.69
455960,4559.6
456040,4560.4
456100,4561.0
456227,4562.27
456342,4563.42
456448,4564.48
456554,4565.54
456669,4566.69
456772,4567.72
456881,4568.81
456991,4569.91
457092,4570.92
457198,4571.98
457302,4573.02
457398,4573.98
457496,4574.96
457578,4575.78
457642,4576.42
457734,4577.34
457817,4578.17
457879,4578.79
458008,4580.08
458122,4581.22
458221,4582.21
458319,4583.19
458382,4583.82
458513,4585.13
458628,4586.28
458739,4587.39
458838,4588.38
458936,4589.36
459000,4590.0
459119,4591.19
459238,4592.38
459342,4593.42
459438,4594.38
459529,4595.29
459592,4595.92
459704,4597.04
459817,4598.17
459913,4599.13
459977,4599.77
460094,4600.94
460179,4601.79
460239,4602.39
460340,4603.4
460419,4604.19
460479,4604.79
460586,4605.86
460672,4606.72
460733,4607.33
460857,4608.57
460968,4609.68
461071,4610.71
461167,4611.67
461265,4612.65
461327,4613.27
461455,4614.55
461565,4615.65
461663,4616.63
461756,4617.56
461850,4618.5
461912,4619.12
462038,4620.38
462138,4621.38
462234,4622.34
462327,4623.27
462419,4624.19
462482,4624.82
462604,4626.04
462702,4627.02
462792,4627.92
462874,4628.74
462937,4629.37
463035,4630.35
463122,4631.22
463211,4632.11
463273,4632.73
463392,4633.92
463512,4635.12
463611,4636.11
463708,4637.08
463804,4638.04
463867,4638.67
463995,4639.95
464098,4640.98
464194,4641.94
464286,4642.86
464349,4643.49
464474,4644.74
464567,4645.67
464629,4646.29
464743,4647.43
464831,4648.31
464893,4648.93
465026,4650.26
465137,4651.37
465244,4652.44
465345,4653.45
465446,4654.46
465544,4655.44
465606,4656.06
465738,4657.38
465848,4658.48
465951,4659.51
466051,4660.51
466145,4661.45
466208,4662.08
466336,4663.36
466441,4664.41
466542,4665.42
466638,4666.38
466730,4667.3
466793,4667.93
466916,4669.16
467012,4670.12
467108,4671.08
467171,4671.71
467278,4672.78
467359,4673.59
467420,4674.2
467516,4675.16
467603,4676.03
467664,4676.64
467798,4677.98
467918,4679.18
468029,4680.29
468128,4681.28
468229,4682.29
468330,4683.3
468394,4683.94
468525,4685.25
468639,4686.39
468739,4687.39
468837,4688.37
468934,4689.34
469026,4690.26
469088,4690.88
469201,4692.01
469314,4693.14
469413,4694.13
469514,4695.14
469609,4696.09
469706,4697.06
469769,4697.69
469884,4698.84
469999,4699.99
470093,4700.93
470177,4701.77
470238,4702.38
470341,4703.41
470421,4704.21
470482,4704.82
470576,4705.76
470658,4706.58
470719,4707.19
470817,4708.17
470898,4708.98
470958,4709.58
471049,4710.49
471127,4711.27
471188,4711.88
471276,4712.76
471353,4713.53
471413,4714.13
471498,4714.98
471571,4715.71
471632,4716.32
471712,4717.12
471782,4717.82
471843,4718.43
471922,4719.22
471993,4719.93
472053,4720.53
472135,4721.35
472210,4722.1
472268,4722.68
472352,4723.52
472424,4724.24
472484,4724.84
472567,4725.67
472639,4726.39
472698,4726.98
472786,4727.86
472862,4728.62
472923,4729.23
473007,4730.07
473083,4730.83
473142,4731.42
473234,4732.34
473312,4733.12
473372,4733.72
473460,4734.6
473535,4735.35
473594,4735.94
473678,4736.78
473749,4737.49
473808,4738.08
473886,4738.86
473956,4739.56
474015,4740.15
474093,4740.93
474163,4741.63
474223,4742.23
474305,4743.05
474379,4743.79
474438,4744.38
474528,4745.28
474607,4746.07
474666,4746.66
474769,4747.69
474851,4748.51
474910,4749.1
475009,4750.09
475108,4751.08
475168,4751.68
475268,4752.68
475369,4753.69
475429,4754.29
475529,4755.29
475629,4756.29
475688,4756.88
475792,4757.92
475897,4758.97
475957,4759.57
476078,4760.78
476168,4761.68
476259,4762.59
476319,4763.19
476434,4764.34
476550,4765.5
476610,4766.1
476733,4767.33
476856,4768.56
476956,4769.56
477057,4770.57
477119,4771.19
477252,4772.52
477375,4773.75
477486,4774.86
477585,4775.85
477687,4776.87
477750,4777.5
477883,4778.83
478003,4780.03
478117,4781.17
478218,4782.18
478282,4782.82
478411,4784.11
478519,4785.19
478624,4786.24
478687,4786.87
478821,4788.21
478942,4789.42
479059,4790.59
479164,4791.64
479273,4792.73
479383,4793.83
479484,4794.84
479547,4795.47
479678,4796.78
479793,4797.93
479901,4799.01
480007,4800.07
480069,4800.69
480195,4801.95
480296,4802.96
480388,4803.88
480450,4804.5
480575,4805.75
480682,4806.82
480785,4807.85
480847,4808.47
480984,4809.84
481101,4811.01
481215,4812.15
481321,4813.21
481419,4814.19
481483,4814.83
481616,4816.16
481725,4817.25
481831,4818.31
481931,4819.31
481995,4819.95
482120,4821.2
482227,4822.27
482324,4823.24
482386,4823.86
482519,4825.19
482632,4826.32
482739,4827.39
482841,4828.41
482904,4829.04
483024,4830.24
483116,4831.16
483178,4831.78
483301,4833.01
483407,4834.07
483512,4835.12
483574,4835.74
483709,4837.09
483822,4838.22
483922,4839.22
484020,4840.2
484083,4840.83
484208,4842.08
484315,4843.15
484416,4844.16
484479,4844.79
484604,4846.04
484715,4847.15
484813,4848.13
484876,4848.76
485005,4850.05
485116,4851.16
485212,4852.12
485274,4852.74
485404,4854.04
485514,4855.14
485618,4856.18
485681,4856.81
485811,4858.11
485928,4859.28
486032,4860.32
486135,4861.35
486198,4861.98
486326,4863.26
486441,4864.41
486544,4865.44
486633,4866.33
486697,4866.97
486814,4868.14
486899,4868.99
486961,4869.61
487067,4870.67
487152,4871.52
487213,4872.13
487322,4873.22
487416,4874.16
487506,4875.06
487568,4875.68
487700,4877.0
487805,4878.05
487905,4879.05
488005,4880.05
488068,4880.68
488203,4882.03
488315,4883.15
488418,4884.18
488521,4885.21
488584,4885.84
488717,4887.17
488835,4888.35
488937,4889.37
489037,4890.37
489100,4891.0
489234,4892.34
489356,4893.56
489474,4894.74
489577,4895.77
489679,4896.79
489743,4897.43
489874,4898.74
489994,4899.94
490107,4901.07
490207,4902.07
490311,4903.11
490416,4904.16
490479,4904.79
490615,4906.15
490737,4907.37
490850,4908.5
490956,4909.56
491057,4910.57
491155,4911.55
491218,4912.18
491348,4913.48
491451,4914.51
491549,4915.49
491613,4916.13
491740,4917.4
491844,4918.44
491948,4919.48
492047,4920.47
492110,4921.1
492246,4922.46
492367,4923.67
492476,4924.76
492583,4925.83
492689,4926.89
492788,4927.88
492850,4928.5
492982,4929.82
493096,4930.96
493207,4932.07
493313,4933.13
493412,4934.12
493510,4935.1
493574,4935.74
493699,4936.99
493799,4937.99
493905,4939.05
494006,4940.06
494068,4940.68
494145,4941.45
494205,4942.05
494331,4943.31
494448,4944.48
494561,4945.61
494668,4946.68
494769,4947.69
494871,4948.71
494935,4949.35
495065,4950.65
495179,4951.79
495281,4952.81
495379,4953.79
495474,4954.74
495537,4955.37
495667,4956.67
495777,4957.77
495873,4958.73
495968,4959.68
496031,4960.31
496149,4961.49
496241,4962.41
496302,4963.02
496430,4964.3
496537,4965.37
496642,4966.42
496741,4967.41
496840,4968.4
496902,4969.02
497036,4970.36
497152,4971.52
497264,4972.64
497366,4973.66
497468,4974.68
497572,4975.72
497672,4976.72
497735,4977.35
497872,4978.72
497991,4979.91
498099,4980.99
498203,4982.03
498302,4983.02
498402,4984.02
498465,4984.65
498597,4985.97
498715,4987.15
498818,4988.18
498917,4989.17
499017,4990.17
499080,4990.8
499210,4992.1
499328,4993.28
499435,4994.35
499535,4995.35
499634,4996.34
499697,4996.97
499826,4998.26
499945,4999.45
500049,5000.49
500146,5001.46
500208,5002.08
500327,5003.27
500413,5004.13
500474,5004.74
500599,5005.99
500699,5006.99
500800,5008.0
500901,5009.01
500962,5009.62
501098,5010.98
501217,5012.17
501323,5013.23
501426,5014.26
501528,5015.28
501629,5016.29
501691,5016.91
501829,5018.29
501948,5019.48
502064,5020.64
502167,5021.67
502268,5022.68
502332,5023.32
502458,5024.58
502564,5025.64
502657,5026.57
502718,5027.18
502838,5028.38
502945,5029.45
503043,5030.43
503145,5031.45
503207,5032.07
503342,5033.42
503465,5034.65
503582,5035.82
503691,5036.91
503793,5037.93
503890,5038.9
503952,5039.52
504084,5040.84
504194,5041.94
504296,5042.96
504396,5043.96
504492,5044.92
504554,5045.54
504677,5046.77
504772,5047.72
504869,5048.69
504931,5049.31
505055,5050.55
505179,5051.79
505280,5052.8
505378,5053.78
505440,5054.4
505575,5055.75
505688,5056.88
505787,5057.87
505888,5058.88
505951,5059.51
506080,5060.8
506190,5061.9
506285,5062.85
506375,5063.75
506438,5064.38
506571,5065.71
506671,5066.71
506769,5067.69
506832,5068.32
506970,5069.7
507095,5070.95
507211,5072.11
507312,5073.12
507412,5074.12
507508,5075.08
507571,5075.71
507688,5076.88
507777,5077.77
507838,5078.38
507965,5079.65
508071,5080.71
508169,5081.69
508267,5082.67
508329,5083.29
508463,5084.63
508576,5085.76
508679,5086.79
508775,5087.75
508872,5088.72
508935,5089.35
509065,5090.65
509176,5091.76
509278,5092.78
509374,5093.74
509436,5094.36
509561,5095.61
509651,5096.51
509712,5097.12
509820,5098.2
509906,5099.06
509966,5099.66
510100,5101.0
510206,5102.06
510306,5103.06
510405,5104.05
510467,5104.67
510600,5106.0
510719,5107.19
510826,5108.26
510930,5109.3
511031,5110.31
511131,5111.31
511195,5111.95
511331,5113.31
511451,5114.51
511564,5115.64
511663,5116.63
511762,5117.62
511826,5118.26
511953,5119.53
512053,5120.53
512143,5121.43
512204,5122.04
512311,5123.11
512406,5124.06
512509,5125.09
512623,5126.23
512753,5127.53
512879,5128.79
513002,5130.02
513112,5131.12
513218,5132.18
513319,5133.19
513420,5134.2
513484,5134.84
513619,5136.19
513736,5137.36
513850,5138.5
513950,5139.5
514049,5140.49
514112,5141.12
514235,5142.35
514325,5143.25
514386,5143.86
514505,5145.05
514593,5145.93
514653,5146.53
514787,5147.87
514899,5148.99
515006,5150.06
515112,5151.12
515215,5152.15
515322,5153.22
515430,5154.3
515492,5154.92
515631,5156.31
515753,5157.53
515866,5158.66
515974,5159.74
516076,5160.76
516177,5161.77
516244,5162.44
516373,5163.73
516479,5164.79
516582,5165.82
516677,5166.77
516740,5167.4
516862,5168.62
516952,5169.52
517013,5170.13
517137,5171.37
517245,5172.45
517350,5173.5
517453,5174.53
517558,5175.58
517666,5176.66
517769,5177.69
517833,5178.33
517968,5179.68
518082,5180.82
518185,5181.85
518280,5182.8
518342,5183.42
518451,5184.51
518538,5185.38
518600,5186.0
518730,5187.3
518839,5188.39
518940,5189.4
519036,5190.36
519097,5190.97
519227,5192.27
519331,5193.31
519431,5194.31
519530,5195.3
519593,5195.93
519728,5197.28
519846,5198.46
519948,5199.48
520051,5200.51
520153,5201.53
520215,5202.15
520348,5203.48
520467,5204.67
520575,5205.75
520679,5206.79
520781,5207.81
520844,5208.44
520974,5209.74
521087,5210.87
521192,5211.92
521292,5212.92
521355,5213.55
521479,5214.79
521585,5215.85
521680,5216.8
521742,5217.42
521865,5218.65
521953,5219.53
522014,5220.14
522133,5221.33
522225,5222.25
522286,5222.86
522424,5224.24
522542,5225.42
522650,5226.5
522755,5227.55
522855,5228.55
522918,5229.18
523051,5230.51
523163,5231.63
523270,5232.7
523372,5233.72
523435,5234.35
523565,5235.65
523672,5236.72
523771,5237.71
523834,5238.34
523964,5239.64
524069,5240.69
524172,5241.72
524271,5242.71
524334,5243.34
524464,5244.64
524568,5245.68
524666,5246.66
524728,5247.28
524842,5248.42
524931,5249.31
524992,5249.92
525119,5251.19
525232,5252.32
525333,5253.33
525433,5254.33
525531,5255.31
525593,5255.93
525725,5257.25
525836,5258.36
525935,5259.35
526031,5260.31
526093,5260.93
526222,5262.22
526326,5263.26
526421,5264.21
526483,5264.83
526609,5266.09
526716,5267.16
526820,5268.2
526918,5269.18
526980,5269.8
527113,5271.13
527226,5272.26
527336,5273.36
527440,5274.4
527537,5275.37
527600,5276.0
527727,5277.27
527828,5278.28
527918,5279.18
527980,5279.8
528109,5281.09
528214,5282.14
528317,5283.17
528416,5284.16
528478,5284.78
528614,5286.14
528729,5287.29
528831,5288.31
528930,5289.3
528992,5289.92
529128,5291.28
529246,5292.46
529350,5293.5
529451,5294.51
529554,5295.54
529617,5296.17
529745,5297.45
529856,5298.56
529955,5299.55
530050,5300.5
530113,5301.13
530237,5302.37
530345,5303.45
530443,5304.43
530539,5305.39
530601,5306.01
530731,5307.31
530839,5308.39
530942,5309.42
531043,5310.43
531106,5311.06
531239,5312.39
531351,5313.51
531455,5314.55
531555,5315.55
531618,5316.18
531747,5317.47
531852,5318.52
531951,5319.51
532013,5320.13
532138,5321.38
532247,5322.47
532347,5323.47
532410,5324.1
532520,5325.2
532604,5326.04
532666,5326.66
532799,5327.99
532921,5329.21
533029,5330.29
533136,5331.36
533244,5332.44
533307,5333.07
533442,5334.42
533565,5335.65
533678,5336.78
533786,5337.86
533889,5338.89
533986,5339.86
534049,5340.49
534177,5341.77
534289,5342.89
534394,5343.94
534492,5344.92
534554,5345.54
534683,5346.83
534795,5347.95
534895,5348.95
534992,5349.92
535056,5350.56
535181,5351.81
535287,5352.87
535384,5353.84
535445,5354.45
535561,5355.61
535648,5356.48
535709,5357.09
535830,5358.3
535924,5359.24
536011,5360.11
536073,5360.73
536211,5362.11
536330,5363.3
536440,5364.4
536541,5365.41
536643,5366.43
536707,5367.07
536834,5368.34
536946,5369.46
537047,5370.47
537145,5371.45
537207,5372.07
537340,5373.4
537448,5374.48
537551,5375.51
537651,5376.51
537713,5377.13
537834,5378.34
537930,5379.3
538016,5380.16
538079,5380.79
538212,5382.12
538323,5383.23
538428,5384.28
538533,5385.33
538634,5386.34
538697,5386.97
538832,5388.32
538954,5389.54
539071,5390.71
539173,5391.73
539274,5392.74
539338,5393.38
539465,5394.65
539578,5395.78
539682,5396.82
539779,5397.79
539842,5398.42
539972,5399.72
540082,5400.82
540186,5401.86
540285,5402.85
540347,5403.47
540477,5404.77
540577,5405.77
540665,5406.65
540727,5407.27
540845,5408.45
540958,5409.58
541063,5410.63
541164,5411.64
541270,5412.7
541375,5413.75
541438,5414.38
541577,5415.77
541701,5417.01
541818,5418.18
541932,5419.32
542034,5420.34
542136,5421.36
542200,5422.0
542331,5423.31
542448,5424.48
542559,5425.59
542657,5426.57
542756,5427.56
542820,5428.2
542952,5429.52
543066,5430.66
543172,5431.72
543270,5432.7
543333,5433.33
543460,5434.6
543562,5435.62
543660,5436.6
543723,5437.23
543849,5438.49
543954,5439.54
544048,5440.48
544109,5441.09
544235,5442.35
544335,5443.35
544429,5444.29
544491,5444.91
544623,5446.23
544727,5447.27
544826,5448.26
544888,5448.88
545017,5450.17
545132,5451.32
545237,5452.37
545332,5453.32
545395,5453.95
545524,5455.24
545629,5456.29
545728,5457.28
545790,5457.9
545911,5459.11
546005,5460.05
546096,5460.96
546158,5461.58
546281,5462.81
546388,5463.88
546485,5464.85
546547,5465.47
546678,5466.78
546785,5467.85
546885,5468.85
546983,5469.83
547045,5470.45
547174,5471.74
547277,5472.77
547374,5473.74
547437,5474.37
547564,5475.64
547671,5476.71
547770,5477.7
547865,5478.65
547927,5479.27
548059,5480.59
548168,5481.68
548271,5482.71
548371,5483.71
548434,5484.34
548564,5485.64
548679,5486.79
548784,5487.84
548886,5488.86
548984,5489.84
549046,5490.46
549169,5491.69
549268,5492.68
549357,5493.57
549420,5494.2
549546,5495.46
549646,5496.46
549747,5497.47
549810,5498.1
549940,5499.4
550051,5500.51
550152,5501.52
550215,5502.15
550341,5503.41
550447,5504.47
550535,5505.35
550596,5505.96
550701,5507.01
550782,5507.82
550844,5508.44
550976,5509.76
551083,5510.83
551187,5511.87
551293,5512.93
551356,5513.56
551491,5514.91
551613,5516.13
551727,5517.27
551835,5518.35
551937,5519.37
552032,5520.32
552095,5520.95
552225,5522.25
552336,5523.36
552444,5524.44
552545,5525.45
552609,5526.09
552737,5527.37
552847,5528.47
552944,5529.44
553006,5530.06
553134,5531.34
553240,5532.4
553342,5533.42
553441,5534.41
553504,5535.04
553634,5536.34
553748,5537.48
553852,5538.52
553952,5539.52
554016,5540.16
554139,5541.39
554240,5542.4
554333,5543.33
554395,5543.95
554508,5545.08
554598,5545.98
554660,5546.6
554792,5547.92
554913,5549.13
555022,5550.22
555133,5551.33
555234,5552.34
555335,5553.35
555400,5554.0
555531,5555.31
555643,5556.43
555749,5557.49
555845,5558.45
555908,5559.08
556033,5560.33
556130,5561.3
556217,5562.17
556280,5562.8
556401,5564.01
556496,5564.96
556591,5565.91
556654,5566.54
556782,5567.82
556896,5568.96
556997,5569.97
557096,5570.96
557195,5571.95
557257,5572.57
557385,5573.85
557499,5574.99
557600,5576.0
557698,5576.98
557761,5577.61
557880,5578.8
557978,5579.78
558074,5580.74
558135,5581.35
558263,5582.63
558368,5583.68
558465,5584.65
558527,5585.27
558657,5586.57
558773,5587.73
558885,5588.85
558986,5589.86
559087,5590.87
559187,5591.87
559250,5592.5
559373,5593.73
559469,5594.69
559557,5595.57
559620,5596.2
559748,5597.48
559855,5598.55
559959,5599.59
560061,5600.61
560123,5601.23
560255,5602.55
560368,5603.68
560469,5604.69
560570,5605.7
560669,5606.69
560732,5607.32
560860,5608.6
560972,5609.72
561074,5610.74
561175,5611.75
561274,5612.74
561337,5613.37
561455,5614.55
561546,5615.46
561608,5616.08
561734,5617.34
561841,5618.41
561939,5619.39
562002,5620.02
562132,5621.32
562246,5622.46
562351,5623.51
562448,5624.48
562511,5625.11
562639,5626.39
562749,5627.49
562857,5628.57
562956,5629.56
563018,5630.18
563139,5631.39
563239,5632.39
563335,5633.35
563397,5633.97
563533,5635.33
563650,5636.5
563765,5637.65
563872,5638.72
563976,5639.76
564080,5640.8
564145,5641.45
564275,5642.75
564391,5643.91
564499,5644.99
564607,5646.07
564706,5647.06
564770,5647.7
564896,5648.96
565006,5650.06
565101,5651.01
565164,5651.64
565276,5652.76
565356,5653.56
565418,5654.18
565511,5655.11
565593,5655.93
565655,5656.55
565792,5657.92
565908,5659.08
566019,5660.19
566124,5661.24
566225,5662.25
566329,5663.29
566432,5664.32
566497,5664.97
566628,5666.28
566748,5667.48
566858,5668.58
566963,5669.63
567064,5670.64
567128,5671.28
567253,5672.53
567365,5673.65
567464,5674.64
567562,5675.62
567661,5676.61
567724,5677.24
567853,5678.53
567970,5679.7
568074,5680.74
568174,5681.74
568274,5682.74
568337,5683.37
568466,5684.66
568582,5685.82
568689,5686.89
568792,5687.92
568892,5688.92
568957,5689.57
569085,5690.85
569199,5691.99
569302,5693.02
569403,5694.03
569503,5695.03
569566,5695.66
569695,5696.95
569803,5698.03
569901,5699.01
569964,5699.64
570092,5700.92
570199,5701.99
570299,5702.99
570398,5703.98
570460,5704.6
570587,5705.87
570698,5706.98
570797,5707.97
570897,5708.97
570961,5709.61
571086,5710.86
571192,5711.92
571283,5712.83
571346,5713.46
571462,5714.62
571557,5715.57
571653,5716.53
571718,5717.18
571852,5718.52
571971,5719.71
572089,5720.89
572196,5721.96
572297,5722.97
572400,5724.0
572463,5724.63
572589,5725.89
572700,5727.0
572799,5727.99
572897,5728.97
572996,5729.96
573059,5730.59
573186,5731.86
573300,5733.0
573400,5734.0
573498,5734.98
573562,5735.62
573687,5736.87
573795,5737.95
573897,5738.97
573993,5739.93
574055,5740.55
574185,5741.85
574295,5742.95
574399,5743.99
574499,5744.99
574561,5745.61
574691,5746.91
574804,5748.04
574904,5749.04
575004,5750.04
575102,5751.02
575165,5751.65
575292,5752.92
575398,5753.98
575496,5754.96
575595,5755.95
575692,5756.92
575756,5757.56
575885,5758.85
575988,5759.88
576085,5760.85
576181,5761.81
576244,5762.44
576369,5763.69
576469,5764.69
576559,5765.59
576621,5766.21
576743,5767.43
576841,5768.41
576941,5769.41
577041,5770.41
577105,5771.05
577235,5772.35
577353,5773.53
577460,5774.6
577563,5775.63
577663,5776.63
577726,5777.26
577855,5778.55
577965,5779.65
578065,5780.65
578162,5781.62
578225,5782.25
578349,5783.49
578454,5784.54
578552,5785.52
578614,5786.14
578740,5787.4
578847,5788.47
578947,5789.47
579045,5790.45
579109,5791.09
579231,5792.31
579342,5793.42
579450,5794.5
579548,5795.48
579649,5796.49
579751,5797.51
579842,5798.42
579906,5799.06
580023,5800.23
580113,5801.13
580175,5801.75
580304,5803.04
580413,5804.13
580518,5805.18
580616,5806.16
580678,5806.78
580809,5808.09
580922,5809.22
581034,5810.34
581137,5811.37
581234,5812.34
581298,5812.98
581423,5814.23
581528,5815.28
581632,5816.32
581729,5817.29
581792,5817.92
581921,5819.21
582033,5820.33
582139,5821.39
582242,5822.42
582341,5823.41
582405,5824.05
582533,5825.33
582646,5826.46
582747,5827.47
582840,5828.4
582904,5829.04
583020,5830.2
583109,5831.09
583171,5831.71
583285,5832.85
583375,5833.75
583438,5834.38
583557,5835.57
583677,5836.77
583777,5837.77
583875,5838.75
583938,5839.38
584069,5840.69
584177,5841.77
584275,5842.75
584337,5843.37
584466,5844.66
584574,5845.74
584673,5846.73
584767,5847.67
584830,5848.3
584958,5849.58
585061,5850.61
585159,5851.59
585222,5852.22
585349,5853.49
585460,5854.6
585561,5855.61
585650,5856.5
585712,5857.12
585825,5858.25
585910,5859.1
585972,5859.72
586088,5860.88
586205,5862.05
586304,5863.04
586366,5863.66
586495,5864.95
586609,5866.09
586708,5867.08
586804,5868.04
586867,5868.67
586996,5869.96
587102,5871.02
587201,5872.01
587298,5872.98
587361,5873.61
587488,5874.88
587596,5875.96
587691,5876.91
587753,5877.53
587870,5878.7
587958,5879.58
588020,5880.2
588139,5881.39
588258,5882.58
588362,5883.62
588425,5884.25
588560,5885.6
588685,5886.85
588797,5887.97
588899,5888.99
588999,5889.99
589063,5890.63
589192,5891.92
589302,5893.02
589399,5893.99
589461,5894.61
589585,5895.85
589685,5896.85
589779,5897.79
589841,5898.41
589951,5899.51
590036,5900.36
590098,5900.98
590200,5902.0
590287,5902.87
590349,5903.49
590478,5904.78
590583,5905.83
590679,5906.79
590741,5907.41
590871,5908.71
590976,5909.76
591073,5910.73
591135,5911.35
591264,5912.64
591364,5913.64
591458,5914.58
591520,5915.2
591644,5916.44
591743,5917.43
591833,5918.33
591895,5918.95
592009,5920.09
592124,5921.24
592220,5922.2
592283,5922.83
592402,5924.02
592522,5925.22
592622,5926.22
592684,5926.84
592802,5928.02
592921,5929.21
593020,5930.2
593083,5930.83
593200,5932.0
593317,5933.17
593411,5934.11
593474,5934.74
593587,5935.87
593675,5936.75
593737,5937.37
593863,5938.63
593964,5939.64
594059,5940.59
594120,5941.2
594239,5942.39
594358,5943.58
594456,5944.56
594519,5945.19
594641,5946.41
594747,5947.47
594843,5948.43
594905,5949.05
595031,5950.31
595138,5951.38
595232,5952.32
595294,5952.94
595422,5954.22
595523,5955.23
595619,5956.19
595681,5956.81
595794,5957.94
595878,5958.78
595939,5959.39
596034,5960.34
596120,5961.2
596182,5961.82
596315,5963.15
596436,5964.36
596543,5965.43
596646,5966.46
596749,5967.49
596849,5968.49
596912,5969.12
597048,5970.48
597166,5971.66
597274,5972.74
597377,5973.77
597474,5974.74
597537,5975.37
597656,5976.56
597775,5977.75
597878,5978.78
597975,5979.75
598038,5980.38
598166,5981.66
598277,5982.77
598378,5983.78
598471,5984.71
598533,5985.33
598657,5986.57
598760,5987.6
598857,5988.57
598918,5989.18
599041,5990.41
599164,5991.64
599271,5992.71
599372,5993.72
599470,5994.7
599533,5995.33
599666,5996.66
599781,5997.81
599892,5998.92
599991,5999.91
600089,6000.89
600153,6001.53
600271,6002.71
600363,6003.63
600425,6004.25
600531,6005.31
600621,6006.21
600716,6007.16
600778,6007.78
600910,6009.1
601028,6010.28
601138,6011.38
601244,6012.44
601347,6013.47
601445,6014.45
601508,6015.08
601638,6016.38
601752,6017.52
601864,6018.64
601963,6019.63
602060,6020.6
602124,6021.24
602248,6022.48
602354,6023.54
602456,6024.56
602546,6025.46
602608,6026.08
602727,6027.27
602818,6028.18
602880,6028.8
603009,6030.09
603118,6031.18
603219,6032.19
603283,6032.83
603410,6034.1
603519,6035.19
603621,6036.21
603715,6037.15
603778,6037.78
603903,6039.03
604006,6040.06
604103,6041.03
604167,6041.67
604289,6042.89
604392,6043.92
604490,6044.9
604552,6045.52
604665,6046.65
604750,6047.5
604812,6048.12
604923,6049.23
605017,6050.17
605115,6051.15
605219,6052.19
605336,6053.36
605437,6054.37
605500,6055.0
605632,6056.32
605743,6057.43
605849,6058.49
605944,6059.44
606007,6060.07
606134,6061.34
606239,6062.39
606342,6063.42
606406,6064.06
606531,6065.31
606641,6066.41
606740,6067.4
606803,6068.03
606928,6069.28
607037,6070.37
607134,6071.34
607196,6071.96
607317,6073.17
607409,6074.09
607472,6074.72
607600,6076.0
607712,6077.12
607822,6078.22
607920,6079.2
607983,6079.83
608114,6081.14
608222,6082.22
608331,6083.31
608435,6084.35
608498,6084.98
608620,6086.2
608724,6087.24
608822,6088.22
608884,6088.84
609012,6090.12
609118,6091.18
609221,6092.21
609318,6093.18
609381,6093.81
609504,6095.04
609606,6096.06
609702,6097.02
609765,6097.65
609894,6098.94
610004,6100.04
610106,6101.06
610203,6102.03
610266,6102.66
610399,6103.99
610511,6105.11
610609,6106.09
610672,6106.72
610800,6108.0
610903,6109.03
611002,6110.02
611065,6110.65
611187,6111.87
611293,6112.93
611388,6113.88
611450,6114.5
611565,6115.65
611681,6116.81
611776,6117.76
611839,6118.39
611955,6119.55
612072,6120.72
612171,6121.71
612234,6122.34
612362,6123.62
612474,6124.74
612573,6125.73
612641,6126.41
612769,6127.69
612877,6128.77
612977,6129.77
613040,6130.4
613163,6131.63
613270,6132.7
613362,6133.62
613425,6134.25
613543,6135.43
613633,6136.33
613695,6136.95
613815,6138.15
613936,6139.36
614041,6140.41
614140,6141.4
614203,6142.03
614338,6143.38
614455,6144.55
614565,6145.65
614666,6146.66
614760,6147.6
614824,6148.24
614933,6149.33
615013,6150.13
615075,6150.75
615163,6151.63
615241,6152.41
615303,6153.03
615398,6153.98
615478,6154.78
615539,6155.39
615634,6156.34
615717,6157.17
615778,6157.78
615885,6158.85
615987,6159.87
616078,6160.78
616171,6161.71
616234,6162.34
616349,6163.49
616465,6164.65
616562,6165.62
616625,6166.25
616743,6167.43
616861,6168.61
616958,6169.58
617020,6170.2
617139,6171.39
617259,6172.59
617358,6173.58
617422,6174.22
617543,6175.43
617664,6176.64
617763,6177.63
617826,6178.26
617941,6179.41
618056,6180.56
618150,6181.5
618213,6182.13
618320,6183.2
618428,6184.28
618490,6184.9
618599,6185.99
618709,6187.09
618771,6187.71
618872,6188.72
618973,6189.73
619035,6190.35
619138,6191.38
619222,6192.22
619283,6192.83
619399,6193.99
619516,6195.16
619614,6196.14
619676,6196.76
619799,6197.99
619922,6199.22
620021,6200.21
620083,6200.83
620199,6201.99
620315,6203.15
620412,6204.12
620475,6204.75
620599,6205.99
620701,6207.01
620797,6207.97
620859,6208.59
620983,6209.83
621084,6210.84
621179,6211.79
621241,6212.41
621357,6213.57
621473,6214.73
621570,6215.7
621634,6216.34
621758,6217.58
621862,6218.62
621958,6219.58
622020,6220.2
622137,6221.37
622254,6222.54
622348,6223.48
622411,6224.11
622528,6225.28
622645,6226.45
622744,6227.44
622809,6228.09
622927,6229.27
623045,6230.45
623140,6231.4
623203,6232.03
623316,6233.16
623429,6234.29
623525,6235.25
623588,6235.88
623710,6237.1
623832,6238.32
623934,6239.34
624032,6240.32
624096,6240.96
624223,6242.23
624326,6243.26
624420,6244.2
624483,6244.83
624612,6246.12
624715,6247.15
624811,6248.11
624878,6248.78
625003,6250.03
625107,6251.07
625201,6252.01
625263,6252.63
625379,6253.79
625474,6254.74
625566,6255.66
625628,6256.28
625746,6257.46
625865,6258.65
625963,6259.63
626027,6260.27
626157,6261.57
626267,6262.67
626367,6263.67
626463,6264.63
626527,6265.27
626645,6266.45
626763,6267.63
626860,6268.6
626924,6269.24
627030,6270.3
627136,6271.36
627225,6272.25
627288,6272.88
627401,6274.01
627514,6275.14
627607,6276.07
627670,6276.7
627787,6277.87
627904,6279.04
628002,6280.02
628066,6280.66
628181,6281.81
628297,6282.97
628389,6283.89
628452,6284.52
628567,6285.67
628658,6286.58
628720,6287.2
628831,6288.31
628943,6289.43
629038,6290.38
629101,6291.01
629221,6292.21
629341,6293.41
629438,6294.38
629500,6295.0
629616,6296.16
629732,6297.32
629829,6298.29
629893,6298.93
630020,6300.2
630124,6301.24
630219,6302.19
630282,6302.82
630406,6304.06
630508,6305.08
630603,6306.03
630666,6306.66
630799,6307.99
630906,6309.06
631004,6310.04
631069,6310.69
631190,6311.9
631282,6312.82
631375,6313.75
631439,6314.39
631562,6315.62
631660,6316.6
631752,6317.52
631815,6318.15
631941,6319.41
632036,6320.36
632130,6321.3
632193,6321.93
632316,6323.16
632412,6324.12
632504,6325.04
632567,6325.67
632690,6326.9
632786,6327.86
632877,6328.77
632939,6329.39
633048,6330.48
633158,6331.58
633219,6332.19
633347,6333.47
633444,6334.44
633506,6335.06
633627,6336.27
633722,6337.22
633783,6337.83
633912,6339.12
634012,6340.12
634107,6341.07
634169,6341.69
634287,6342.87
634406,6344.06
634505,6345.05
634568,6345.68
634699,6346.99
634809,6348.09
634908,6349.08
634970,6349.7
635100,6351.0
635206,6352.06
635303,6353.03
635365,6353.65
635484,6354.84
635604,6356.04
635703,6357.03
635767,6357.67
635894,6358.94
636001,6360.01
636099,6360.99
636162,6361.62
636288,6362.88
636387,6363.87
636476,6364.76
636539,6365.39
636664,6366.64
636760,6367.6
636857,6368.57
636921,6369.21
637052,6370.52
637165,6371.65
637268,6372.68
637364,6373.64
637427,6374.27
637544,6375.44
637661,6376.61
637760,6377.6
637858,6378.58
637922,6379.22
638049,6380.49
638155,6381.55
638250,6382.5
638312,6383.12
638426,6384.26
638541,6385.41
638633,6386.33
638696,6386.96
638814,6388.14
638907,6389.07
639000,6390.0
639062,6390.62
639187,6391.87
639291,6392.91
639386,6393.86
639449,6394.49
639567,6395.67
639685,6396.85
639782,6397.82
639845,6398.45
639960,6399.6
640075,6400.75
640172,6401.72
640236,6402.36
640361,6403.61
640467,6404.67
640565,6405.65
640628,6406.28
640744,6407.44
640861,6408.61
640955,6409.55
641018,6410.18
641135,6411.35
641226,6412.26
641289,6412.89
641399,6413.99
641488,6414.88
641551,6415.51
641682,6416.82
641796,6417.96
641897,6418.97
641996,6419.96
642096,6420.96
642160,6421.6
642286,6422.86
642390,6423.9
642486,6424.86
642548,6425.48
642667,6426.67
642786,6427.86
642885,6428.85
642948,6429.48
643066,6430.66
643184,6431.84
643283,6432.83
643346,6433.46
643470,6434.7
643573,6435.73
643666,6436.66
643728,6437.28
643855,6438.55
643956,6439.56
644047,6440.47
644110,6441.1
644226,6442.26
644343,6443.43
644442,6444.42
644505,6445.05
644633,6446.33
644750,6447.5
644850,6448.5
644913,6449.13
645041,6450.41
645150,6451.5
645249,6452.49
645313,6453.13
645425,6454.25
645537,6455.37
645631,6456.31
645693,6456.93
645806,6458.06
645920,6459.2
646014,6460.14
646076,6460.76
646199,6461.99
646292,6462.92
646353,6463.53
646466,6464.66
646580,6465.8
646677,6466.77
646741,6467.41
646858,6468.58
646976,6469.76
647074,6470.74
647137,6471.37
647247,6472.47
647358,6473.58
647450,6474.5
647512,6475.12
647622,6476.22
647732,6477.32
647825,6478.25
647887,6478.87
648001,6480.01
648115,6481.15
648211,6482.11
648273,6482.73
648383,6483.83
648494,6484.94
648584,6485.84
648646,6486.46
648745,6487.45
648845,6488.45
648907,6489.07
649005,6490.05
649091,6490.91
649152,6491.52
649272,6492.72
649393,6493.93
649493,6494.93
649555,6495.55
649681,6496.81
649807,6498.07
649913,6499.13
650010,6500.1
650073,6500.73
650191,6501.91
650310,6503.1
650407,6504.07
650471,6504.71
650584,6505.84
650698,6506.98
650793,6507.93
650856,6508.56
650966,6509.66
651077,6510.77
651168,6511.68
651231,6512.31
651344,6513.44
651458,6514.58
651550,6515.5
651613,6516.13
651737,6517.37
651830,6518.3
651923,6519.23
651986,6519.86
652103,6521.03
652221,6522.21
652316,6523.16
652379,6523.79
652494,6524.94
652610,6526.1
652703,6527.03
652766,6527.66
652880,6528.8
652994,6529.94
653090,6530.9
653154,6531.54
653277,6532.77
653375,6533.75
653470,6534.7
653532,6535.32
653653,6536.53
653753,6537.53
653846,6538.46
653909,6539.09
654025,6540.25
654141,6541.41
654239,6542.39
654331,6543.31
654394,6543.94
654500,6545.0
654584,6545.84
654646,6546.46
654772,6547.72
654880,6548.8
654976,6549.76
655038,6550.38
655156,6551.56
655274,6552.74
655375,6553.75
655467,6554.67
655530,6555.3
655653,6556.53
655753,6557.53
655850,6558.5
655913,6559.13
656038,6560.38
656148,6561.48
656248,6562.48
656311,6563.11
656439,6564.39
656552,6565.52
656650,6566.5
656714,6567.14
656841,6568.41
656946,6569.46
657044,6570.44
657107,6571.07
657231,6572.31
657339,6573.39
657434,6574.34
657497,6574.97
657624,6576.24
657726,6577.26
657824,6578.24
657888,6578.88
658017,6580.17
658132,6581.32
658240,6582.4
658337,6583.37
658400,6584.0
658517,6585.17
658634,6586.34
658737,6587.37
658837,6588.37
658901,6589.01
659024,6590.24
659134,6591.34
659230,6592.3
659293,6592.93
659416,6594.16
659513,6595.13
659575,6595.75
659697,6596.97
659790,6597.9
659852,6598.52
659971,6599.71
660059,6600.59
660122,6601.22
660253,6602.53
660359,6603.59
660460,6604.6
660524,6605.24
660651,6606.51
660764,6607.64
660869,6608.69
660963,6609.63
661026,6610.26
661153,6611.53
661251,6612.51
661314,6613.14
661440,6614.4
661540,6615.4
661637,6616.37
661701,6617.01
661828,6618.28
661938,6619.38
662039,6620.39
662131,6621.31
662194,6621.94
662309,6623.09
662395,6623.95
662457,6624.57
662569,6625.69
662681,6626.81
662775,6627.75
662839,6628.39
662954,6629.54
663070,6630.7
663166,6631.66
663229,6632.29
663348,6633.48
663445,6634.45
663540,6635.4
663603,6636.03
663731,6637.31
663837,6638.37
663933,6639.33
663996,6639.96
664123,6641.23
664228,6642.28
664325,6643.25
664389,6643.89
664514,6645.14
664617,6646.17
664714,6647.14
664777,6647.77
664899,6648.99
664995,6649.95
665081,6650.81
665145,6651.45
665255,6652.55
665349,6653.49
665445,6654.45
665509,6655.09
665633,6656.33
665757,6657.57
665863,6658.63
665962,6659.62
666025,6660.25
666155,6661.55
666267,6662.67
666370,6663.7
666468,6664.68
666532,6665.32
666658,6666.58
666768,6667.68
666863,6668.63
666926,6669.26
667053,6670.53
667156,6671.56
667249,6672.49
667312,6673.12
667436,6674.36
667541,6675.41
667642,6676.42
667705,6677.05
667827,6678.27
667925,6679.25
668013,6680.13
668077,6680.77
668201,6682.01
668300,6683.0
668399,6683.99
668498,6684.98
668561,6685.61
668689,6686.89
668797,6687.97
668896,6688.96
668960,6689.6
669086,6690.86
669186,6691.86
669278,6692.78
669341,6693.41
669440,6694.4
669520,6695.2
669582,6695.82
669679,6696.79
669763,6697.63
669825,6698.25
669953,6699.53
670063,6700.63
670162,6701.62
670264,6702.64
670366,6703.66
670468,6704.68
670571,6705.71
670673,6706.73
670738,6707.38
670870,6708.7
670984,6709.84
671081,6710.81
671144,6711.44
671257,6712.57
671371,6713.71
671466,6714.66
671530,6715.3
671651,6716.51
671747,6717.47
671837,6718.37
671900,6719.0
672019,6720.19
672109,6721.09
672171,6721.71
672285,6722.85
672400,6724.0
672496,6724.96
672559,6725.59
672679,6726.79
672800,6728.0
672901,6729.01
672965,6729.65
673086,6730.86
673207,6732.07
673305,6733.05
673368,6733.68
673484,6734.84
673600,6736.0
673695,6736.95
673758,6737.58
673869,6738.69
673980,6739.8
674074,6740.74
674137,6741.37
674257,6742.57
674352,6743.52
674444,6744.44
674507,6745.07
674632,6746.32
674734,6747.34
674827,6748.27
674890,6748.9
675012,6750.12
675107,6751.07
675169,6751.69
675294,6752.94
675393,6753.93
675489,6754.89
675552,6755.52
675678,6756.78
675785,6757.85
675882,6758.82
675945,6759.45
676068,6760.68
676168,6761.68
676263,6762.63
676326,6763.26
676454,6764.54
676560,6765.6
676656,6766.56
676719,6767.19
676843,6768.43
676940,6769.4
677029,6770.29
677092,6770.92
677215,6772.15
677307,6773.07
677369,6773.69
677490,6774.9
677583,6775.83
677645,6776.45
677765,6777.65
677858,6778.58
677920,6779.2
678042,6780.42
678138,6781.38
678200,6782.0
678325,6783.25
678425,6784.25
678518,6785.18
678581,6785.81
678708,6787.08
678806,6788.06
678901,6789.01
678994,6789.94
679059,6790.59
679180,6791.8
679277,6792.77
679371,6793.71
679433,6794.33
679558,6795.58
679656,6796.56
679719,6797.19
679844,6798.44
679941,6799.41
680034,6800.34
680096,6800.96
680221,6802.21
680317,6803.17
680412,6804.12
680476,6804.76
680600,6806.0
680709,6807.09
680808,6808.08
680872,6808.72
680994,6809.94
681089,6810.89
681180,6811.8
681244,6812.44
681372,6813.72
681468,6814.68
681564,6815.64
681629,6816.29
681759,6817.59
681865,6818.65
681962,6819.62
682025,6820.25
682154,6821.54
682258,6822.58
682353,6823.53
682416,6824.16
682532,6825.32
682648,6826.48
682744,6827.44
682808,6828.08
682931,6829.31
683030,6830.3
683124,6831.24
683187,6831.87
683311,6833.11
683412,6834.12
683507,6835.07
683570,6835.7
683698,6836.98
683803,6838.03
683898,6838.98
683961,6839.61
684088,6840.88
684190,6841.9
684288,6842.88
684351,6843.51
684476,6844.76
684584,6845.84
684680,6846.8
684743,6847.43
684871,6848.71
684974,6849.74
685071,6850.71
685134,6851.34
685253,6852.53
685349,6853.49
685441,6854.41
685504,6855.04
685615,6856.15
685727,6857.27
685819,6858.19
685881,6858.81
685994,6859.94
686108,6861.08
686204,6862.04
686299,6862.99
686363,6863.63
686483,6864.83
686577,6865.77
686639,6866.39
686759,6867.59
686856,6868.56
686948,6869.48
687011,6870.11
687136,6871.36
687237,6872.37
687330,6873.3
687393,6873.93
687516,6875.16
687611,6876.11
687673,6876.73
687791,6877.91
687879,6878.79
687941,6879.41
688070,6880.7
688169,6881.69
688266,6882.66
688329,6883.29
688458,6884.58
688571,6885.71
688672,6886.72
688767,6887.67
688830,6888.3
688946,6889.46
689063,6890.63
689164,6891.64
689256,6892.56
689319,6893.19
689431,6894.31
689519,6895.19
689581,6895.81
689699,6896.99
689789,6897.89
689851,6898.51
689961,6899.61
690071,6900.71
690165,6901.65
690228,6902.28
690343,6903.43
690459,6904.59
690556,6905.56
690619,6906.19
690733,6907.33
690847,6908.47
690940,6909.4
691003,6910.03
691116,6911.16
691229,6912.29
691326,6913.26
691422,6914.22
691487,6914.87
691599,6915.99
691712,6917.12
691807,6918.07
691870,6918.7
691983,6919.83
692096,6920.96
692189,6921.89
692252,6922.52
692372,6923.72
692462,6924.62
692524,6925.24
692629,6926.29
692710,6927.1
692773,6927.73
692905,6929.05
693005,6930.05
693102,6931.02
693165,6931.65
693282,6932.82
693400,6934.0
693498,6934.98
693561,6935.61
693691,6936.91
693796,6937.96
693894,6938.94
693958,6939.58
694072,6940.72
694187,6941.87
694281,6942.81
694344,6943.44
694459,6944.59
694575,6945.75
694671,6946.71
694734,6947.34
694849,6948.49
694964,6949.64
695062,6950.62
695126,6951.26
695250,6952.5
695356,6953.56
695452,6954.52
695515,6955.15
695639,6956.39
695739,6957.39
695835,6958.35
695899,6958.99
696015,6960.15
696131,6961.31
696230,6962.3
696293,6962.93
696408,6964.08
696497,6964.97
696559,6965.59
696682,6966.82
696779,6967.79
696876,6968.76
696940,6969.4
697073,6970.73
697189,6971.89
697290,6972.9
697390,6973.9
697455,6974.55
697583,6975.83
697699,6976.99
697804,6978.04
697900,6979.0
697965,6979.65
698092,6980.92
698199,6981.99
698305,6983.05
698404,6984.04
698468,6984.68
698593,6985.93
698694,6986.94
698791,6987.91
698888,6988.88
698952,6989.52
699078,6990.78
699186,6991.86
699282,6992.82
699345,6993.45
699473,6994.73
699576,6995.76
699671,6996.71
699734,6997.34
699864,6998.64
699969,6999.69
700068,7000.68
700132,7001.32
700259,7002.59
700369,7003.69
700469,7004.69
700532,7005.32
700661,7006.61
700770,7007.7
700869,7008.69
700932,7009.32
701056,7010.56
701154,7011.54
701249,7012.49
701312,7013.12
701432,7014.32
701530,7015.3
701622,7016.22
701685,7016.85
701806,7018.06
701928,7019.28
702036,7020.36
702137,7021.37
702201,7022.01
702328,7023.28
702437,7024.37
702537,7025.37
702637,7026.37
702701,7027.01
702826,7028.26
702937,7029.37
703037,7030.37
703135,7031.35
703199,7031.99
703323,7033.23
703429,7034.29
703526,7035.26
703588,7035.88
703709,7037.09
703803,7038.03
703891,7038.91
703954,7039.54
704081,7040.81
704183,7041.83
704280,7042.8
704343,7043.43
704467,7044.67
704592,7045.92
704697,7046.97
704798,7047.98
704861,7048.61
704989,7049.89
705099,7050.99
705197,7051.97
705260,7052.6
705382,7053.82
705488,7054.88
705587,7055.87
705650,7056.5
705773,7057.73
705877,7058.77
705970,7059.7
706033,7060.33
706152,7061.52
706243,7062.43
706305,7063.05
706427,7064.27
706525,7065.25
706622,7066.22
706685,7066.85
706810,7068.1
706918,7069.18
707017,7070.17
707114,7071.14
707177,7071.77
707304,7073.04
707410,7074.1
707506,7075.06
707568,7075.68
707695,7076.95
707797,7077.97
707897,7078.97
707960,7079.6
708084,7080.84
708191,7081.91
708290,7082.9
708353,7083.53
708479,7084.79
708579,7085.79
708674,7086.74
708737,7087.37
708857,7088.57
708950,7089.5
709013,7090.13
709137,7091.37
709236,7092.36
709332,7093.32
709395,7093.95
709519,7095.19
709622,7096.22
709716,7097.16
709779,7097.79
709905,7099.05
710007,7100.07
710105,7101.05
710168,7101.68
710291,7102.91
710393,7103.93
710484,7104.84
710548,7105.48
710674,7106.74
710773,7107.73
710835,7108.35
710966,7109.66
711073,7110.73
711174,7111.74
711238,7112.38
711363,7113.63
711475,7114.75
711572,7115.72
711636,7116.36
711761,7117.61
711859,7118.59
711954,7119.54
712050,7120.5
712114,7121.14
712233,7122.33
712328,7123.28
712390,7123.9
712512,7125.12
712607,7126.07
712669,7126.69
712793,7127.93
712890,7128.9
712981,7129.81
713043,7130.43
713169,7131.69
713266,7132.66
713360,7133.6
713423,7134.23
713545,7135.45
713641,7136.41
713731,7137.31
713794,7137.94
713916,7139.16
714011,7140.11
714104,7141.04
714166,7141.66
714296,7142.96
714396,7143.96
714492,7144.92
714557,7145.57
714681,7146.81
714784,7147.84
714878,7148.78
714941,7149.41
715067,7150.67
715170,7151.7
715263,7152.63
715327,7153.27
715450,7154.5
715550,7155.5
715646,7156.46
715709,7157.09
715835,7158.35
715940,7159.4
716039,7160.39
716102,7161.02
716226,7162.26
716335,7163.35
716434,7164.34
716496,7164.96
716624,7166.24
716729,7167.29
716827,7168.27
716891,7168.91
717018,7170.18
717123,7171.23
717222,7172.22
717285,7172.85
717406,7174.06
717506,7175.06
717598,7175.98
717661,7176.61
717791,7177.91
717897,7178.97
717997,7179.97
718061,7180.61
718189,7181.89
718297,7182.97
718398,7183.98
718461,7184.61
718594,7185.94
718712,7187.12
718821,7188.21
718924,7189.24
718988,7189.88
719116,7191.16
719231,7192.31
719331,7193.31
719429,7194.29
719494,7194.94
719614,7196.14
719714,7197.14
719812,7198.12
719874,7198.74
719999,7199.99
720106,7201.06
720204,7202.04
720267,7202.67
720387,7203.87
720508,7205.08
720612,7206.12
720709,7207.09
720773,7207.73
720898,7208.98
721008,7210.08
721108,7211.08
721206,7212.06
721270,7212.7
721392,7213.92
721498,7214.98
721592,7215.92
721655,7216.55
721775,7217.75
721878,7218.78
721973,7219.73
722035,7220.35
722160,7221.6
722265,7222.65
722364,7223.64
722427,7224.27
722551,7225.51
722657,7226.57
722754,7227.54
722817,7228.17
722936,7229.36
723033,7230.33
723122,7231.22
723185,7231.85
723308,7233.08
723404,7234.04
723496,7234.96
723559,7235.59
723682,7236.82
723785,7237.85
723883,7238.83
723946,7239.46
724062,7240.62
724178,7241.78
724276,7242.76
724372,7243.72
724435,7244.35
724557,7245.57
724655,7246.55
724746,7247.46
724809,7248.09
724922,7249.22
725036,7250.36
725133,7251.33
725197,7251.97
725323,7253.23
725437,7254.37
725539,7255.39
725635,7256.35
725699,7256.99
725818,7258.18
725937,7259.37
726039,7260.39
726138,7261.38
726201,7262.01
726326,7263.26
726437,7264.37
726529,7265.29
726591,7265.91
726693,7266.93
726772,7267.72
726833,7268.33
726929,7269.29
727009,7270.09
727070,7270.7
727158,7271.58
727235,7272.35
727295,7272.95
727382,7273.82
727458,7274.58
727519,7275.19
727611,7276.11
727692,7276.92
727753,7277.53
727866,7278.66
727959,7279.59
728050,7280.5
728111,7281.11
728222,7282.22
728333,7283.33
728426,7284.26
728488,7284.88
728604,7286.04
728720,7287.2
728782,7287.82
728899,7288.99
729016,7290.16
729115,7291.15
729215,7292.15
729315,7293.15
729380,7293.8
729501,7295.01
729622,7296.22
729719,7297.19
729783,7297.83
729903,7299.03
730023,7300.23
730124,7301.24
730226,7302.26
730325,7303.25
730390,7303.9
730513,7305.13
730637,7306.37
730739,7307.39
730804,7308.04
730927,7309.27
731037,7310.37
731136,7311.36
731200,7312.0
731324,7313.24
731427,7314.27
731518,7315.18
731582,7315.82
731712,7317.12
731813,7318.13
731911,7319.11
731976,7319.76
732105,7321.05
732215,7322.15
732318,7323.18
732382,7323.82
732509,7325.09
732619,7326.19
732716,7327.16
732779,7327.79
732902,7329.02
733000,7330.0
733095,7330.95
733159,7331.59
733284,7332.84
733387,7333.87
733482,7334.82
733545,7335.45
733674,7336.74
733777,7337.77
733872,7338.72
733935,7339.35
734056,7340.56
734147,7341.47
734209,7342.09
734323,7343.23
734407,7344.07
734469,7344.69
734567,7345.67
734652,7346.52
734714,7347.14
734841,7348.41
734945,7349.45
735045,7350.45
735108,7351.08
735234,7352.34
735360,7353.6
735467,7354.67
735568,7355.68
735670,7356.7
735773,7357.73
735872,7358.72
735973,7359.73
736072,7360.72
736169,7361.69
736268,7362.68
736365,7363.65
736431,7364.31
736554,7365.54
736648,7366.48
736736,7367.36
736800,7368.0
736919,7369.19
737039,7370.39
737141,7371.41
737204,7372.04
737342,7373.42
737461,7374.61
737563,7375.63
737626,7376.26
737760,7377.6
737873,7378.73
737974,7379.74
738038,7380.38
738161,7381.61
738267,7382.67
738361,7383.61
738424,7384.24
738547,7385.47
738645,7386.45
738736,7387.36
738800,7388.0
738926,7389.26
739024,7390.24
739119,7391.19
739182,7391.82
739302,7393.02
739393,7393.93
739455,7394.55
739560,7395.6
739641,7396.41
739704,7397.04
739818,7398.18
739918,7399.18
740014,7400.14
740076,7400.76
740199,7401.99
740323,7403.23
740421,7404.21
740516,7405.16
740579,7405.79
740703,7407.03
740803,7408.03
740897,7408.97
740960,7409.6
741072,7410.72
741184,7411.84
741278,7412.78
741341,7413.41
741457,7414.57
741548,7415.48
741637,7416.37
741700,7417.0
741823,7418.23
741921,7419.21
742016,7420.16
742079,7420.79
742191,7421.91
742304,7423.04
742400,7424.0
742463,7424.63
742581,7425.81
742700,7427.0
742798,7427.98
742862,7428.62
742975,7429.75
743089,7430.89
743181,7431.81
743244,7432.44
743356,7433.56
743440,7434.4
743502,7435.02
743617,7436.17
743709,7437.09
743772,7437.72
743898,7438.98
743998,7439.98
744092,7440.92
744155,7441.55
744284,7442.84
744389,7443.89
744488,7444.88
744585,7445.85
744649,7446.49
744776,7447.76
744878,7448.78
744970,7449.7
745033,7450.33
745150,7451.5
745236,7452.36
745299,7452.99
745420,7454.2
745513,7455.13
745574,7455.74
745699,7456.99
745794,7457.94
745855,7458.55
745969,7459.69
746084,7460.84
746146,7461.46
746274,7462.74
746376,7463.76
746472,7464.72
746536,7465.36
746659,7466.59
746761,7467.61
746856,7468.56
746919,7469.19
747044,7470.44
747145,7471.45
747239,7472.39
747302,7473.02
747418,7474.18
747505,7475.05
747567,7475.67
747689,7476.89
747783,7477.83
747845,7478.45
747971,7479.71
748069,7480.69
748165,7481.65
748229,7482.29
748353,7483.53
748458,7484.58
748554,7485.54
748616,7486.16
748737,7487.37
748831,7488.31
748893,7488.93
749015,7490.15
749112,7491.12
749203,7492.03
749266,7492.66
749393,7493.93
749493,7494.93
749589,7495.89
749652,7496.52
749775,7497.75
749875,7498.75
749968,7499.68
750031,7500.31
750149,7501.49
750243,7502.43
750305,7503.05
750428,7504.28
750527,7505.27
750620,7506.2
750683,7506.83
750799,7507.99
750916,7509.16
751015,7510.15
751078,7510.78
751190,7511.9
751303,7513.03
751393,7513.93
751456,7514.56
751564,7515.64
751647,7516.47
751710,7517.1
751819,7518.19
751919,7519.19
752018,7520.18
752112,7521.12
752177,7521.77
752304,7523.04
752414,7524.14
752516,7525.16
752609,7526.09
752673,7526.73
752800,7528.0
752902,7529.02
752996,7529.96
753060,7530.6
753184,7531.84
753286,7532.86
753382,7533.82
753445,7534.45
753562,7535.62
753680,7536.8
753776,7537.76
753839,7538.39
753953,7539.53
754068,7540.68
754167,7541.67
754265,7542.65
754329,7543.29
754456,7544.56
754563,7545.63
754658,7546.58
754721,7547.21
754833,7548.33
754916,7549.16
754978,7549.78
755073,7550.73
755154,7551.54
755216,7552.16
755324,7553.24
755416,7554.16
755517,7555.17
755614,7556.14
755677,7556.77
755798,7557.98
755919,7559.19
756017,7560.17
756081,7560.81
756203,7562.03
756326,7563.26
756428,7564.28
756527,7565.27
756591,7565.91
756709,7567.09
756827,7568.27
756923,7569.23
756986,7569.86
757102,7571.02
757218,7572.18
757314,7573.14
757377,7573.77
757488,7574.88
757600,7576.0
757662,7576.62
757774,7577.74
757886,7578.86
757949,7579.49
758061,7580.61
758174,7581.74
758236,7582.36
758353,7583.53
758471,7584.71
758565,7585.65
758629,7586.29
758757,7587.57
758857,7588.57
758952,7589.52
759016,7590.16
759141,7591.41
759242,7592.42
759337,7593.37
759400,7594.0
759514,7595.14
759629,7596.29
759723,7597.23
759787,7597.87
759911,7599.11
759999,7599.99
760062,7600.62
760178,7601.78
760266,7602.66
760328,7603.28
760458,7604.58
760557,7605.57
760619,7606.19
760747,7607.47
760847,7608.47
760940,7609.4
761004,7610.04
761122,7611.22
761218,7612.18
761312,7613.12
761374,7613.74
761496,7614.96
761593,7615.93
761684,7616.84
761747,7617.47
761871,7618.71
761966,7619.66
762028,7620.28
762138,7621.38
762248,7622.48
762310,7623.1
762425,7624.25
762509,7625.09
762571,7625.71
762671,7626.71
762755,7627.55
762817,7628.17
762935,7629.35
763053,7630.53
763152,7631.52
763215,7632.15
763354,7633.54
763475,7634.75
763585,7635.85
763686,7636.86
763750,7637.5
763869,7638.69
763989,7639.89
764088,7640.88
764152,7641.52
764267,7642.67
764383,7643.83
764482,7644.82
764579,7645.79
764644,7646.44
764763,7647.63
764854,7648.54
764917,7649.17
765041,7650.41
765145,7651.45
765238,7652.38
765301,7653.01
765422,7654.22
765543,7655.43
765648,7656.48
765747,7657.47
765811,7658.11
765941,7659.41
766050,7660.5
766146,7661.46
766209,7662.09
766326,7663.26
766443,7664.43
766543,7665.43
766641,7666.41
766705,7667.05
766816,7668.16
766928,7669.28
767023,7670.23
767086,7670.86
767199,7671.99
767313,7673.13
767405,7674.05
767470,7674.7
767578,7675.78
767687,7676.87
767750,7677.5
767863,7678.63
767976,7679.76
768038,7680.38
768153,7681.53
768269,7682.69
768331,7683.31
768444,7684.44
768558,7685.58
768654,7686.54
768719,7687.19
768834,7688.34
768950,7689.5
769047,7690.47
769110,7691.1
769224,7692.24
769338,7693.38
769430,7694.3
769493,7694.93
769606,7696.06
769719,7697.19
769814,7698.14
769877,7698.77
769989,7699.89
770101,7701.01
770193,7701.93
770256,7702.56
770364,7703.64
770473,7704.73
770564,7705.64
770627,7706.27
770728,7707.28
770829,7708.29
770890,7708.9
770994,7709.94
771075,7710.75
771137,7711.37
771236,7712.36
771322,7713.22
771384,7713.84
771516,7715.16
771629,7716.29
771731,7717.31
771833,7718.33
771934,7719.34
772035,7720.35
772099,7720.99
772216,7722.16
772334,7723.34
772427,7724.27
772490,7724.9
772612,7726.12
772701,7727.01
772763,7727.63
772883,7728.83
772973,7729.73
773035,7730.35
773148,7731.48
773262,7732.62
773355,7733.55
773419,7734.19
773526,7735.26
773634,7736.34
773727,7737.27
773790,7737.9
773900,7739.0
774010,7740.1
774104,7741.04
774167,7741.67
774280,7742.8
774393,7743.93
774485,7744.85
774549,7745.49
774661,7746.61
774774,7747.74
774836,7748.36
774941,7749.41
775046,7750.46
775108,7751.08
775213,7752.13
775318,7753.18
775380,7753.8
775502,7755.02
775594,7755.94
775656,7756.56
775775,7757.75
775867,7758.67
775929,7759.29
776048,7760.48
776143,7761.43
776231,7762.31
776294,7762.94
776414,7764.14
776505,7765.05
776566,7765.66
776671,7766.71
776777,7767.77
776838,7768.38
776954,7769.54
777044,7770.44
777105,7771.05
777216,7772.16
777302,7773.02
777363,7773.63
777476,7774.76
777566,7775.66
777628,7776.28
777734,7777.34
777841,7778.41
777932,7779.32
777995,7779.95
778104,7781.04
778214,7782.14
778277,7782.77
778398,7783.98
778489,7784.89
778551,7785.51
778657,7786.57
778764,7787.64
778826,7788.26
778931,7789.31
779036,7790.36
779098,7790.98
779203,7792.03
779308,7793.08
779369,7793.69
779485,7794.85
779575,7795.75
779664,7796.64
779726,7797.26
779834,7798.34
779925,7799.25
780014,7800.14
780078,7800.78
780179,7801.79
780281,7802.81
780367,7803.67
780430,7804.3
780536,7805.36
780621,7806.21
780683,7806.83
780781,7807.81
780864,7808.64
780926,7809.26
781029,7810.29
781114,7811.14
781176,7811.76
781274,7812.74
781373,7813.73
781459,7814.59
781522,7815.22
781623,7816.23
781708,7817.08
781770,7817.7
781867,7818.67
781964,7819.64
782026,7820.26
782132,7821.32
782215,7822.15
782277,7822.77
782377,7823.77
782460,7824.6
782522,7825.22
782622,7826.22
782710,7827.1
782773,7827.73
782878,7828.78
782964,7829.64
783026,7830.26
783126,7831.26
783208,7832.08
783270,7832.7
783373,7833.73
783459,7834.59
783521,7835.21
783621,7836.21
783721,7837.21
783783,7837.83
783880,7838.8
783977,7839.77
784039,7840.39
784139,7841.39
784239,7842.39
784300,7843.0
784401,7844.01
784502,7845.02
784564,7845.64
784664,7846.64
784764,7847.64
784825,7848.25
784921,7849.21
785017,7850.17
785079,7850.79
785174,7851.74
785270,7852.7
785332,7853.32
785433,7854.33
785514,7855.14
785576,7855.76
785672,7856.72
785752,7857.52
785815,7858.15
785920,7859.2
786009,7860.09
786072,7860.72
786177,7861.77
786283,7862.83
786373,7863.73
786437,7864.37
786547,7865.47
786633,7866.33
786696,7866.96
786796,7867.96
786877,7868.77
786941,7869.41
787045,7870.45
787131,7871.31
787194,7871.94
787295,7872.95
787396,7873.96
787458,7874.58
787557,7875.57
787657,7876.57
787719,7877.19
787819,7878.19
787920,7879.2
787983,7879.83
788085,7880.85
788188,7881.88
788251,7882.51
788358,7883.58
788441,7884.41
788504,7885.04
788600,7886.0
788697,7886.97
788759,7887.59
788855,7888.55
788952,7889.52
789014,7890.14
789120,7891.2
789206,7892.06
789268,7892.68
789369,7893.69
789470,7894.7
789532,7895.32
789641,7896.41
789726,7897.26
789788,7897.88
789886,7898.86
789985,7899.85
790048,7900.48
790152,7901.52
790257,7902.57
790319,7903.19
790426,7904.26
790534,7905.34
790597,7905.97
790712,7907.12
790801,7908.01
790864,7908.64
790975,7909.75
791064,7910.64
791127,7911.27
791240,7912.4
791329,7913.29
791393,7913.93
791513,7915.13
791604,7916.04
791667,7916.67
791788,7917.88
791880,7918.8
791943,7919.43
792065,7920.65
792157,7921.57
792220,7922.2
792343,7923.43
792434,7924.34
792497,7924.97
792619,7926.19
792709,7927.09
792772,7927.72
792893,7928.93
792982,7929.82
793045,7930.45
793161,7931.61
793247,7932.47
793310,7933.1
793421,7934.21
793508,7935.08
793571,7935.71
793685,7936.85
793774,7937.74
793836,7938.36
793950,7939.5
794040,7940.4
794102,7941.02
794213,7942.13
794300,7943.0
794363,7943.63
794479,7944.79
794572,7945.72
794635,7946.35
794752,7947.52
794844,7948.44
794907,7949.07
795026,7950.26
795119,7951.19
795181,7951.81
795302,7953.02
795395,7953.95
795458,7954.58
795571,7955.71
795655,7956.55
795718,7957.18
795815,7958.15
795896,7958.96
795959,7959.59
796077,7960.77
796169,7961.69
796230,7962.3
796338,7963.38
796447,7964.47
796509,7965.09
796626,7966.26
796717,7967.17
796779,7967.79
796893,7968.93
796981,7969.81
797043,7970.43
797157,7971.57
797246,7972.46
797308,7973.08
797415,7974.15
797522,7975.22
797584,7975.84
797693,7976.93
797802,7978.02
797865,7978.65
797974,7979.74
798084,7980.84
798146,7981.46
798256,7982.56
798366,7983.66
798456,7984.56
798520,7985.2
798635,7986.35
798751,7987.51
798846,7988.46
798911,7989.11
799021,7990.21
799131,7991.31
799223,7992.23
799287,7992.87
799395,7993.95
799503,7995.03
799566,7995.66
799672,7996.72
799778,7997.78
799841,7998.41
799948,7999.48
800056,8000.56
800118,8001.18
800224,8002.24
800331,8003.31
800393,8003.93
800509,8005.09
800597,8005.97
800660,8006.6
800767,8007.67
800855,8008.55
800918,8009.18
801026,8010.26
801113,8011.13
801176,8011.76
801284,8012.84
801371,8013.71
801435,8014.35
801547,8015.47
801633,8016.33
801696,8016.96
801805,8018.05
801891,8018.91
801953,8019.53
802064,8020.64
802151,8021.51
802214,8022.14
802320,8023.2
802406,8024.06
802469,8024.69
802579,8025.79
802664,8026.64
802728,8027.28
802835,8028.35
802923,8029.23
803010,8030.1
803074,8030.74
803173,8031.73
803255,8032.55
803318,8033.18
803418,8034.18
803502,8035.02
803565,8035.65
803677,8036.77
803766,8037.66
803828,8038.28
803944,8039.44
804033,8040.33
804095,8040.95
804212,8042.12
804303,8043.03
804365,8043.65
804470,8044.7
804576,8045.76
804638,8046.38
804745,8047.45
804853,8048.53
804915,8049.15
805034,8050.34
805128,8051.28
805191,8051.91
805300,8053.0
805410,8054.1
805474,8054.74
805586,8055.86
805699,8056.99
805793,8057.93
805858,8058.58
805972,8059.72
806087,8060.87
806181,8061.81
806248,8062.48
806361,8063.61
806474,8064.74
806538,8065.38
806648,8066.48
806758,8067.58
806821,8068.21
806938,8069.38
807024,8070.24
807087,8070.87
807209,8072.09
807297,8072.97
807359,8073.59
807471,8074.71
807557,8075.57
807620,8076.2
807733,8077.33
807824,8078.24
807886,8078.86
808000,8080.0
808090,8080.9
808152,8081.52
808263,8082.63
808351,8083.51
808413,8084.13
808527,8085.27
808617,8086.17
808679,8086.79
808795,8087.95
808885,8088.85
808947,8089.47
809064,8090.64
809151,8091.51
809213,8092.13
809333,8093.33
809424,8094.24
809486,8094.86
809603,8096.03
809695,8096.95
809757,8097.57
809872,8098.72
809962,8099.62
810024,8100.24
810140,8101.4
810230,8102.3
810292,8102.92
810402,8104.02
810490,8104.9
810553,8105.53
810663,8106.63
810753,8107.53
810841,8108.41
810905,8109.05
811013,8110.13
811099,8110.99
811162,8111.62
811266,8112.66
811350,8113.5
811412,8114.12
811512,8115.12
811597,8115.97
811659,8116.59
811766,8117.66
811855,8118.55
811917,8119.17
812032,8120.32
812125,8121.25
812214,8122.14
812277,8122.77
812390,8123.9
812480,8124.8
812543,8125.43
812655,8126.55
812746,8127.46
812808,8128.08
812924,8129.24
813016,8130.16
813079,8130.79
813196,8131.96
813288,8132.88
813379,8133.79
813442,8134.42
813559,8135.59
813650,8136.5
813739,8137.39
813803,8138.03
813916,8139.16
814006,8140.06
814068,8140.68
814167,8141.67
814266,8142.66
814329,8143.29
814437,8144.37
814526,8145.26
814614,8146.14
814679,8146.79
814792,8147.92
814884,8148.84
814978,8149.78
815069,8150.69
815135,8151.35
815243,8152.43
815351,8153.51
815414,8154.14
815519,8155.19
815624,8156.24
815686,8156.86
815796,8157.96
815907,8159.07
815969,8159.69
816083,8160.83
816197,8161.97
816291,8162.91
816355,8163.55
816475,8164.75
816569,8165.69
816660,8166.6
816724,8167.24
816831,8168.31
816939,8169.39
817027,8170.27
817090,8170.9
817206,8172.06
817293,8172.93
817355,8173.55
817462,8174.62
817545,8175.45
817607,8176.07
817704,8177.04
817784,8177.84
817847,8178.47
817948,8179.48
818032,8180.32
818095,8180.95
818197,8181.97
818279,8182.79
818341,8183.41
818445,8184.45
818532,8185.32
818594,8185.94
818704,8187.04
818792,8187.92
818855,8188.55
818962,8189.62
819049,8190.49
819112,8191.12
819230,8192.3
819328,8193.28
819419,8194.19
819482,8194.82
819588,8195.88
819695,8196.95
819757,8197.57
819862,8198.62
819967,8199.67
820030,8200.3
820144,8201.44
820231,8202.31
820294,8202.94
820407,8204.07
820496,8204.96
820558,8205.58
820671,8206.71
820759,8207.59
820821,8208.21
820936,8209.36
821026,8210.26
821088,8210.88
821192,8211.92
821296,8212.96
821358,8213.58
821465,8214.65
821572,8215.72
821664,8216.64
821728,8217.28
821838,8218.38
821948,8219.48
822011,8220.11
822115,8221.15
822220,8222.2
822283,8222.83
822400,8224.0
822488,8224.88
822550,8225.5
822656,8226.56
822762,8227.62
822824,8228.24
822930,8229.3
823036,8230.36
823099,8230.99
823203,8232.03
823308,8233.08
823370,8233.7
823479,8234.79
823566,8235.66
823628,8236.28
823735,8237.35
823820,8238.2
823883,8238.83
823995,8239.95
824084,8240.84
824171,8241.71
824235,8242.35
824343,8243.43
824428,8244.28
824491,8244.91
824596,8245.96
824681,8246.81
824743,8247.43
824857,8248.57
824944,8249.44
825005,8250.05
825106,8251.06
825207,8252.07
825269,8252.69
825382,8253.82
825470,8254.7
825532,8255.32
825644,8256.44
825732,8257.32
825794,8257.94
825905,8259.05
825992,8259.92
826054,8260.54
826162,8261.62
826247,8262.47
826310,8263.1
826415,8264.15
826497,8264.97
826560,8265.6
826657,8266.57
826740,8267.4
826803,8268.03
826903,8269.03
827004,8270.04
827066,8270.66
827170,8271.7
827274,8272.74
827338,8273.38
827443,8274.43
827549,8275.49
827638,8276.38
827702,8277.02
827806,8278.06
827911,8279.11
827975,8279.75
828075,8280.75
828175,8281.75
828238,8282.38
828346,8283.46
828429,8284.29
828492,8284.92
828601,8286.01
828688,8286.88
828751,8287.51
828853,8288.53
828955,8289.55
829017,8290.17
829124,8291.24
829208,8292.08
829271,8292.71
829369,8293.69
829448,8294.48
829511,8295.11
829603,8296.03
829683,8296.83
829745,8297.45
829846,8298.46
829928,8299.28
829991,8299.91
830092,8300.92
830175,8301.75
830237,8302.37
830335,8303.35
830417,8304.17
830479,8304.79
830578,8305.78
830661,8306.61
830723,8307.23
830826,8308.26
830907,8309.07
830970,8309.7
831072,8310.72
831155,8311.55
831217,8312.17
831321,8313.21
831406,8314.06
831468,8314.68
831579,8315.79
831664,8316.64
831727,8317.27
831826,8318.26
831925,8319.25
831987,8319.87
832087,8320.87
832188,8321.88
832250,8322.5
832354,8323.54
832459,8324.59
832521,8325.21
832626,8326.26
832731,8327.31
832793,8327.93
832891,8328.91
832989,8329.89
833052,8330.52
833149,8331.49
833247,8332.47
833310,8333.1
833418,8334.18
833503,8335.03
833566,8335.66
833674,8336.74
833760,8337.6
833823,8338.23
833933,8339.33
834018,8340.18
834081,8340.81
834188,8341.88
834271,8342.71
834334,8343.34
834445,8344.45
834529,8345.29
834592,8345.92
834700,8347.0
834784,8347.84
834847,8348.47
834959,8349.59
835043,8350.43
835106,8351.06
835212,8352.12
835299,8352.99
835362,8353.62
835477,8354.77
835569,8355.69
835632,8356.32
835741,8357.41
835851,8358.51
835943,8359.43
836008,8360.08
836128,8361.28
836222,8362.22
836285,8362.85
836403,8364.03
836494,8364.94
836557,8365.57
836670,8366.7
836758,8367.58
836821,8368.21
836930,8369.3
837016,8370.16
837079,8370.79
837195,8371.95
837283,8372.83
837346,8373.46
837464,8374.64
837553,8375.53
837616,8376.16
837727,8377.27
837812,8378.12
837876,8378.76
837981,8379.81
838066,8380.66
838128,8381.28
838238,8382.38
838330,8383.3
838393,8383.93
838503,8385.03
838613,8386.13
838705,8387.05
838770,8387.7
838891,8388.91
838987,8389.87
839078,8390.78
839143,8391.43
839254,8392.54
839366,8393.66
839430,8394.3
839541,8395.41
839653,8396.53
839746,8397.46
839811,8398.11
839934,8399.34
840033,8400.33
840125,8401.25
840190,8401.9
840301,8403.01
840412,8404.12
840502,8405.02
840567,8405.67
840672,8406.72
840778,8407.78
840841,8408.41
840947,8409.47
841053,8410.53
841116,8411.16
841234,8412.34
841325,8413.25
841388,8413.88
841505,8415.05
841597,8415.97
841659,8416.59
841766,8417.66
841874,8418.74
841964,8419.64
842028,8420.28
842145,8421.45
842235,8422.35
842298,8422.98
842413,8424.13
842504,8425.04
842568,8425.68
842680,8426.8
842767,8427.67
842831,8428.31
842938,8429.38
843024,8430.24
843087,8430.87
843200,8432.0
843285,8432.85
843348,8433.48
843451,8434.51
843533,8435.33
843597,8435.97
843701,8437.01
843790,8437.9
843853,8438.53
843966,8439.66
844055,8440.55
844118,8441.18
844220,8442.2
844322,8443.22
844385,8443.85
844491,8444.91
844597,8445.97
844660,8446.6
844765,8447.65
844871,8448.71
844934,8449.34
845037,8450.37
845141,8451.41
845203,8452.03
845306,8453.06
845409,8454.09
845471,8454.71
845575,8455.75
845679,8456.79
845741,8457.41
845844,8458.44
845948,8459.48
846035,8460.35
846098,8460.98
846203,8462.03
846284,8462.84
846347,8463.47
846445,8464.45
846528,8465.28
846591,8465.91
846696,8466.96
846802,8468.02
846892,8468.92
846956,8469.56
847072,8470.72
847163,8471.63
847226,8472.26
847337,8473.37
847426,8474.26
847489,8474.89
847600,8476.0
847688,8476.88
847750,8477.5
847860,8478.6
847945,8479.45
848007,8480.07
848117,8481.17
848202,8482.02
848265,8482.65
848371,8483.71
848458,8484.58
848520,8485.2
848628,8486.28
848715,8487.15
848776,8487.76
848877,8488.77
848979,8489.79
849042,8490.42
849146,8491.46
849251,8492.51
849314,8493.14
849420,8494.2
849526,8495.26
849616,8496.16
849679,8496.79
849794,8497.94
849884,8498.84
849947,8499.47
850061,8500.61
850148,8501.48
850211,8502.11
850321,8503.21
850405,8504.05
850468,8504.68
850572,8505.72
850655,8506.55
850717,8507.17
850826,8508.26
850918,8509.18
851013,8510.13
851077,8510.77
851185,8511.85
851294,8512.94
851385,8513.85
851448,8514.48
851556,8515.56
851665,8516.65
851728,8517.28
851844,8518.44
851930,8519.3
851993,8519.93
852106,8521.06
852193,8521.93
852256,8522.56
852370,8523.7
852460,8524.6
852523,8525.23
852633,8526.33
852720,8527.2
852782,8527.82
852889,8528.89
852974,8529.74
853036,8530.36
853142,8531.42
853229,8532.29
853291,8532.91
853399,8533.99
853487,8534.87
853549,8535.49
853664,8536.64
853752,8537.52
853814,8538.14
853929,8539.29
854018,8540.18
854080,8540.8
854186,8541.86
854293,8542.93
854356,8543.56
854462,8544.62
854569,8545.69
854631,8546.31
854736,8547.36
854842,8548.42
854904,8549.04
855009,8550.09
855115,8551.15
855178,8551.78
855294,8552.94
855385,8553.85
855447,8554.47
855559,8555.59
855646,8556.46
855708,8557.08
855821,8558.21
855912,8559.12
855975,8559.75
856091,8560.91
856178,8561.78
856240,8562.4
856355,8563.55
856443,8564.43
856505,8565.05
856616,8566.16
856704,8567.04
856767,8567.67
856883,8568.83
856975,8569.75
857038,8570.38
857155,8571.55
857246,8572.46
857309,8573.09
857424,8574.24
857514,8575.14
857577,8575.77
857687,8576.87
857774,8577.74
857837,8578.37
857943,8579.43
858027,8580.27
858090,8580.9
858187,8581.87
858270,8582.7
858333,8583.33
858448,8584.48
858534,8585.34
858596,8585.96
858710,8587.1
858796,8587.96
858858,8588.58
858973,8589.73
859061,8590.61
859124,8591.24
859236,8592.36
859322,8593.22
859385,8593.85
859495,8594.95
859582,8595.82
859645,8596.45
859755,8597.55
859843,8598.43
859905,8599.05
860017,8600.17
860105,8601.05
860167,8601.67
860275,8602.75
860362,8603.62
860424,8604.24
860540,8605.4
860631,8606.31
860694,8606.94
860806,8608.06
860893,8608.93
860955,8609.55
861060,8610.6
861140,8611.4
861203,8612.03
861311,8613.11
861398,8613.98
861462,8614.62
861580,8615.8
861672,8616.72
861736,8617.36
861850,8618.5
861938,8619.38
862002,8620.02
862118,8621.18
862209,8622.09
862272,8622.72
862389,8623.89
862479,8624.79
862543,8625.43
862657,8626.57
862747,8627.47
862835,8628.35
862900,8629.0
863009,8630.09
863097,8630.97
863160,8631.6
863270,8632.7
863358,8633.58
863420,8634.2
863529,8635.29
863615,8636.15
863678,8636.78
863789,8637.89
863878,8638.78
863966,8639.66
864030,8640.3
864142,8641.42
864232,8642.32
864294,8642.94
864404,8644.04
864493,8644.93
864555,8645.55
864664,8646.64
864751,8647.51
864813,8648.13
864920,8649.2
865007,8650.07
865069,8650.69
865182,8651.82
865270,8652.7
865331,8653.31
865450,8654.5
865541,8655.41
865603,8656.03
865717,8657.17
865807,8658.07
865894,8658.94
865958,8659.58
866067,8660.67
866155,8661.55
866218,8662.18
866331,8663.31
866420,8664.2
866483,8664.83
866595,8665.95
866683,8666.83
866746,8667.46
866863,8668.63
866952,8669.52
867015,8670.15
867137,8671.37
867227,8672.27
867290,8672.9
867410,8674.1
867500,8675.0
867563,8675.63
867686,8676.86
867777,8677.77
867839,8678.39
867961,8679.61
868052,8680.52
868115,8681.15
868231,8682.31
868319,8683.19
868382,8683.82
868495,8684.95
868580,8685.8
868643,8686.43
868749,8687.49
868832,8688.32
868895,8688.95
869006,8690.06
869092,8690.92
869154,8691.54
869267,8692.67
869358,8693.58
869420,8694.2
869535,8695.35
869627,8696.27
869714,8697.14
869779,8697.79
869890,8698.9
869980,8699.8
870043,8700.43
870159,8701.59
870251,8702.51
870313,8703.13
870428,8704.28
870519,8705.19
870582,8705.82
870693,8706.93
870781,8707.81
870843,8708.43
870950,8709.5
871035,8710.35
871098,8710.98
871211,8712.11
871301,8713.01
871363,8713.63
871484,8714.84
871579,8715.79
871670,8716.7
871734,8717.34
871857,8718.57
871955,8719.55
872046,8720.46
872109,8721.09
872231,8722.31
872323,8723.23
872386,8723.86
872504,8725.04
872593,8725.93
872655,8726.55
872778,8727.78
872869,8728.69
872931,8729.31
873054,8730.54
873147,8731.47
873209,8732.09
873331,8733.31
873424,8734.24
873487,8734.87
873608,8736.08
873697,8736.97
873760,8737.6
873879,8738.79
873967,8739.67
874030,8740.3
874145,8741.45
874232,8742.32
874295,8742.95
874407,8744.07
874496,8744.96
874559,8745.59
874675,8746.75
874767,8747.67
874830,8748.3
874949,8749.49
875043,8750.43
875106,8751.06
875224,8752.24
875314,8753.14
875377,8753.77
875494,8754.94
875585,8755.85
875648,8756.48
875764,8757.64
875853,8758.53
875916,8759.16
876029,8760.29
876116,8761.16
876179,8761.79
876286,8762.86
876371,8763.71
876433,8764.33
876536,8765.36
876621,8766.21
876684,8766.84
876794,8767.94
876882,8768.82
876945,8769.45
877054,8770.54
877141,8771.41
877204,8772.04
877313,8773.13
877400,8774.0
877463,8774.63
877575,8775.75
877663,8776.63
877726,8777.26
877842,8778.42
877929,8779.29
877991,8779.91
878104,8781.04
878192,8781.92
878255,8782.55
878365,8783.65
878453,8784.53
878517,8785.17
878631,8786.31
878722,8787.22
878785,8787.85
878907,8789.07
879002,8790.02
879091,8790.91
879156,8791.56
879277,8792.77
879367,8793.67
879429,8794.29
879546,8795.46
879631,8796.31
879695,8796.95
879806,8798.06
879894,8798.94
879957,8799.57
880072,8800.72
880162,8801.62
880225,8802.25
880340,8803.4
880430,8804.3
880493,8804.93
880604,8806.04
880692,8806.92
880755,8807.55
880866,8808.66
880958,8809.58
881047,8810.47
881112,8811.12
881225,8812.25
881315,8813.15
881378,8813.78
881490,8814.9
881578,8815.78
881641,8816.41
881750,8817.5
881838,8818.38
881901,8819.01
882011,8820.11
882095,8820.95
882157,8821.57
882263,8822.63
882349,8823.49
882411,8824.11
882527,8825.27
882618,8826.18
882680,8826.8
882795,8827.95
882885,8828.85
882948,8829.48
883067,8830.67
883162,8831.62
883253,8832.53
883317,8833.17
883431,8834.31
883523,8835.23
883586,8835.86
883705,8837.05
883800,8838.0
883890,8838.9
883954,8839.54
884079,8840.79
884176,8841.76
884264,8842.64
884328,8843.28
884448,8844.48
884538,8845.38
