rr_interval_sec
2.53
1.23
20.56
20.56
0.48
0.42
0.58
0.46
0.6
0.48
0.44
0.59
0.51
0.53
0.37
0.36
0.68
0.83
1.53
1.37
0.68
0.69
1.47
0.51
0.41
0.33
0.36
1.13
0.44
0.77
0.57
0.52
293.21
0.83
0.38
2.29
2.3
1.66
0.52
0.47
0.48
0.96
0.65
1.22
1.23
1.04
1.01
1.06
0.93
1.02
1.07
0.87
0.84
0.65
0.92
0.85
0.64
0.95
0.81
0.8
0.64
0.9
0.76
0.79
0.83
0.89
0.92
0.73
0.93
0.69
0.88
0.96
0.55
0.45
0.64
0.34
0.54
0.49
1.0
1.05
1.08
1.03
1.08
1.01
1.03
1.12
0.91
0.99
1.06
0.99
1.01
1.01
0.92
0.99
1.06
0.98
1.02
1.07
1.01
1.06
0.99
1.02
1.12
1.12
1.15
1.15
1.18
1.12
1.12
0.92
0.93
1.03
0.97
1.08
1.01
0.98
1.05
1.07
0.98
1.05
1.12
0.98
0.98
1.17
1.05
1.01
1.08
0.99
0.91
1.01
1.11
0.99
1.11
1.06
1.13
1.22
1.08
1.09
1.05
1.05
1.0
1.07
1.04
0.97
1.0
0.98
0.99
1.01
0.92
0.96
0.93
0.98
1.0
0.94
0.94
0.99
0.92
0.96
1.0
0.98
1.03
0.97
1.02
1.09
0.98
0.99
1.07
1.03
1.09
0.98
1.04
1.01
1.04
1.06
1.04
0.89
0.99
1.06
0.9
0.9
0.99
0.89
0.89
0.88
0.88
0.87
0.89
0.89
0.87
0.84
0.8
0.63
0.99
1.0
0.99
1.03
0.99
1.02
0.97
0.95
0.99
0.95
0.94
0.92
0.96
0.95
0.94
0.95
0.98
0.98
0.93
0.87
0.86
0.84
0.64
1.0
1.0
0.85
0.83
0.64
1.01
1.02
0.92
0.91
0.72
1.04
0.87
0.64
0.46
0.64
0.88
0.88
0.83
0.64
1.03
0.83
0.78
0.69
0.96
0.94
0.96
0.96
0.32
0.62
0.87
0.86
0.63
1.04
0.91
0.91
0.88
0.89
0.92
0.91
0.95
0.93
0.94
1.0
1.01
0.92
0.9
0.91
0.65
1.24
1.24
1.04
1.27
1.22
1.04
1.01
1.06
1.05
0.61
0.43
1.0
1.02
1.01
1.03
1.02
0.98
0.64
1.2
1.2
1.02
0.94
1.01
1.01
1.03
1.04
1.06
1.06
1.0
0.88
0.64
1.19
1.19
0.91
0.83
0.64
1.27
1.27
1.06
1.0
0.97
0.9
0.64
1.23
1.24
1.05
1.12
1.01
1.08
1.19
0.92
0.64
1.3
1.16
1.12
1.09
0.96
0.96
0.88
0.65
1.25
1.26
1.05
0.99
1.03
0.99
1.0
1.05
1.03
1.0
0.95
0.66
1.16
1.17
0.91
0.94
0.96
0.95
0.89
0.91
0.62
1.15
1.16
0.91
0.94
0.99
1.03
0.87
0.64
1.1
1.11
0.95
1.01
0.96
0.96
0.99
0.95
0.93
0.95
0.82
0.67
1.25
1.04
0.94
0.97
0.96
0.93
0.97
0.82
0.64
1.11
1.11
0.8
0.65
1.21
0.96
0.92
0.91
0.64
1.12
0.87
0.86
0.63
1.06
0.82
0.62
1.06
0.85
0.86
0.63
1.09
0.89
0.93
0.92
0.9
1.04
1.04
0.95
0.97
1.04
1.0
0.85
0.67
1.19
1.05
0.96
0.96
1.0
0.95
0.88
0.83
0.67
1.26
1.26
1.07
0.98
0.9
0.65
1.2
1.2
1.09
0.94
0.84
0.68
1.14
1.14
0.92
0.95
0.91
0.91
1.17
1.01
1.09
1.04
1.12
1.2
1.02
1.07
1.2
1.19
1.06
1.13
1.2
1.09
1.05
1.18
1.13
1.02
1.13
1.11
0.98
1.1
1.12
0.97
1.09
1.11
1.0
1.08
1.02
1.08
1.06
0.93
0.66
1.2
1.2
1.04
1.09
0.93
1.02
1.07
0.96
1.03
1.03
1.04
0.98
1.04
0.93
1.01
1.05
0.89
0.97
0.97
0.84
1.06
0.86
0.7
1.01
1.02
1.02
1.04
1.05
1.03
0.98
1.06
1.05
0.97
0.96
1.0
1.0
0.92
0.97
0.99
1.01
1.04
0.92
0.79
0.64
0.64
0.98
1.01
1.07
1.0
1.08
1.12
1.0
1.06
1.13
0.98
1.1
1.18
1.01
1.02
1.13
1.06
0.99
1.07
1.07
1.01
1.1
1.12
1.01
1.08
0.95
1.05
1.15
1.04
0.93
0.86
0.9
0.89
0.9
1.07
1.07
0.97
0.91
0.87
0.89
0.9
1.07
1.08
1.0
0.89
1.0
1.08
0.93
1.01
1.11
1.02
1.08
1.07
1.01
0.95
0.9
0.94
0.88
0.88
1.07
1.07
1.02
0.99
1.05
1.04
0.9
1.0
1.13
0.97
0.98
1.12
1.01
1.06
1.12
0.98
1.06
1.17
1.03
1.13
1.25
1.14
1.15
1.11
1.05
1.17
1.04
1.06
1.15
0.98
0.99
1.11
1.11
0.97
1.04
1.11
1.04
1.01
0.95
0.87
0.98
1.04
1.03
1.0
1.01
0.99
0.95
0.91
0.98
1.08
0.95
1.0
1.1
0.99
1.02
1.09
0.94
1.03
1.13
0.98
1.06
1.15
0.97
1.07
1.18
1.0
1.11
1.18
1.04
1.04
1.22
1.07
1.07
1.22
1.07
1.08
1.22
1.07
1.08
1.19
1.0
1.11
1.16
0.98
1.13
1.17
0.99
1.12
1.22
1.08
1.08
1.2
1.01
1.13
1.14
0.96
1.08
1.16
1.02
1.08
1.13
0.99
1.07
1.09
0.95
1.04
1.07
0.94
1.02
1.06
0.93
1.04
1.08
0.97
1.03
1.04
0.95
1.04
1.06
0.96
1.04
1.09
0.95
1.04
1.11
1.05
0.93
1.05
1.14
0.96
1.07
1.03
1.03
1.07
0.98
1.02
1.11
0.94
1.0
1.05
0.82
0.65
1.03
1.04
0.84
0.8
0.69
1.27
1.0
0.89
0.98
1.08
0.98
0.93
0.9
0.78
0.66
1.0
0.9
0.84
0.84
0.85
0.85
0.8
0.81
0.81
0.73
0.56
0.93
0.92
0.81
0.85
0.9
0.93
0.82
0.64
0.92
0.78
0.64
1.13
1.13
0.96
0.96
0.89
0.66
1.23
1.14
1.06
1.05
1.06
0.93
0.92
0.66
1.26
1.26
1.04
0.92
0.9
0.65
1.27
1.27
1.09
1.03
0.94
0.96
1.12
1.13
1.1
1.05
0.95
1.12
1.11
1.05
1.01
1.07
1.03
0.96
1.07
1.05
0.96
0.98
1.06
1.03
0.98
0.88
0.63
1.11
1.11
0.97
0.99
0.95
0.92
0.86
0.64
1.18
1.19
0.91
1.01
1.02
0.91
1.03
0.99
0.98
1.0
1.03
0.83
0.61
1.16
1.16
0.95
0.97
0.97
0.95
0.89
0.63
1.18
1.19
0.98
0.98
0.98
0.83
0.61
1.11
1.12
0.93
0.93
0.92
0.84
0.62
1.1
1.1
0.93
0.85
0.88
0.93
0.89
0.87
0.63
1.11
1.12
0.95
0.87
0.84
0.66
1.46
1.13
1.1
1.01
0.96
0.65
1.3
1.31
0.97
1.03
1.18
1.14
1.13
0.97
0.68
1.4
1.23
1.1
1.1
0.98
0.93
0.68
1.43
1.26
1.17
1.16
1.07
0.97
0.68
1.38
1.2
1.06
1.08
0.97
0.94
0.67
1.36
1.17
1.09
1.08
1.04
0.91
0.65
1.08
1.09
0.63
1.16
0.97
0.99
0.92
0.86
0.63
1.17
1.18
1.03
0.94
0.92
0.65
1.22
1.23
0.91
0.64
1.12
1.13
0.96
0.36
0.64
0.99
0.99
0.99
0.97
0.9
0.92
0.91
0.85
0.62
1.21
0.97
0.93
0.95
0.97
0.96
0.98
0.93
0.86
0.69
1.09
1.0
0.94
0.85
0.63
1.08
1.08
0.91
0.93
0.93
0.88
0.95
1.04
0.91
0.96
1.04
0.92
0.94
1.01
0.91
0.94
1.05
1.01
0.98
0.89
0.92
0.58
0.41
0.99
0.87
0.62
0.51
0.52
1.04
0.63
1.01
1.01
0.83
0.78
0.62
0.64
0.59
0.59
0.65
0.65
0.77
0.6
0.92
0.92
0.82
0.72
0.67
0.95
0.81
0.81
0.63
0.99
1.0
0.88
0.9
0.88
0.78
0.64
1.04
1.04
0.88
0.83
0.62
1.04
1.05
0.94
0.96
0.99
0.97
0.98
0.85
0.65
1.15
1.15
0.94
1.0
0.91
0.88
0.64
1.25
1.25
0.98
1.06
1.11
1.04
0.97
1.12
1.15
1.04
0.96
1.02
1.02
1.28
1.14
1.0
0.97
1.17
1.15
1.05
1.0
1.04
1.04
1.3
1.23
1.03
0.98
1.09
1.12
1.11
1.05
0.99
1.01
1.15
1.14
1.07
0.99
0.95
0.96
0.96
1.29
1.1
1.02
0.95
0.99
1.12
1.1
1.12
1.1
1.0
0.97
1.1
1.1
1.09
1.0
0.99
1.11
1.1
1.09
1.07
0.96
0.95
1.11
1.09
1.09
1.06
0.97
0.99
1.09
1.09
1.07
1.0
0.96
1.14
1.13
1.11
1.01
1.08
1.11
1.07
0.99
0.92
0.89
0.89
1.13
1.06
1.14
1.11
0.96
0.91
0.95
1.05
1.03
1.0
1.02
0.94
0.91
0.89
0.92
0.93
1.13
1.13
0.95
0.95
1.06
1.04
1.03
0.99
0.96
0.96
1.1
1.07
1.04
0.98
0.96
1.08
1.07
1.0
0.96
1.01
1.07
1.05
1.03
0.97
0.93
1.08
1.08
1.05
1.0
1.08
1.11
0.92
0.97
1.04
0.92
0.9
0.89
0.89
0.89
0.89
0.88
0.93
1.02
1.13
0.93
1.0
1.0
0.92
0.98
1.05
1.04
0.98
0.88
0.91
0.92
1.09
1.09
0.97
0.93
0.96
1.02
1.02
0.95
1.04
1.05
0.94
1.05
1.1
0.99
0.93
1.09
1.1
0.98
1.02
1.11
1.09
1.02
1.09
1.11
0.9
0.95
0.96
1.16
1.16
1.05
1.08
0.97
1.07
1.08
0.88
0.85
0.85
1.06
0.99
1.04
1.02
0.97
0.96
0.97
0.91
0.99
1.03
0.92
0.9
1.04
1.03
0.91
0.99
1.04
0.96
0.98
1.03
0.99
0.93
1.04
1.1
1.03
1.04
0.92
1.06
1.07
1.01
0.98
1.02
1.05
1.03
0.91
1.01
1.07
1.04
1.04
1.05
0.96
1.04
1.07
1.05
1.05
0.94
1.04
1.08
0.99
1.06
1.02
0.99
1.1
1.11
0.97
1.1
1.1
0.86
0.86
0.96
1.07
1.08
1.05
1.05
1.02
1.01
0.93
1.02
1.0
0.93
0.98
1.03
0.94
1.02
1.02
0.91
0.95
0.83
0.87
0.87
1.04
1.05
0.96
1.03
0.96
1.03
1.07
0.96
1.04
1.1
0.97
1.05
0.96
1.02
1.02
0.92
1.01
1.07
0.96
1.06
0.86
0.87
0.99
1.08
1.08
0.93
1.03
1.09
0.98
1.08
1.11
1.01
1.08
1.13
1.05
1.08
1.14
1.0
1.05
1.12
1.02
0.98
1.13
1.11
0.96
1.11
1.12
1.0
1.06
1.1
1.01
0.91
0.93
0.93
1.2
1.07
0.99
1.04
1.11
1.07
1.02
1.07
1.04
0.97
1.05
1.04
0.93
1.05
1.07
1.03
0.99
1.05
1.05
1.02
1.05
0.98
1.06
1.06
0.96
1.1
1.08
1.0
1.09
1.07
0.98
1.1
1.1
1.0
1.07
1.1
0.98
1.07
1.09
0.97
1.01
1.09
1.01
1.02
1.07
1.01
0.99
1.08
0.99
0.96
1.06
1.05
0.93
1.04
1.06
1.01
0.95
1.06
1.07
0.95
1.05
1.07
0.95
1.04
1.06
0.97
1.03
1.05
0.94
1.02
1.05
0.94
1.06
0.89
0.97
1.02
0.93
0.93
0.91
0.86
0.9
0.84
0.81
0.81
0.78
0.81
0.61
0.97
0.97
0.8
0.61
0.84
0.85
0.61
0.61
0.47
0.47
0.73
0.73
0.6
0.82
0.72
0.71
0.62
0.67
0.81
0.61
0.75
0.69
0.59
0.74
0.63
0.63
0.72
0.67
0.6
0.71
0.68
0.59
0.82
0.72
0.57
0.79
0.79
0.58
0.84
0.85
0.77
0.74
0.62
0.89
0.85
0.85
0.78
0.65
0.87
0.88
0.77
0.6
0.75
0.81
0.6
0.4
0.38
0.68
0.62
0.71
0.68
0.62
0.73
0.7
0.6
0.45
0.34
0.66
0.67
0.81
0.72
0.62
0.79
0.72
0.61
0.78
0.7
0.63
0.84
0.73
0.63
0.81
0.71
0.62
0.45
0.36
0.72
0.6
0.8
0.69
0.64
0.76
0.71
0.62
0.62
0.46
0.46
0.71
0.72
0.72
0.59
0.81
0.71
0.61
0.75
0.68
0.6
0.73
0.7
0.63
0.97
0.83
0.75
0.64
0.9
0.9
0.61
0.89
0.72
0.63
0.84
0.78
0.61
0.97
0.97
0.87
0.8
0.63
0.91
0.91
0.62
0.86
0.73
0.62
0.89
0.76
0.63
0.96
0.81
0.62
0.94
0.94
0.64
0.9
0.77
0.62
0.95
0.8
0.61
1.01
1.01
0.89
0.89
0.87
0.63
0.74
0.84
0.44
0.79
0.66
0.9
0.78
0.64
1.0
0.83
0.61
0.99
1.0
0.8
0.64
0.89
0.79
0.62
1.04
0.95
0.9
0.89
0.82
0.64
0.69
0.56
0.94
0.95
0.94
0.91
0.65
1.2
0.9
0.63
1.25
0.91
0.63
1.15
0.81
0.63
1.18
0.91
0.89
0.62
1.18
0.85
0.63
1.19
0.97
0.93
0.85
0.63
1.21
0.96
0.85
0.62
1.18
0.83
0.62
1.21
0.9
0.84
0.62
1.31
0.96
1.03
1.08
1.0
0.99
1.1
1.07
0.92
0.65
1.12
0.91
0.64
1.32
1.13
1.07
1.07
0.97
1.03
1.04
1.06
0.99
0.96
0.94
0.94
1.13
1.14
1.06
1.09
1.06
0.99
0.97
1.05
1.04
1.0
0.94
1.04
1.05
1.01
0.96
1.07
1.07
1.03
0.99
1.08
1.06
0.97
1.06
1.06
1.02
0.95
1.04
1.02
0.95
1.02
1.02
0.95
0.91
1.03
1.03
0.99
0.92
1.0
1.04
1.01
0.94
0.99
1.02
1.0
0.93
0.98
1.02
0.97
0.89
0.9
1.06
1.06
0.93
0.94
0.92
0.88
0.88
1.02
1.03
0.93
0.84
0.85
0.85
0.98
1.08
0.97
1.06
1.01
0.96
0.93
1.04
1.01
0.93
1.04
1.03
0.97
0.98
1.03
0.99
0.91
1.01
1.0
0.92
0.89
0.9
1.17
1.01
1.08
1.0
0.97
1.03
1.0
0.91
1.01
1.0
0.92
0.86
0.86
1.12
0.98
1.0
0.94
0.96
1.0
0.96
0.91
0.84
0.85
1.09
0.97
0.98
0.89
0.85
0.86
1.08
0.93
0.98
0.94
0.93
0.99
0.97
0.92
1.0
0.99
0.92
0.99
1.0
0.92
0.98
1.02
0.92
0.96
1.0
0.96
0.93
1.01
1.0
0.91
0.93
0.99
0.99
0.92
0.89
0.89
1.08
1.09
1.01
1.03
0.97
1.04
1.03
0.98
1.04
1.02
0.95
1.02
1.01
0.96
0.91
1.01
1.02
0.97
0.98
1.05
1.06
0.97
0.94
1.07
1.07
0.98
1.07
1.07
1.01
1.08
1.04
0.97
1.06
1.05
0.98
1.02
1.05
0.98
0.98
1.05
1.01
0.96
1.06
1.01
0.97
1.04
1.03
0.97
1.06
1.05
0.95
1.0
1.02
0.96
0.97
1.03
0.99
0.95
1.03
1.02
0.94
1.02
1.03
0.92
0.99
1.0
0.93
0.87
0.88
1.14
0.98
1.03
0.93
0.97
1.02
0.89
0.89
0.89
1.0
1.01
0.71
0.84
0.74
0.88
0.83
0.84
1.06
0.9
0.9
0.93
0.94
0.95
0.87
0.81
0.82
1.03
0.82
0.61
0.92
0.92
0.89
0.9
1.07
0.96
0.9
0.99
1.05
1.01
0.92
1.01
1.03
1.01
0.93
1.04
1.06
0.94
1.04
1.05
1.01
0.93
0.97
0.89
0.9
1.08
1.08
0.99
1.07
1.04
0.98
0.92
0.93
0.94
1.22
1.07
0.97
0.97
1.05
1.05
1.01
0.96
1.06
1.07
1.05
0.98
0.97
1.08
1.05
1.02
0.96
1.01
1.06
1.05
0.98
1.09
1.07
1.0
1.05
1.06
0.98
1.04
1.06
0.98
0.97
1.05
1.05
1.0
1.06
1.08
1.01
1.0
1.05
1.02
0.96
1.0
1.05
1.02
0.94
0.98
1.02
1.01
0.94
0.99
1.04
1.01
0.95
0.99
1.04
1.03
0.94
1.0
1.04
1.0
0.93
0.99
1.05
1.04
0.97
0.94
1.03
1.03
0.97
0.94
0.9
0.9
1.07
1.08
0.98
1.04
0.98
0.95
0.95
0.92
0.93
1.24
1.16
1.08
0.99
0.98
0.98
0.96
0.99
1.0
0.98
0.92
0.93
1.12
1.13
1.01
1.01
1.01
0.96
0.99
1.0
0.92
0.93
1.22
1.12
1.08
1.08
1.09
1.03
0.98
1.03
1.01
0.98
1.0
1.03
0.96
1.03
1.07
0.99
1.07
1.07
1.0
1.1
1.07
1.02
1.1
1.1
1.01
1.05
1.09
0.99
1.02
0.99
1.07
1.01
1.02
1.13
1.03
1.06
1.03
1.04
1.06
1.05
1.06
1.1
1.04
1.02
1.07
1.05
1.05
1.09
1.05
1.09
1.09
1.03
1.09
1.09
1.03
1.03
1.07
1.04
0.99
1.08
1.03
0.92
0.89
0.83
0.83
0.97
0.98
0.88
0.89
1.15
1.05
1.02
0.94
0.94
0.97
0.98
0.95
0.96
1.0
0.99
0.96
0.94
0.95
1.21
1.21
1.16
1.05
1.11
1.12
1.05
1.11
1.09
1.0
1.08
1.1
1.06
1.13
1.1
1.06
1.12
1.06
1.0
1.05
1.04
0.99
1.08
1.04
1.0
1.13
1.13
1.04
1.05
1.07
1.04
1.14
1.15
0.97
0.97
0.98
0.96
0.98
0.95
0.89
0.85
0.86
1.0
1.01
0.94
0.92
0.95
0.98
0.97
1.0
1.04
1.04
1.05
1.04
1.06
1.0
1.04
1.04
1.0
1.02
1.01
0.98
1.02
1.0
0.98
1.04
1.06
1.02
1.05
1.06
1.01
1.06
1.05
1.0
1.03
1.06
1.02
0.99
1.03
1.02
0.98
0.93
0.94
1.15
1.16
1.02
0.97
0.97
1.02
0.98
1.0
1.01
0.98
0.91
0.92
1.09
1.09
0.93
0.91
0.94
0.94
1.16
1.16
1.09
1.16
1.11
1.14
1.07
1.12
1.11
1.05
1.11
1.06
1.07
1.14
1.05
1.11
1.11
1.0
1.03
0.96
0.88
1.0
1.23
1.23
1.17
1.13
1.11
1.16
1.13
1.03
1.1
1.08
1.01
1.1
1.07
1.04
1.17
1.1
1.01
1.08
1.04
1.1
1.09
1.04
1.12
1.1
1.07
1.08
1.11
1.11
0.97
1.03
0.85
0.78
0.79
0.96
1.17
1.17
1.17
1.13
1.12
1.18
1.08
1.15
1.14
1.02
1.04
1.11
0.97
0.97
0.86
0.94
0.94
0.95
1.27
1.29
1.11
1.03
0.99
0.93
0.87
0.87
1.13
0.96
0.98
1.01
0.97
0.97
0.98
0.97
1.0
0.99
0.98
0.63
1.25
1.25
1.03
1.02
0.98
0.95
0.94
0.62
1.21
1.21
0.99
0.91
0.92
0.62
1.22
1.22
1.01
0.95
1.01
1.01
0.97
0.99
0.98
1.01
1.01
0.99
0.63
1.23
1.24
0.99
0.94
0.94
0.63
0.6
0.6
1.21
0.9
0.86
0.61
1.03
1.03
1.03
1.28
1.13
1.19
1.13
1.16
1.18
1.08
1.16
1.15
1.02
1.06
1.12
1.08
1.07
1.14
1.08
1.14
1.1
1.09
1.08
0.99
0.89
0.86
0.95
0.96
1.18
1.19
1.1
1.18
1.11
1.17
1.12
1.14
1.08
1.07
1.11
1.09
0.95
0.89
0.81
0.9
0.91
1.27
1.15
1.1
1.04
1.04
1.07
1.03
1.05
1.06
1.02
1.0
1.03
1.0
0.93
0.9
0.87
0.88
1.13
0.97
0.97
0.95
1.0
1.03
1.02
1.07
1.08
1.03
1.08
1.06
1.0
1.02
0.99
1.05
1.06
1.0
1.04
1.06
1.03
1.03
1.06
0.97
0.85
0.85
1.07
0.92
0.94
0.94
1.27
1.09
1.24
1.03
1.01
0.98
1.0
0.97
0.88
0.88
1.12
0.86
0.62
1.24
1.25
1.04
1.05
1.04
1.05
1.06
1.02
1.03
1.03
0.99
1.0
1.03
1.0
1.03
1.05
1.0
1.02
1.02
0.99
1.01
1.01
0.98
0.63
1.09
1.1
0.89
0.61
1.19
0.92
0.96
0.63
1.34
1.23
1.15
1.08
1.15
1.1
0.97
0.96
0.81
0.62
1.17
1.29
1.09
1.3
1.23
1.14
1.13
1.1
1.08
1.24
0.99
0.95
0.93
0.63
1.14
0.86
0.61
1.11
0.85
0.61
1.33
1.15
1.11
1.15
1.0
1.01
1.0
0.99
1.0
0.99
0.64
1.18
1.18
0.95
0.95
0.95
0.92
0.63
1.12
1.12
0.93
0.93
0.92
0.88
0.95
0.96
1.29
1.13
1.21
1.13
1.19
1.19
1.1
1.16
1.12
1.06
1.08
1.03
1.15
0.89
0.82
0.62
1.02
1.02
1.06
1.04
1.05
1.1
1.02
1.01
0.97
0.94
0.97
0.91
0.86
0.86
1.1
1.0
1.05
1.28
1.19
1.17
1.08
1.01
0.91
0.87
0.87
0.88
1.14
0.97
1.04
1.07
1.04
1.06
1.07
1.04
1.09
1.02
1.03
1.04
1.01
0.99
0.97
0.94
0.85
0.85
1.08
0.87
0.83
0.84
1.05
1.01
1.0
1.05
1.08
0.99
0.97
1.01
0.97
0.96
0.98
0.95
0.95
0.96
1.28
1.14
1.03
0.97
1.01
0.98
0.85
0.85
1.07
0.87
0.89
0.89
1.17
0.99
0.99
0.97
0.98
1.0
0.97
0.93
0.93
1.25
1.01
0.99
0.97
1.01
1.03
0.99
1.0
1.0
1.02
1.0
1.02
1.04
1.0
0.99
1.01
0.95
0.79
0.79
0.96
0.91
0.92
1.26
1.12
1.16
1.32
1.22
1.2
1.11
1.14
1.11
1.07
1.24
1.12
1.03
1.1
1.04
1.04
1.01
0.93
0.92
0.91
0.91
1.19
1.05
1.0
0.97
1.01
1.05
1.02
1.02
1.05
1.02
0.99
0.86
0.87
1.07
1.02
1.09
1.11
0.99
0.94
0.99
1.01
1.02
1.04
0.99
0.95
0.95
1.25
1.07
1.03
0.99
0.99
1.07
1.0
0.96
0.97
0.96
0.63
1.22
1.22
1.02
1.0
0.98
0.95
1.0
1.02
0.65
0.99
0.99
0.6
1.01
0.87
1.25
1.09
1.1
1.11
1.03
1.07
1.05
1.02
1.04
1.03
0.97
1.01
1.02
0.97
0.63
1.29
1.09
1.06
0.97
0.93
0.62
1.23
0.92
0.92
0.62
1.28
0.98
0.91
0.9
0.61
1.23
1.23
1.06
1.0
0.95
0.98
0.64
1.27
1.08
0.99
0.96
0.98
0.64
1.32
1.19
1.1
0.99
0.99
1.0
0.64
1.29
1.14
0.99
0.98
0.96
0.91
0.62
1.15
0.85
0.61
1.31
1.02
0.93
0.96
0.98
0.93
0.62
1.3
1.06
0.99
0.98
0.95
0.97
0.98
0.64
1.28
1.08
0.98
0.95
0.97
0.98
0.63
1.33
1.08
0.96
0.96
0.94
0.62
1.33
1.1
0.98
0.99
0.98
0.65
1.31
1.13
1.01
1.01
1.0
0.95
0.63
1.24
0.89
0.61
1.07
0.83
0.61
1.33
1.09
1.1
1.24
1.16
1.09
1.08
1.2
0.97
0.93
0.63
1.31
1.12
1.12
1.0
1.01
1.01
0.98
1.0
1.0
0.64
1.31
1.12
0.99
0.99
0.98
0.96
0.99
0.99
0.69
1.29
1.03
0.95
0.97
0.92
0.62
1.19
0.89
0.62
1.34
1.17
1.05
1.04
1.0
1.01
1.03
0.99
0.99
1.0
0.95
0.97
0.99
0.95
0.62
1.3
1.05
1.0
0.98
0.96
0.99
0.99
0.64
1.28
1.12
0.98
0.98
0.98
0.98
0.63
1.35
1.17
1.09
1.01
0.95
0.97
0.64
1.13
0.84
0.61
1.05
0.91
1.27
1.17
1.1
1.13
1.24
1.17
1.09
0.99
1.02
1.0
0.64
1.29
1.07
1.06
1.0
0.96
1.0
0.99
0.64
1.32
1.18
1.08
1.04
1.02
0.99
1.02
1.02
0.97
0.62
1.19
0.88
0.61
1.28
0.94
0.96
0.97
0.63
1.34
1.15
1.01
1.0
0.98
0.99
1.0
0.94
0.63
1.29
1.05
0.94
0.96
0.64
1.28
1.04
0.98
0.98
0.98
0.94
0.63
1.3
1.06
0.98
0.99
0.98
0.97
1.01
0.65
1.28
1.04
0.95
0.85
0.61
0.96
0.87
0.62
1.36
1.18
1.13
1.28
1.09
1.03
1.02
0.98
0.99
0.65
1.24
1.25
1.02
0.94
0.97
0.98
0.63
1.32
1.15
0.99
0.99
1.0
0.64
1.32
1.18
1.03
1.01
0.93
0.86
0.62
1.03
0.8
0.61
0.99
0.96
1.22
1.12
1.13
1.03
1.01
0.97
0.98
1.0
0.63
1.27
1.11
1.0
0.98
1.01
1.0
0.96
0.99
0.64
1.31
1.17
1.06
0.98
1.0
0.99
0.62
1.34
1.17
1.12
1.0
0.96
0.96
0.63
1.32
1.08
1.01
0.96
0.98
0.63
1.29
1.13
1.03
0.96
0.96
0.62
1.16
0.88
0.85
0.63
1.34
1.19
1.05
1.06
1.06
1.02
1.05
1.06
1.01
0.63
1.34
1.17
1.16
1.06
1.03
1.03
0.99
0.96
0.63
1.32
1.16
1.13
1.01
0.99
1.01
0.98
0.64
1.22
1.23
1.06
1.04
0.97
0.99
1.0
0.63
1.09
1.09
0.83
0.61
1.07
0.91
1.08
1.3
1.12
1.16
1.14
1.05
1.11
1.07
1.06
1.11
1.03
1.05
1.08
1.0
1.04
1.06
0.98
1.02
0.96
0.86
0.63
1.14
1.02
0.94
0.9
0.63
1.06
0.88
0.96
0.96
0.63
1.32
1.15
1.01
0.99
1.0
0.97
0.97
0.99
0.64
1.17
1.18
0.96
0.96
0.63
1.19
1.2
0.97
0.96
0.97
0.63
1.11
1.11
0.89
0.87
0.62
1.16
1.17
1.03
0.99
0.96
1.0
1.01
0.63
1.3
1.11
0.99
0.98
0.97
0.94
0.63
1.19
0.85
0.61
0.99
0.84
0.62
1.33
1.14
1.21
1.21
1.1
1.14
1.18
1.08
1.13
1.1
1.08
1.06
0.97
0.87
0.64
1.12
0.86
0.61
1.09
0.89
0.93
0.63
1.31
1.13
1.04
0.99
0.96
0.93
0.97
0.62
1.29
1.12
1.02
0.98
1.0
0.99
0.64
1.28
1.11
0.98
0.97
0.97
0.94
0.62
1.17
1.18
0.99
0.97
0.88
0.85
0.62
1.2
0.94
1.05
1.01
0.98
1.07
1.05
0.96
0.7
1.28
0.98
0.93
0.92
0.64
1.29
1.08
0.94
0.92
0.63
1.15
0.87
0.85
0.63
1.28
1.06
0.97
0.98
0.95
0.93
0.62
1.19
1.19
1.0
0.96
0.93
0.63
1.28
1.02
0.97
0.96
0.89
0.63
1.17
0.86
0.61
1.28
1.02
0.98
1.01
0.97
1.0
1.01
0.98
0.62
1.19
1.2
1.01
0.98
0.94
0.94
0.64
1.26
0.96
0.92
0.62
1.03
0.81
0.6
1.06
0.89
0.62
1.38
1.23
1.21
1.13
1.19
1.12
1.12
1.12
1.02
0.95
0.97
0.64
1.27
1.09
1.02
0.94
0.93
0.63
1.26
1.01
0.99
0.93
0.95
0.64
1.3
1.03
0.92
0.92
0.63
1.28
1.0
0.94
0.86
0.62
1.15
1.15
0.98
0.98
0.62
1.35
1.18
1.04
1.02
0.99
0.98
1.01
0.95
0.62
1.33
1.14
1.0
0.89
0.63
1.08
0.83
0.61
1.04
0.89
0.86
0.62
1.31
1.12
1.08
1.09
0.96
0.96
0.95
0.93
0.63
1.23
1.24
1.03
1.01
0.99
0.99
0.65
1.35
1.13
1.04
1.0
0.96
0.64
1.33
1.08
1.03
1.0
0.92
0.92
0.63
1.34
1.19
1.17
1.02
1.01
0.95
0.88
0.63
1.26
1.0
1.0
0.99
0.63
1.29
1.09
0.97
0.97
0.64
1.24
1.01
0.95
0.89
0.62
1.27
0.91
0.61
1.13
0.85
0.62
1.31
1.11
1.2
1.11
1.03
0.97
1.0
1.0
0.63
1.2
1.21
0.98
0.97
0.9
0.63
1.08
0.81
0.62
0.99
0.87
0.62
1.2
1.2
0.99
1.04
1.04
1.01
1.03
0.99
1.0
1.06
1.02
0.96
1.04
1.06
0.95
1.03
1.07
0.96
1.0
1.05
0.97
0.97
0.91
0.8
0.62
1.06
0.97
0.96
0.97
0.96
0.91
0.62
1.06
1.07
0.87
0.62
1.01
1.02
0.62
1.07
0.87
0.61
1.0
0.81
0.61
0.91
0.8
0.6
1.27
1.15
1.06
1.06
1.15
1.03
1.09
1.1
1.01
1.06
1.04
0.96
0.98
0.82
0.64
0.92
0.83
0.62
1.29
1.14
0.99
0.98
0.63
1.31
1.15
1.11
0.99
0.98
0.64
1.19
1.19
1.04
0.96
0.91
0.63
1.12
1.13
0.96
0.64
1.17
0.85
0.6
1.01
0.79
0.6
1.07
0.86
0.61
1.24
1.11
1.03
0.96
0.98
0.62
1.28
1.1
0.98
0.93
0.94
0.62
1.26
1.0
0.96
0.93
0.92
0.63
1.22
0.98
0.9
0.82
0.63
0.98
0.87
0.89
0.62
1.19
1.2
0.99
0.97
0.96
0.63
1.28
1.03
0.96
0.92
0.63
1.25
0.93
0.62
1.14
0.88
0.62
1.33
1.11
1.07
1.01
1.01
0.98
0.62
1.32
1.1
1.03
1.0
0.94
0.63
1.28
1.05
1.01
0.96
0.92
0.63
1.23
0.96
0.96
0.63
1.07
0.81
0.61
0.96
0.87
0.61
1.34
1.2
1.11
0.99
1.01
1.01
0.64
1.31
1.14
1.0
0.98
0.97
0.92
0.62
1.13
1.13
0.99
1.01
0.95
0.97
0.63
1.15
1.15
0.94
0.84
0.61
1.03
0.8
0.61
0.94
0.82
0.61
0.98
0.81
0.6
0.91
0.78
0.61
0.88
0.77
0.6
0.85
0.73
0.61
0.8
0.7
0.61
0.79
0.71
0.6
0.82
0.75
0.58
0.84
0.72
0.6
0.83
0.72
0.59
0.88
0.76
0.61
0.84
0.76
0.59
0.92
0.78
0.6
0.88
0.75
0.59
0.84
0.71
0.59
0.78
0.7
0.59
0.78
0.7
0.6
0.82
0.74
0.59
0.9
0.79
0.59
1.03
0.82
0.59
0.99
0.99
0.6
1.0
1.01
0.6
1.0
1.0
0.59
1.04
1.05
0.6
1.21
0.9
0.91
0.6
1.15
1.16
0.6
1.23
1.23
1.0
1.01
0.62
1.33
1.23
1.11
0.99
1.02
0.63
1.33
1.2
1.14
1.01
0.64
1.29
1.08
1.05
0.63
1.34
1.21
1.17
1.05
1.09
1.1
1.01
0.63
1.31
1.15
1.08
1.06
0.62
1.26
1.01
0.92
0.62
1.25
1.07
1.03
0.62
1.37
1.17
1.14
1.06
0.98
0.64
1.33
1.09
1.06
1.0
0.64
1.25
1.07
0.97
0.62
1.33
1.13
1.07
1.02
0.63
1.2
0.92
0.62
1.23
1.06
1.05
0.62
1.35
1.13
1.0
0.98
0.63
1.25
1.07
1.01
0.63
1.25
1.11
0.98
0.63
1.29
1.11
0.96
0.62
1.3
1.1
1.04
0.63
1.3
1.17
1.04
1.03
0.63
1.28
1.15
1.03
0.89
0.64
1.17
0.85
0.62
1.06
0.85
0.61
1.09
0.94
0.9
0.62
1.32
1.05
1.0
1.0
0.63
1.35
1.12
1.03
1.03
0.63
1.33
1.18
1.02
1.0
0.63
1.34
1.22
1.18
1.03
1.02
0.64
1.31
1.2
1.13
1.0
1.04
1.05
0.63
1.36
1.22
1.13
1.06
1.01
0.98
0.63
1.3
1.03
0.98
0.64
1.27
1.04
1.04
0.99
0.63
1.36
1.21
1.09
1.07
1.06
0.99
0.62
1.32
1.14
1.11
1.06
0.99
0.98
0.64
1.25
1.0
1.06
1.01
0.62
0.77
0.6
1.26
1.17
1.13
1.07
1.01
1.02
0.64
1.3
1.14
1.02
0.98
0.95
0.63
1.3
1.1
0.96
0.95
0.63
1.18
0.92
0.61
1.28
1.07
1.05
0.99
0.99
0.62
1.34
1.16
1.12
1.02
1.02
1.04
1.0
0.63
1.37
1.19
1.08
1.04
0.99
1.0
0.63
1.32
1.18
1.03
0.99
1.0
0.63
1.3
1.18
1.07
1.0
0.99
0.63
1.29
1.19
1.04
0.97
0.62
1.19
0.86
0.61
1.25
1.0
1.01
1.01
0.61
1.36
1.19
1.06
1.03
1.02
1.01
0.62
1.38
1.19
1.16
1.03
1.01
0.64
1.26
1.06
0.93
0.61
1.2
1.07
0.98
1.02
0.62
1.35
1.23
1.17
1.09
1.02
0.97
0.62
1.32
1.1
1.02
1.0
0.96
0.62
1.23
0.95
0.97
0.62
1.24
1.24
1.01
0.98
0.62
1.35
1.13
0.99
1.01
0.63
1.29
1.1
0.95
0.9
0.63
1.33
1.0
0.98
0.63
1.38
1.25
1.16
1.01
1.0
0.96
0.63
1.17
0.89
0.61
1.27
1.06
0.98
0.98
0.62
1.34
1.13
1.03
0.96
0.97
0.63
1.3
1.11
1.02
0.96
0.62
1.25
0.9
0.61
1.08
0.86
0.6
1.34
1.06
1.0
0.99
0.62
1.33
1.19
1.07
1.04
1.01
1.0
0.64
1.36
1.2
1.13
0.99
0.99
0.64
1.27
1.0
0.9
0.61
1.07
0.95
1.03
1.14
1.3
1.26
1.23
1.1
1.06
1.01
1.01
0.64
1.35
1.17
1.14
1.0
0.99
0.63
1.23
0.9
0.61
1.19
0.88
0.6
1.34
1.12
1.07
1.06
1.03
1.07
1.08
0.62
1.39
1.22
1.13
1.08
1.02
1.01
0.67
1.29
1.06
1.03
0.95
0.63
1.22
0.9
0.61
1.24
1.08
1.05
1.03
1.05
1.08
1.03
0.64
1.35
1.14
1.03
0.95
0.62
1.09
0.87
0.62
1.3
1.09
1.01
0.96
0.61
1.3
1.04
1.0
0.99
0.63
1.35
1.18
1.02
1.03
1.02
0.62
1.33
1.19
1.08
1.04
1.02
0.63
1.3
1.13
1.05
1.0
0.63
1.24
1.06
0.95
0.62
1.23
0.88
0.61
1.19
0.92
0.61
1.38
1.18
1.08
1.05
1.0
0.63
1.33
1.12
1.07
1.02
0.63
1.3
1.07
0.99
0.63
1.3
1.05
1.03
0.99
0.63
1.3
1.04
0.98
0.62
1.14
0.89
0.61
1.27
1.13
1.01
1.0
0.98
0.62
1.32
1.11
0.99
0.96
0.62
1.29
1.04
0.95
0.62
1.26
1.07
1.04
0.98
0.62
1.33
1.13
1.1
1.04
0.97
0.63
1.27
1.01
0.9
0.62
1.29
1.05
1.03
0.99
0.62
1.36
1.15
1.02
0.99
0.62
1.36
1.18
1.04
1.01
1.03
0.63
1.28
1.11
0.99
0.95
0.63
1.24
1.08
0.98
0.96
0.62
1.3
1.08
1.03
1.01
0.63
1.33
1.12
1.04
1.0
0.63
1.29
1.05
0.99
0.62
1.25
1.09
1.0
0.63
1.1
0.84
0.62
1.33
1.22
1.08
1.07
1.08
0.63
1.35
1.23
1.13
1.08
1.03
0.97
0.63
1.28
1.12
1.05
0.98
0.62
1.29
1.12
1.0
0.97
0.64
1.25
1.06
0.97
0.61
1.16
0.87
0.61
1.21
0.94
0.87
0.62
1.38
1.19
1.1
1.01
1.02
0.64
1.27
1.12
1.01
0.98
0.62
1.33
1.08
1.03
1.0
0.62
1.21
0.96
0.86
0.63
1.33
1.11
1.05
1.05
1.01
0.63
1.35
1.22
1.17
1.02
1.01
0.64
1.27
1.13
1.04
0.97
0.63
1.3
1.1
1.04
0.99
0.62
1.3
1.0
0.88
0.62
1.18
1.13
1.05
1.01
1.06
1.05
0.63
1.39
1.24
1.17
1.14
1.02
1.02
0.64
1.31
1.17
1.11
0.98
0.99
0.64
1.32
1.14
1.06
0.98
0.63
1.27
1.02
0.98
0.63
1.26
1.05
0.94
0.61
1.26
1.0
0.94
0.62
1.32
1.04
0.99
0.62
1.29
1.15
1.05
0.95
0.63
1.29
1.05
0.99
0.62
1.21
0.94
0.91
0.62
1.23
1.07
0.97
0.62
1.31
1.07
1.0
0.98
0.62
1.29
1.03
0.97
0.63
1.27
1.07
0.99
0.95
0.62
1.32
1.09
1.03
1.0
0.63
1.3
1.15
1.05
1.02
0.98
0.62
1.23
0.99
0.89
0.63
1.26
1.0
1.01
0.63
1.3
1.11
1.01
0.63
1.26
1.06
0.88
0.61
1.05
0.81
0.62
1.32
1.07
1.04
1.06
0.63
1.35
1.22
1.14
1.08
1.02
0.95
0.63
1.3
1.11
1.08
1.01
0.64
1.28
1.1
0.97
0.62
1.28
1.06
1.02
0.99
0.63
1.3
1.14
1.04
1.0
0.64
1.23
1.01
0.93
0.62
1.13
0.9
0.62
1.32
1.21
1.09
1.11
1.01
1.01
0.65
1.31
1.12
1.06
0.96
0.63
1.25
0.97
0.87
0.63
1.21
0.95
0.95
0.63
1.28
1.14
1.01
0.99
0.99
0.62
1.28
1.14
1.01
0.98
0.63
1.19
0.98
0.96
0.61
1.28
1.05
0.97
0.62
1.3
1.16
1.12
1.01
1.01
1.0
0.63
1.23
0.96
0.88
0.63
1.28
1.07
1.04
1.02
0.62
1.32
1.13
1.01
1.01
0.99
0.63
1.28
1.12
1.02
1.01
0.99
0.63
1.18
0.91
0.62
1.26
1.07
0.98
0.63
1.3
1.14
1.05
0.97
0.63
1.28
1.1
1.08
0.99
0.62
1.21
1.0
0.96
0.62
1.36
1.17
1.15
1.07
1.04
1.04
0.65
1.3
1.16
1.08
1.08
0.99
0.64
1.26
1.1
0.95
0.63
1.12
0.8
0.62
0.93
0.82
0.62
1.37
1.16
1.11
1.05
1.01
1.04
1.03
0.65
1.31
1.2
1.1
1.05
1.01
0.64
1.25
1.12
0.99
0.98
0.99
0.63
1.29
1.17
1.04
1.0
1.0
0.63
1.29
1.16
1.07
1.03
1.0
0.65
1.28
1.14
1.03
1.01
1.0
0.63
1.29
1.08
0.98
0.63
1.28
1.07
1.0
0.99
0.62
1.27
1.11
0.99
1.0
0.64
1.25
1.06
0.91
0.63
1.16
0.95
0.96
0.65
1.34
1.19
1.18
1.07
1.01
1.03
0.63
1.26
1.11
0.99
0.98
0.99
0.63
1.27
1.14
1.0
0.98
0.64
1.25
1.08
1.02
0.96
0.62
1.3
1.1
1.04
1.0
0.62
1.3
1.13
1.0
1.0
0.98
0.63
1.27
1.06
0.98
0.99
0.97
0.64
1.29
1.03
0.97
0.96
0.63
1.25
1.0
0.9
0.62
1.22
0.98
1.0
1.0
0.64
1.3
1.18
1.07
1.03
1.0
0.63
1.29
1.1
1.0
0.97
0.63
1.24
1.05
0.98
0.62
1.26
1.07
1.0
0.98
0.64
1.22
1.11
1.08
0.98
1.01
1.02
0.91
0.64
1.17
0.9
0.62
1.29
1.09
1.05
0.98
0.62
1.31
1.13
1.12
1.03
0.97
0.64
1.25
1.05
1.04
0.97
0.63
1.29
1.12
1.06
1.03
0.99
0.64
1.28
1.13
1.01
0.93
0.64
1.16
0.89
0.62
1.14
0.9
0.63
1.19
1.2
1.0
0.98
0.63
1.31
1.08
0.98
0.62
1.29
1.08
0.99
0.94
0.63
1.28
1.03
0.98
0.63
1.27
1.11
1.01
0.89
0.62
1.13
0.85
0.62
1.16
1.17
0.99
0.62
1.29
1.14
0.99
0.96
0.63
1.29
1.06
0.99
0.97
0.63
1.27
1.08
0.95
0.62
1.17
0.88
0.62
1.19
1.19
1.04
0.63
1.35
1.25
1.12
1.02
1.0
0.64
1.29
1.1
0.97
0.62
1.24
1.0
0.94
0.62
1.1
0.85
0.62
1.02
0.87
0.62
1.29
1.05
0.96
0.62
1.3
1.05
0.97
0.62
1.29
1.0
0.94
0.62
1.24
0.99
0.9
0.62
1.14
1.15
0.96
0.63
1.19
1.2
1.0
0.62
1.18
1.19
0.99
0.63
1.17
1.17
0.94
0.63
1.13
0.88
0.62
1.26
1.01
0.95
0.61
1.19
1.19
0.98
0.63
1.22
1.06
0.96
0.62
1.26
1.07
0.94
0.62
1.28
1.01
0.96
0.62
1.13
0.84
0.61
0.95
0.86
0.62
1.33
1.21
1.07
1.03
1.03
1.0
0.63
1.36
1.18
1.08
1.03
0.97
0.63
1.19
1.19
1.03
0.97
0.63
1.28
1.11
1.01
0.93
0.62
1.24
1.03
0.97
0.61
1.23
1.23
1.07
1.01
0.98
0.63
1.33
1.15
1.11
0.99
0.98
0.64
1.18
0.92
0.62
1.06
0.9
0.95
0.62
1.32
1.18
1.1
1.06
1.03
0.98
0.63
1.3
1.14
1.12
0.99
0.97
0.64
1.24
1.06
1.02
0.9
0.62
1.19
0.91
0.62
1.29
1.09
1.01
0.64
1.27
1.09
1.02
0.94
0.63
1.25
1.03
0.97
0.64
1.22
1.03
0.98
0.62
1.13
0.85
0.62
1.11
0.94
0.98
1.04
1.17
1.01
0.63
1.32
1.11
1.06
0.95
0.63
1.27
1.05
1.03
0.64
1.25
1.1
0.99
0.63
1.25
1.09
0.97
0.62
1.21
0.92
0.63
1.28
1.12
1.1
0.98
0.63
1.31
1.08
1.09
1.04
0.63
1.22
1.04
0.98
0.62
1.28
1.06
1.03
0.97
0.63
1.23
1.02
0.96
0.63
1.29
1.1
1.02
0.97
0.63
1.33
1.12
0.98
0.63
1.28
1.03
0.99
0.63
1.22
1.06
0.95
0.62
1.15
1.16
0.95
0.63
1.16
1.17
0.99
0.63
1.28
1.12
0.99
0.68
1.28
1.08
1.0
0.63
1.23
1.07
0.92
0.63
1.18
0.9
0.62
1.2
1.21
1.05
0.99
0.63
1.35
1.17
1.1
1.01
0.94
0.64
1.09
0.8
0.62
0.88
0.78
0.62
0.95
0.8
0.61
0.95
0.83
0.61
1.07
1.02
0.91
0.93
0.63
1.15
1.16
0.97
0.63
1.18
1.18
0.97
0.62
1.19
1.2
0.99
0.64
1.21
1.21
0.99
0.63
1.15
1.15
0.94
0.63
1.07
1.08
0.62
1.09
1.1
0.62
1.01
1.01
0.62
1.03
0.84
0.61
1.16
1.17
0.98
0.62
1.23
1.23
0.99
0.62
1.16
1.16
0.97
0.63
1.24
1.02
0.96
0.62
1.24
1.01
0.95
0.62
1.16
1.16
0.97
0.64
1.24
1.04
0.96
0.62
1.17
1.17
0.94
0.63
1.17
1.17
0.99
0.65
1.18
1.18
0.95
0.63
1.13
1.13
0.96
0.63
1.22
1.22
1.02
0.98
0.64
1.27
1.03
0.94
0.63
1.29
1.03
0.96
0.67
1.25
1.04
0.94
0.62
1.16
0.95
0.92
0.62
1.18
1.19
0.98
0.64
1.3
1.1
1.0
0.96
0.64
1.18
1.18
0.97
0.64
1.06
1.06
0.89
0.63
1.13
1.13
0.93
0.63
1.17
1.17
0.98
0.64
1.15
1.16
0.92
0.63
1.15
0.91
0.62
1.11
1.12
0.95
0.63
1.2
1.2
0.97
0.62
1.16
1.16
0.97
0.64
1.27
1.04
0.95
0.63
1.24
1.02
0.95
0.63
1.33
1.07
0.98
0.65
1.21
0.92
0.93
0.64
1.23
0.98
0.92
0.63
1.26
0.95
0.94
0.63
1.23
0.96
0.92
0.63
1.23
0.96
0.91
0.62
1.09
1.1
0.61
1.28
0.97
0.62
1.21
0.95
0.61
1.29
1.0
0.95
0.62
1.18
1.19
0.99
0.63
1.31
1.1
0.99
0.62
1.3
1.06
0.97
0.62
1.19
1.2
0.99
0.64
1.27
1.07
0.98
0.63
1.26
0.99
0.89
0.63
1.25
0.96
0.97
0.64
1.31
1.13
1.03
0.96
0.63
1.17
1.17
0.99
0.98
0.64
1.27
1.06
0.95
0.62
1.14
1.15
0.92
0.63
1.18
0.93
0.93
0.62
1.25
1.04
0.95
0.63
1.18
1.18
0.97
0.63
1.15
1.15
0.97
0.64
1.25
1.06
0.98
0.63
1.16
1.17
0.94
0.63
1.17
0.91
0.63
1.1
0.89
0.63
1.31
1.14
1.01
0.99
1.0
0.64
1.26
1.04
0.96
0.62
1.19
1.19
0.99
0.63
1.18
1.18
0.99
0.63
1.24
1.03
0.93
0.62
1.27
1.01
0.91
0.63
1.16
1.17
0.99
0.63
1.28
1.17
1.0
0.63
1.28
1.09
0.99
0.64
1.12
1.12
0.94
0.62
1.13
1.14
0.94
0.62
1.23
0.93
0.61
1.13
1.14
0.97
0.64
1.17
1.18
0.98
0.63
1.1
1.11
0.92
0.62
1.1
1.1
0.93
0.62
1.14
1.14
0.96
0.62
1.1
1.11
0.9
0.62
0.99
1.0
0.62
0.98
0.86
0.61
1.2
1.21
1.0
0.62
1.26
1.26
1.06
0.97
0.63
1.18
1.19
0.97
0.64
1.13
1.14
0.95
0.63
1.1
1.11
0.91
0.63
1.13
1.14
0.92
0.63
1.24
0.93
0.93
0.63
1.17
1.18
0.95
0.63
1.15
1.16
0.93
0.63
1.14
1.14
0.96
0.64
1.23
0.98
0.95
0.62
1.21
1.0
0.93
0.63
1.16
1.16
0.98
0.92
0.63
1.06
0.84
0.62
1.26
1.08
0.96
0.62
1.18
1.18
1.01
0.92
0.63
1.23
1.0
0.97
0.63
1.25
1.1
1.0
0.63
1.28
1.13
0.98
0.64
1.27
1.05
0.98
0.63
1.24
1.08
0.95
0.63
1.27
1.02
0.98
0.64
1.29
1.15
1.08
0.97
0.63
1.17
1.17
1.03
1.0
0.64
1.23
1.1
0.96
0.63
1.23
0.97
0.62
1.22
0.93
0.62
1.19
0.88
0.63
1.31
1.06
1.01
0.64
1.27
1.13
1.05
0.94
0.63
1.27
0.98
0.63
1.26
1.0
0.97
0.64
1.27
1.1
1.01
0.92
0.63
1.15
0.86
0.62
1.12
1.12
0.94
0.64
1.15
1.16
0.96
0.63
1.19
0.97
0.95
0.63
1.28
1.06
0.96
0.63
1.27
1.05
0.97
0.64
1.25
1.03
0.97
0.63
1.22
0.96
0.86
0.64
1.1
0.94
0.96
0.64
1.24
1.24
1.06
0.99
0.63
1.3
1.12
1.03
0.98
0.64
1.26
1.1
0.95
0.63
1.27
1.03
0.93
0.63
1.24
1.05
1.01
0.63
1.22
0.98
0.88
0.64
1.24
0.99
0.99
0.99
0.63
1.28
1.08
0.99
0.64
1.26
1.0
0.92
0.63
0.99
0.8
0.62
0.97
0.84
0.62
1.28
1.1
0.99
1.02
1.02
1.02
1.03
1.02
0.65
1.32
1.14
0.97
0.63
1.13
1.14
0.95
0.64
1.21
0.96
0.9
0.63
1.19
0.9
0.62
1.14
1.15
0.96
0.63
1.2
1.21
1.01
0.64
1.21
1.21
0.98
0.63
1.16
1.16
0.95
0.63
1.11
1.11
0.94
0.63
1.2
0.95
0.92
0.63
1.25
1.02
0.93
0.63
1.22
0.95
0.62
1.25
0.99
0.96
0.63
1.26
1.07
0.97
0.63
1.23
1.0
0.95
0.63
1.28
1.06
0.96
0.63
1.24
0.97
0.89
0.63
1.23
0.92
0.62
1.21
0.93
0.62
1.2
0.93
0.62
1.22
0.96
0.62
1.25
1.0
0.93
0.63
1.27
0.98
0.95
0.93
0.65
1.21
0.97
0.94
0.62
1.25
0.98
0.63
1.25
0.97
0.93
0.62
1.25
0.96
0.95
0.64
1.24
1.09
0.99
0.64
1.22
0.95
0.91
0.64
1.28
0.96
0.96
0.65
1.3
1.06
0.97
0.63
1.29
1.04
0.95
0.63
1.16
1.16
0.96
0.64
1.23
0.99
0.94
0.63
1.24
1.01
0.95
0.63
1.28
1.05
0.95
0.63
1.27
1.02
0.98
0.63
1.25
1.08
0.96
0.63
1.28
1.03
0.97
0.63
1.19
0.96
0.92
0.63
1.11
1.12
0.92
0.62
1.13
1.14
0.96
0.95
0.64
1.2
0.94
0.62
1.2
0.97
0.92
0.63
1.25
1.01
0.93
0.63
1.23
0.95
0.62
1.18
0.88
0.62
1.29
0.99
0.97
0.63
1.29
1.13
1.01
0.95
0.63
1.16
1.17
1.01
0.92
0.63
1.12
0.88
0.62
1.18
0.9
0.62
1.1
1.1
0.94
0.63
1.15
1.16
0.97
0.63
1.14
1.14
0.93
0.63
1.13
1.13
0.97
0.96
0.65
1.12
1.13
0.95
0.63
1.13
1.13
0.93
0.63
1.2
0.9
0.62
1.05
0.81
0.63
1.32
1.0
0.97
0.63
1.17
1.18
0.98
0.63
1.3
1.05
0.98
0.64
1.14
1.15
0.94
0.63
1.15
1.16
0.96
0.63
1.15
1.15
0.98
0.64
1.24
1.06
0.96
0.63
1.24
1.0
0.96
0.64
1.16
1.16
0.99
0.63
1.15
0.89
0.62
1.23
0.97
0.97
0.64
1.33
1.16
1.01
1.0
0.65
1.28
1.16
1.05
0.96
0.65
1.27
1.07
1.06
0.99
0.64
1.25
1.01
0.97
0.97
0.64
1.26
1.08
0.96
0.63
1.28
1.03
0.95
0.63
1.3
1.05
0.99
0.64
1.27
1.1
1.0
0.63
1.29
1.09
0.99
0.63
1.24
0.98
0.95
0.63
1.2
0.98
0.92
0.63
1.21
1.22
1.08
1.01
0.64
1.27
1.09
1.0
1.0
0.64
1.25
1.11
1.0
0.98
0.64
1.24
1.06
0.97
0.62
1.21
0.94
0.88
0.63
1.27
1.02
0.97
0.63
1.24
1.25
1.05
1.01
0.63
1.28
1.1
0.98
0.63
1.22
1.06
0.99
0.63
1.23
1.04
0.93
0.63
1.19
0.91
0.62
1.22
0.98
0.97
0.63
1.25
1.08
0.99
0.97
0.63
1.27
1.06
0.96
0.62
1.27
1.02
1.0
0.63
1.24
1.07
0.99
0.63
1.26
1.0
0.95
0.63
1.2
0.93
0.63
1.24
0.99
0.96
0.63
1.24
1.03
0.94
0.63
1.26
1.02
0.98
0.63
1.23
1.02
0.91
0.64
1.26
0.99
0.62
1.31
1.07
1.01
0.64
1.25
1.12
0.97
0.64
1.25
0.98
0.95
0.96
0.64
1.19
0.95
0.62
1.22
0.95
0.62
1.24
0.97
0.91
0.62
1.26
0.97
0.94
0.63
1.22
0.96
0.9
0.63
1.22
0.95
0.93
0.62
1.3
1.0
0.96
0.65
1.24
1.03
0.94
0.63
1.26
1.03
0.93
0.64
1.23
1.0
0.96
0.63
1.26
1.05
0.99
0.63
1.24
1.09
0.99
0.62
1.28
1.05
0.98
0.64
1.27
1.05
0.99
0.63
1.21
1.0
0.92
0.63
1.3
1.06
1.0
0.64
1.28
1.08
1.01
0.63
1.33
1.18
1.09
1.03
0.64
1.28
1.15
1.0
0.98
0.65
1.2
1.0
0.98
0.62
1.25
1.07
0.98
0.63
1.2
1.21
1.04
0.97
0.64
1.25
1.1
1.0
0.98
0.64
1.22
1.06
0.94
0.63
1.2
1.03
0.95
0.62
1.25
1.05
0.99
0.63
1.24
1.06
0.97
0.63
1.19
0.97
0.89
0.63
1.23
0.96
0.92
0.63
1.23
1.03
0.98
0.63
1.16
1.16
0.98
0.96
0.63
1.22
0.98
0.91
0.63
1.13
1.14
0.97
0.64
1.26
1.14
1.02
0.96
0.64
1.19
1.19
1.02
0.99
0.63
1.25
1.11
0.92
0.62
1.02
0.79
0.61
0.96
0.8
0.61
0.88
0.77
0.6
0.87
0.76
0.61
0.92
0.81
0.61
1.13
0.93
0.91
0.61
1.11
1.11
0.93
0.62
1.16
1.16
0.62
1.17
1.17
0.99
1.0
1.0
0.65
1.21
1.21
0.97
0.64
1.2
1.2
1.01
1.02
0.99
0.65
1.23
1.24
1.02
0.65
1.23
1.1
0.99
0.64
1.24
1.03
0.91
0.64
1.3
1.01
0.98
0.65
1.29
1.1
1.03
0.64
1.27
1.1
0.97
0.63
1.23
0.98
0.95
0.64
1.25
1.03
0.95
0.63
1.29
1.03
0.95
0.63
1.21
0.91
0.62
1.14
0.84
0.62
0.98
0.85
0.62
1.27
1.04
1.0
0.63
1.26
1.26
1.07
1.01
1.02
1.03
0.99
1.01
0.99
0.97
0.99
0.97
0.66
1.23
0.94
0.88
0.64
1.19
1.2
1.02
0.63
1.38
1.19
1.02
0.63
1.34
1.13
1.01
0.64
1.23
1.06
0.94
0.63
1.23
0.98
0.91
0.64
1.26
0.98
0.95
0.63
1.2
0.91
0.62
1.05
0.81
0.63
1.14
1.0
0.96
0.62
1.23
1.24
0.98
0.95
0.63
1.24
1.0
0.94
0.63
1.12
1.12
0.94
0.63
1.16
0.91
0.89
0.63
1.23
0.98
0.95
0.63
1.12
1.13
0.96
0.63
1.18
1.19
0.98
0.64
1.13
1.14
0.92
0.63
1.12
0.84
0.62
1.15
0.92
0.63
1.26
1.0
0.94
0.63
1.29
1.05
0.99
0.97
0.64
1.27
1.02
0.92
0.63
1.17
0.86
0.63
1.21
0.93
0.61
1.25
0.95
0.61
1.14
1.15
0.62
1.28
1.02
0.96
0.64
1.23
1.02
0.95
0.63
1.25
1.01
0.94
0.63
1.16
0.87
0.62
1.22
0.94
0.62
1.26
0.98
0.96
0.64
1.24
1.05
0.96
0.62
1.21
0.94
0.62
1.22
0.97
0.91
0.63
1.27
1.0
0.96
0.63
1.23
1.0
0.93
0.63
1.18
0.94
0.62
1.23
0.99
0.93
0.63
1.16
1.17
0.99
0.63
1.12
1.13
0.9
0.63
1.08
0.83
0.63
1.09
1.0
0.99
0.94
0.65
1.27
1.1
1.02
0.93
0.64
1.27
1.02
0.94
0.64
1.24
1.02
0.96
0.63
1.17
1.18
0.96
0.63
1.14
1.15
0.99
0.98
0.64
1.27
1.07
0.95
0.63
1.12
0.83
0.62
0.95
0.81
0.62
1.08
0.92
1.01
0.97
0.63
1.21
1.21
0.98
0.64
1.22
1.23
1.02
0.99
0.64
1.18
1.18
0.96
0.63
1.16
1.16
0.96
0.63
1.11
1.12
0.62
1.12
1.12
0.63
1.12
1.13
0.62
1.17
1.18
0.94
0.64
1.28
1.0
0.95
0.64
1.25
1.01
0.95
0.63
1.14
1.15
0.94
0.64
1.24
0.88
0.63
1.16
0.88
0.62
1.3
0.99
0.62
1.28
1.0
0.93
0.64
1.18
0.96
0.94
0.62
1.22
0.97
0.91
0.63
1.24
0.95
0.62
1.1
1.1
0.62
1.15
0.84
0.62
1.0
0.84
0.62
1.18
1.18
0.99
0.63
1.39
1.21
1.1
1.01
0.64
1.19
1.2
0.99
0.64
1.15
1.16
0.99
0.97
0.65
1.19
0.91
0.63
1.24
1.04
0.93
0.63
1.21
1.21
1.05
0.99
0.64
1.3
1.09
0.96
0.63
1.17
1.17
1.0
0.98
0.64
1.11
1.12
0.95
0.63
1.13
1.14
0.92
0.65
1.08
1.09
0.63
1.13
1.13
0.62
1.15
1.16
0.62
1.13
1.14
0.96
0.65
1.15
1.16
0.97
0.63
1.14
1.14
0.92
0.63
1.13
1.13
0.95
0.63
1.12
1.12
0.92
0.63
1.08
1.09
0.91
0.63
1.01
1.01
0.61
1.04
0.81
0.62
0.99
0.86
0.62
1.32
1.13
1.02
1.02
1.01
1.01
0.64
1.17
1.18
0.93
0.63
1.22
0.89
0.62
1.2
0.9
0.62
1.13
1.14
0.93
0.64
1.07
1.08
0.93
0.63
1.1
1.1
0.94
0.63
1.13
1.13
0.92
0.64
1.12
1.13
0.62
1.05
1.05
0.62
1.05
1.05
0.62
1.22
0.92
0.62
1.19
0.92
0.62
1.19
0.95
0.88
0.63
1.2
0.91
0.61
1.05
1.06
0.61
1.16
0.9
0.61
1.11
0.86
0.61
1.13
0.9
0.62
1.06
1.07
0.91
0.63
1.09
1.1
0.63
1.21
0.91
0.62
1.06
1.07
0.62
1.05
1.05
0.62
1.05
1.05
0.61
1.16
0.9
0.89
0.62
1.08
0.91
0.89
0.64
1.01
1.02
0.86
0.63
1.06
0.85
0.62
0.98
0.83
0.62
1.03
0.85
0.62
0.98
0.99
0.86
0.63
1.01
0.85
0.62
0.97
0.97
0.62
1.06
0.83
0.62
1.0
0.83
0.62
1.0
0.88
0.63
1.05
0.86
0.62
1.0
0.82
0.62
1.03
0.86
0.62
1.0
1.0
0.62
0.97
0.97
0.62
1.0
1.0
0.61
1.01
1.01
0.62
1.0
1.0
0.61
0.96
0.96
0.62
0.95
0.96
0.62
1.01
0.81
0.62
0.96
0.8
0.63
1.05
0.89
0.63
1.05
1.06
0.9
0.64
1.1
0.86
0.63
1.0
0.81
0.64
1.04
0.86
0.63
1.01
1.01
0.62
0.99
1.0
0.62
1.0
1.01
0.63
1.02
1.03
0.63
1.07
0.83
0.63
0.96
0.97
0.62
0.96
0.97
0.62
1.06
0.86
0.62
1.01
1.01
0.62
1.09
0.85
0.62
0.98
0.99
0.63
1.04
1.05
0.62
1.07
1.08
0.63
1.15
0.89
0.63
1.11
0.89
0.63
1.13
0.89
0.64
1.2
0.91
0.63
1.21
0.92
0.63
1.22
0.92
0.63
1.23
0.91
0.63
1.22
0.9
0.63
1.21
0.89
0.63
1.16
0.86
0.63
1.11
0.87
0.63
1.14
0.89
0.62
1.14
0.9
0.62
1.11
0.87
0.63
1.16
0.93
0.63
1.17
0.92
0.63
1.19
0.93
0.62
1.21
0.93
0.63
1.13
0.84
0.63
0.97
0.81
0.63
1.18
0.92
0.61
1.08
1.09
0.62
1.17
0.91
0.62
1.14
0.88
0.62
1.14
0.89
0.62
1.07
1.07
0.62
1.09
1.09
0.63
1.09
1.1
0.62
1.1
1.1
0.9
0.64
1.15
1.16
0.95
0.65
1.1
1.1
0.92
0.64
1.08
1.08
0.63
1.06
1.06
0.63
1.07
1.08
0.62
1.06
1.07
0.62
1.16
0.88
0.63
1.07
0.88
0.63
1.08
0.87
0.63
1.08
0.87
0.64
1.12
0.86
0.63
1.09
0.86
0.62
1.11
0.87
0.63
1.06
0.86
0.63
1.1
0.85
0.64
1.07
0.88
0.87
0.64
0.99
0.82
0.63
1.0
0.84
0.63
1.12
0.89
0.62
1.16
0.89
0.62
1.17
0.91
0.62
1.05
1.06
0.62
1.07
1.08
0.62
1.19
0.94
0.63
1.09
1.1
0.64
1.12
1.13
0.94
0.65
1.14
1.15
0.94
0.67
1.13
1.13
0.64
1.1
1.1
0.63
1.17
0.86
0.63
1.22
0.88
0.62
1.12
0.86
0.63
1.13
0.91
0.62
1.14
0.9
0.62
1.11
0.88
0.62
1.14
0.9
0.62
1.16
0.9
0.62
1.17
0.87
0.62
1.2
0.91
0.62
1.17
0.92
0.62
1.15
0.9
0.62
1.16
0.9
0.62
1.1
0.88
0.63
1.1
0.9
0.88
0.64
1.08
0.86
0.63
1.04
0.84
0.62
1.0
0.85
0.62
1.07
0.89
0.62
1.15
0.93
0.89
0.63
1.13
0.9
0.63
1.12
0.91
0.62
1.16
0.92
0.63
1.17
0.92
0.91
0.63
1.17
0.91
0.89
0.64
1.13
0.9
0.62
0.99
0.99
0.63
1.08
0.89
0.88
0.65
1.13
0.92
0.94
0.91
0.66
1.08
1.08
0.63
1.05
1.05
0.62
1.1
1.11
0.62
1.14
1.14
0.94
0.64
1.2
0.94
0.91
0.64
1.07
1.08
0.88
0.63
1.16
0.87
0.62
1.07
0.83
0.62
0.97
0.8
0.63
1.01
0.84
0.63
1.02
0.82
0.62
1.04
0.87
0.62
1.1
0.88
0.63
1.07
0.87
0.63
1.18
0.98
0.91
0.63
1.06
1.07
0.62
1.05
1.05
0.63
1.14
0.87
0.63
1.13
0.89
0.62
1.13
0.88
0.62
1.15
0.9
0.62
1.04
1.04
0.62
1.07
1.07
0.92
0.64
1.1
1.1
0.63
1.04
1.05
0.63
1.17
0.88
0.62
1.06
1.06
0.62
1.06
1.06
0.63
1.04
1.05
0.62
1.09
0.87
0.62
1.07
0.85
0.63
1.12
0.89
0.87
0.64
1.08
0.85
0.63
1.05
0.85
0.62
1.14
0.87
0.61
1.01
1.01
0.62
1.13
0.88
0.62
1.12
0.88
0.62
1.11
0.87
0.62
1.08
0.85
0.63
1.05
0.82
0.63
0.97
0.83
0.63
1.0
1.01
0.62
1.04
1.04
0.64
1.05
1.06
0.89
0.64
1.04
1.05
0.64
1.0
1.0
0.63
1.08
0.83
0.63
1.09
0.87
0.63
1.02
1.02
0.62
1.07
0.84
0.63
0.98
0.79
0.63
0.92
0.8
0.62
1.01
0.82
0.63
1.01
0.83
0.62
0.98
0.82
0.62
0.99
0.83
0.62
1.03
0.81
0.63
1.02
0.83
0.62
1.04
0.85
0.62
1.11
0.85
0.63
0.99
0.99
0.62
1.0
1.01
0.62
1.04
1.05
0.62
1.05
1.05
0.62
0.98
0.98
0.63
0.97
0.98
0.63
1.08
0.85
0.63
1.08
0.86
0.63
1.1
0.85
0.63
1.07
0.83
0.63
1.11
0.84
0.63
1.08
0.84
0.63
1.12
0.84
0.63
1.06
0.87
0.63
1.15
0.92
0.63
1.09
1.1
0.92
0.65
1.2
0.94
0.63
1.18
0.91
0.63
1.13
0.88
0.63
1.09
0.86
0.63
1.16
0.88
0.63
1.18
0.89
0.63
1.11
0.85
0.64
1.05
0.85
0.62
1.1
0.92
0.63
1.1
1.1
0.92
0.65
1.21
0.96
0.91
0.65
1.11
1.12
0.64
1.11
1.12
0.93
0.65
1.23
0.99
0.92
0.65
1.11
1.11
0.9
0.65
1.05
1.06
0.63
1.06
1.06
0.63
1.18
0.91
0.63
1.17
0.92
0.62
1.07
1.08
0.9
0.64
1.17
0.9
0.63
1.15
0.91
0.64
1.12
0.87
0.64
1.07
0.86
0.63
1.13
0.85
0.63
1.03
0.82
0.64
1.04
0.89
0.63
1.13
0.89
0.63
1.02
1.02
0.63
1.06
1.06
0.63
1.05
1.06
0.63
1.03
1.04
0.62
1.03
1.03
0.62
1.04
1.04
0.62
1.03
1.04
0.87
0.63
1.05
0.81
0.63
0.98
0.83
0.63
1.05
1.06
0.9
0.64
1.16
0.91
0.63
1.11
0.89
0.63
1.11
0.88
0.62
1.1
0.85
0.62
1.1
0.85
0.63
1.06
0.87
0.62
1.08
0.87
0.61
1.01
1.02
0.63
1.04
1.05
0.63
1.06
1.06
0.9
0.63
1.15
0.9
0.63
1.14
0.87
0.63
1.1
0.84
0.63
1.04
0.83
0.62
1.09
0.92
0.95
0.64
1.08
1.09
0.91
0.63
1.08
1.09
0.63
1.16
0.86
0.63
1.13
0.87
0.63
1.14
0.9
0.63
1.1
0.87
0.62
1.07
0.85
0.62
1.06
0.87
0.62
1.08
0.88
0.62
1.15
0.88
0.62
1.15
0.89
0.62
1.06
1.07
0.63
1.06
1.07
0.62
1.05
1.06
0.62
1.05
1.06
0.63
1.16
0.91
0.62
1.12
0.87
0.62
1.13
0.91
0.63
1.16
0.87
0.62
1.15
0.88
0.62
1.11
0.88
0.63
1.16
0.92
0.63
1.17
0.91
0.63
1.15
0.9
0.63
1.1
0.87
0.63
1.06
0.84
0.63
0.97
0.83
0.63
1.15
0.86
0.62
1.14
0.86
0.62
1.15
0.88
0.63
1.12
0.86
0.63
1.1
0.87
0.63
1.1
0.88
0.62
1.12
0.88
0.62
1.08
0.87
0.62
1.16
0.91
0.63
1.12
0.87
0.62
1.05
0.8
0.63
1.08
0.87
0.64
1.18
0.92
0.64
1.14
0.88
0.64
1.16
0.91
0.63
1.17
0.9
0.64
1.14
0.9
0.88
0.65
1.09
0.88
0.63
1.1
0.88
0.62
1.09
0.86
0.63
1.11
0.89
0.88
0.64
1.12
0.9
0.62
1.1
0.89
0.62
1.09
0.87
0.62
1.07
0.87
0.62
1.13
0.88
0.61
1.19
0.91
0.62
1.14
0.9
0.87
0.64
1.09
0.88
0.63
1.13
0.89
0.63
1.12
0.88
0.63
1.17
0.89
0.63
1.22
0.9
0.63
1.2
0.9
0.63
1.23
0.91
0.62
1.22
0.91
0.63
1.16
0.88
0.63
1.13
0.85
0.63
1.06
0.83
0.63
1.11
0.86
0.62
1.13
0.91
0.62
1.15
0.92
0.87
0.65
1.11
0.9
0.63
1.16
0.92
0.62
1.15
0.91
0.63
1.11
0.88
0.62
1.07
0.85
0.63
1.13
0.9
0.62
1.21
0.95
0.91
0.64
1.23
0.98
0.91
0.63
1.22
0.92
0.63
1.18
0.89
0.62
1.23
0.91
0.62
1.23
0.93
0.62
1.22
0.93
0.63
1.21
0.89
0.63
1.19
0.88
0.63
1.15
0.87
0.63
1.12
0.89
0.63
1.16
0.92
0.63
1.19
0.94
0.63
1.18
0.9
0.63
1.17
0.91
0.63
1.16
0.89
0.63
1.13
0.87
0.63
1.07
0.85
0.62
1.03
0.85
0.63
1.1
0.88
0.63
1.09
0.87
0.63
1.09
0.87
0.63
1.12
0.88
0.63
1.16
0.87
0.62
1.13
0.88
0.63
1.1
0.88
0.64
1.14
0.91
0.63
1.22
0.95
0.89
0.65
1.21
0.9
0.62
1.17
0.85
0.64
1.11
0.88
0.63
1.15
0.9
0.63
1.15
0.9
0.63
1.11
0.88
0.63
1.11
0.92
0.89
0.65
1.13
0.9
0.63
1.12
0.88
0.63
1.09
0.88
0.63
1.1
0.84
0.62
1.06
0.86
0.62
1.16
0.91
0.62
1.15
0.9
0.63
1.19
0.95
0.91
0.64
1.14
0.92
0.63
1.19
0.95
0.9
0.64
1.25
0.97
0.88
0.64
1.2
0.9
0.63
1.19
0.89
0.63
1.07
0.85
0.64
1.15
0.92
0.63
1.19
0.93
0.88
0.64
1.18
0.86
0.63
1.11
0.85
0.62
1.1
0.87
0.63
1.1
0.89
0.63
1.12
0.89
0.63
1.12
0.88
0.63
1.1
0.89
0.62
1.16
0.92
0.9
0.64
1.17
0.94
0.92
0.64
1.19
0.92
0.63
1.18
0.9
0.62
1.14
0.92
0.64
1.2
0.95
0.95
0.64
1.22
0.92
0.88
0.66
1.14
0.88
0.63
1.22
0.92
0.63
1.09
1.1
0.62
1.09
1.1
0.63
1.22
0.9
0.63
1.14
0.88
0.63
1.15
0.91
0.63
1.17
0.92
0.63
1.15
0.9
0.62
1.11
0.88
0.62
1.1
0.88
0.63
1.09
0.89
0.62
1.13
0.87
0.62
1.08
0.84
0.62
1.09
0.85
0.63
1.07
0.86
0.63
1.08
0.88
0.62
1.11
0.89
0.63
1.15
0.91
0.62
1.12
0.89
0.63
1.16
0.9
0.63
1.21
0.91
0.63
1.2
0.89
0.63
1.22
0.92
0.62
1.22
0.9
0.63
1.13
0.87
0.63
1.12
0.91
0.63
1.17
0.91
0.63
1.13
0.89
0.63
1.14
0.9
0.63
1.1
0.89
0.63
1.14
0.91
0.89
0.63
1.12
0.89
0.62
1.14
0.9
0.62
1.15
0.91
0.62
1.18
0.94
0.92
0.64
1.13
0.9
0.63
1.14
0.9
0.63
1.12
0.9
0.62
1.05
1.06
0.63
1.17
0.93
0.9
0.65
1.14
0.9
0.63
1.02
1.03
0.62
1.05
1.05
0.62
1.02
1.02
0.63
0.98
0.99
0.63
1.05
1.06
0.93
0.63
1.09
1.1
0.92
0.64
1.09
1.09
0.63
1.07
1.07
0.9
0.65
1.13
0.92
0.63
1.16
0.93
0.64
1.02
1.03
0.63
1.03
1.04
0.89
0.64
1.02
1.02
0.63
0.97
0.97
0.64
0.97
0.98
0.88
0.65
1.04
1.04
0.88
0.65
1.1
0.88
0.64
1.07
0.87
0.64
1.09
0.86
0.63
0.93
0.77
0.63
0.98
0.87
0.64
1.11
1.11
0.96
0.95
0.97
0.97
0.93
0.96
0.95
0.92
0.96
0.94
0.91
0.67
1.08
1.09
0.63
1.04
1.04
0.63
1.03
1.03
0.63
1.03
1.04
0.63
1.06
1.06
0.63
1.08
1.09
0.9
0.64
1.06
1.07
0.63
1.08
1.09
0.63
1.05
1.05
0.62
1.01
1.01
0.63
1.12
0.89
0.63
1.11
0.9
0.62
1.03
0.85
0.63
1.18
1.0
0.91
0.64
1.2
0.93
0.63
1.19
0.93
0.63
1.08
0.83
0.63
0.99
0.8
0.63
0.99
0.88
0.63
1.18
0.9
0.63
1.17
0.94
0.94
0.64
1.1
1.1
0.93
0.65
1.07
1.08
0.63
1.06
1.07
0.63
1.09
1.09
0.62
1.11
1.11
0.63
1.12
1.12
0.63
1.18
0.91
0.64
1.21
0.96
0.63
1.12
1.13
0.63
1.09
1.1
0.63
1.15
0.91
0.63
1.09
0.84
0.64
1.08
0.89
0.62
1.07
1.07
0.95
0.64
1.12
1.12
0.92
0.65
1.07
1.07
0.63
1.2
0.94
0.62
1.25
0.97
0.63
1.26
1.01
0.92
0.64
1.23
0.91
0.62
1.03
0.8
0.64
1.17
0.9
0.63
1.2
0.86
0.64
0.94
0.76
0.66
0.8
0.72
0.64
0.74
0.7
0.65
0.72
0.67
0.65
0.69
0.67
0.65
0.67
0.67
0.62
0.69
0.65
0.63
0.68
0.65
0.6
0.71
0.67
0.6
0.72
0.68
0.6
0.74
0.69
0.6
0.73
0.68
0.63
0.72
0.69
0.61
0.82
0.75
0.6
0.83
0.83
0.61
0.88
0.75
0.62
0.92
0.93
0.82
0.82
1.03
0.92
0.95
0.92
0.95
1.0
1.02
0.98
1.03
1.06
1.05
0.97
1.01
1.02
0.95
0.67
1.18
1.18
0.95
1.01
1.06
1.03
1.04
1.09
1.05
0.98
0.67
1.29
0.99
0.91
0.66
1.3
0.97
0.64
1.29
1.02
0.93
0.64
1.21
1.22
0.99
1.01
1.03
0.99
1.02
1.02
0.96
0.67
1.33
1.06
0.94
0.64
1.31
0.96
0.62
1.24
1.24
1.01
1.03
1.02
0.66
1.36
1.2
1.02
1.03
1.02
0.96
0.67
1.28
1.05
0.98
0.65
1.29
1.1
1.03
0.63
1.19
1.2
0.93
0.63
1.17
1.17
0.92
0.64
1.29
1.01
0.97
0.64
1.28
1.02
0.97
0.64
1.23
1.01
0.97
0.63
1.25
0.99
0.9
0.63
1.25
0.96
0.62
1.24
0.96
0.62
1.27
1.01
0.92
0.63
1.3
1.03
0.92
0.63
1.25
0.97
0.96
0.63
1.24
1.0
0.93
0.62
1.2
0.95
0.87
0.63
1.23
0.94
0.61
1.23
0.95
0.89
0.62
1.25
0.94
0.61
1.27
0.96
0.61
1.3
0.98
0.61
1.27
1.02
0.92
0.63
1.26
0.97
0.62
1.24
0.96
0.62
1.27
1.02
0.91
0.62
1.24
0.96
0.91
0.62
1.23
0.94
0.61
1.21
0.92
0.61
1.3
0.97
0.98
0.63
1.27
1.1
1.01
0.62
1.24
1.03
0.93
0.62
1.26
0.97
0.62
1.26
1.02
0.92
0.62
1.29
1.0
0.94
0.63
1.25
1.0
0.96
0.62
1.23
1.0
0.95
0.61
1.29
1.04
0.93
0.62
1.26
0.98
0.94
0.62
1.22
0.98
0.96
0.62
1.28
1.01
0.94
0.62
1.32
1.06
0.95
0.62
1.27
1.01
0.97
0.63
1.25
1.03
0.94
0.62
1.23
0.95
0.61
1.24
0.96
0.61
1.22
0.97
0.93
0.62
1.24
0.97
0.9
0.62
1.25
0.93
0.61
1.24
0.95
0.61
1.24
0.93
0.61
1.28
0.96
0.6
1.23
0.97
0.94
0.61
1.24
0.99
0.61
1.24
1.05
0.96
0.62
1.29
1.03
0.95
0.62
1.26
0.99
0.96
0.62
1.24
1.01
0.91
0.62
1.27
0.97
0.61
1.28
1.01
0.94
0.62
1.23
1.04
0.95
0.62
1.26
0.97
0.95
0.62
1.26
1.02
0.97
0.62
1.23
1.04
0.96
0.62
1.26
1.02
0.95
0.62
1.26
1.08
1.0
0.62
1.24
1.04
0.92
0.62
1.25
0.95
0.61
1.25
0.96
0.61
1.25
0.98
0.61
1.27
0.97
0.61
1.28
0.99
0.61
1.27
1.02
0.94
0.62
1.28
0.99
0.95
0.62
1.21
1.0
0.95
0.62
1.25
1.0
0.93
0.62
1.27
1.0
0.98
0.62
1.25
1.09
0.98
0.62
1.29
1.06
0.95
0.62
1.27
0.98
0.63
1.29
1.02
0.99
0.63
1.24
1.11
0.97
0.62
1.26
1.02
0.94
0.63
1.25
0.98
0.62
1.28
1.0
0.62
1.3
1.05
1.0
0.62
1.27
1.1
1.0
0.62
1.27
1.04
0.94
0.62
1.26
1.04
0.98
0.62
1.24
1.05
0.95
0.63
1.25
0.99
0.95
0.62
1.26
1.01
0.99
0.62
1.25
1.05
0.95
0.62
1.28
0.99
0.62
1.3
1.01
0.98
0.62
1.25
1.01
0.92
0.62
1.19
0.94
0.61
1.22
0.96
0.61
1.24
0.97
0.61
1.28
1.03
0.93
0.63
1.28
1.01
0.96
0.62
1.26
1.07
0.99
0.63
1.26
1.03
0.93
0.64
1.26
0.97
0.62
1.25
0.98
0.61
1.27
1.0
0.61
1.29
1.01
0.97
0.62
1.25
1.05
0.94
0.62
1.26
0.98
0.93
0.62
1.22
0.96
0.95
0.62
1.23
1.02
0.98
0.62
1.25
1.0
0.9
0.63
1.23
0.96
0.61
1.28
1.02
0.98
0.62
1.28
1.09
0.97
0.62
1.28
1.03
0.96
0.63
1.23
0.98
0.95
0.62
1.27
1.01
0.94
0.62
1.3
1.06
1.0
0.62
1.28
1.06
0.96
0.63
1.3
1.03
0.97
0.62
1.26
1.05
0.95
0.63
1.26
0.97
0.61
1.23
0.96
0.61
1.29
1.03
0.95
0.62
1.32
1.06
1.02
0.62
1.29
1.17
1.0
0.62
1.3
1.03
0.96
0.63
1.27
1.04
0.97
0.62
1.28
0.98
0.61
1.27
0.98
0.61
1.31
1.0
0.61
1.34
1.05
0.97
0.63
1.32
1.07
1.0
0.62
1.26
1.04
0.94
0.63
1.27
0.98
0.62
1.27
1.0
0.97
0.62
1.29
1.04
0.97
0.62
1.33
1.05
1.01
0.63
1.27
1.11
0.99
0.62
1.28
1.07
0.94
0.63
1.29
1.02
0.98
0.62
1.29
1.08
1.0
0.63
1.27
1.1
0.95
0.62
1.27
1.02
0.99
0.62
1.26
1.07
0.97
0.63
1.31
1.06
0.96
0.62
1.28
1.01
0.98
0.62
1.27
1.07
0.97
0.62
1.23
1.02
0.9
0.63
1.26
0.97
0.62
1.29
1.0
0.97
0.63
1.27
1.08
0.98
0.62
1.28
1.05
0.96
0.63
1.27
1.03
0.99
0.63
1.25
1.11
0.98
0.62
1.29
1.03
0.97
0.63
1.24
1.03
0.98
0.62
1.25
1.03
0.94
0.63
1.26
0.98
0.62
1.15
1.16
0.96
0.63
1.25
1.04
0.98
0.62
1.26
1.05
0.95
0.63
2.27
0.97
0.63
1.22
1.03
0.95
0.63
1.14
1.14
0.93
0.62
1.13
1.14
0.61
1.2
1.21
1.02
0.63
1.32
1.23
1.11
0.99
0.63
1.16
1.16
0.98
0.62
1.25
1.08
0.96
0.62
0.57
0.6
0.87
0.62
0.94
0.79
0.61
0.87
0.76
0.61
0.85
0.77
0.59
0.87
0.76
0.61
0.9
0.83
0.61
1.22
0.94
0.61
1.19
1.19
0.98
0.62
1.22
0.94
0.88
0.64
1.04
0.85
0.62
1.24
0.99
1.02
0.63
1.29
1.3
1.07
1.08
1.06
0.65
1.31
1.31
1.05
0.64
1.22
1.23
1.01
0.64
1.26
1.07
0.99
0.63
1.19
1.19
0.94
0.64
1.28
1.01
0.62
1.16
1.16
0.62
1.16
1.16
0.95
0.63
1.19
1.2
1.0
0.63
1.31
1.11
1.03
0.63
1.28
1.14
1.02
0.62
1.33
1.1
0.97
0.63
1.33
1.04
1.0
0.63
1.3
1.08
0.99
0.63
1.34
1.14
0.99
0.63
1.33
1.11
0.99
0.63
1.26
1.09
1.02
0.63
1.29
1.08
0.95
0.63
1.32
1.04
0.99
0.63
1.32
1.18
1.08
0.63
1.31
1.16
0.96
0.63
1.26
1.01
0.62
1.34
1.12
1.03
0.63
1.34
1.18
1.1
0.63
1.28
0.96
0.61
1.17
0.93
0.62
1.36
1.17
1.07
0.61
1.42
1.22
1.08
1.05
0.64
1.3
1.19
1.01
0.63
1.29
1.05
0.98
0.63
1.31
1.06
1.0
0.62
1.31
1.2
1.02
1.01
0.63
1.3
1.07
0.97
0.62
1.27
1.03
0.94
0.62
1.33
1.02
0.98
0.63
1.27
1.04
1.02
0.63
1.29
1.15
1.03
0.63
1.32
1.17
1.02
0.63
1.28
1.02
0.97
0.63
1.27
1.1
1.02
0.62
1.27
1.12
0.96
0.62
1.27
1.0
0.91
0.63
1.26
0.97
0.62
1.34
1.03
0.99
0.62
1.31
1.22
1.05
1.0
0.63
1.31
1.08
1.0
0.61
1.29
1.12
1.0
0.62
1.31
1.07
1.01
0.62
1.26
1.13
1.0
0.62
1.29
1.11
0.98
0.62
1.28
1.04
0.98
0.62
1.25
1.06
0.97
0.62
1.28
1.03
0.97
0.62
1.31
1.09
1.03
0.61
1.31
1.14
0.99
0.62
1.32
1.09
1.04
0.63
1.28
1.14
1.04
0.62
1.29
1.11
0.97
0.62
1.32
1.1
1.02
0.62
1.25
1.14
1.01
0.62
1.3
1.08
1.0
0.62
1.29
1.12
1.04
0.97
0.62
1.28
0.99
0.97
0.62
1.25
1.03
0.97
0.62
1.25
1.07
0.96
0.61
1.25
1.02
0.93
0.62
1.29
1.0
0.96
0.62
1.25
0.99
0.93
0.62
1.28
0.97
0.62
1.31
1.06
0.97
0.63
1.3
1.06
0.99
0.62
1.23
1.04
0.97
0.62
1.28
1.03
0.93
0.63
1.26
1.0
0.96
0.62
1.28
1.05
0.95
0.63
1.3
1.01
0.99
0.63
1.27
1.11
1.0
0.62
1.3
1.09
0.96
0.62
1.31
1.03
0.99
0.62
1.26
1.07
0.96
0.62
1.26
1.01
0.94
0.62
1.27
1.07
1.01
0.62
1.32
1.19
1.01
0.62
1.29
1.16
1.1
0.99
0.63
1.33
1.09
1.01
0.62
1.25
1.05
0.98
0.63
1.28
1.07
0.98
0.63
1.29
1.06
0.97
0.63
1.24
1.04
0.98
0.62
1.31
1.03
0.98
0.62
1.31
1.08
1.01
0.62
1.3
1.11
0.97
0.62
1.33
1.02
1.0
0.63
1.3
1.11
1.0
0.62
1.33
1.09
0.99
0.63
1.31
1.07
1.01
0.62
1.26
1.04
0.95
0.62
1.31
1.06
0.99
0.62
1.29
1.09
0.97
0.62
1.28
1.01
0.61
1.28
0.99
0.62
1.3
1.03
0.98
0.62
1.26
1.07
1.0
0.61
1.26
1.04
0.94
0.62
1.28
1.02
0.98
0.63
1.25
1.08
0.95
0.62
1.28
1.0
0.62
1.28
1.01
0.96
0.63
1.29
1.08
1.0
0.62
1.28
1.08
0.98
0.62
1.34
1.12
1.02
0.62
1.29
1.16
1.05
0.63
1.27
1.1
0.98
0.62
1.31
1.04
1.01
0.63
1.29
1.15
1.02
0.61
1.3
1.11
0.92
0.63
1.27
1.01
0.62
1.35
1.11
1.03
0.63
1.33
1.22
1.07
1.01
0.63
1.28
1.1
0.99
0.62
1.3
0.97
0.62
1.3
1.03
1.0
0.62
1.32
1.11
0.97
0.63
1.32
1.02
0.63
1.29
1.0
0.63
1.26
0.96
0.62
1.28
0.96
0.62
1.27
0.98
0.61
1.28
1.05
0.95
0.62
1.31
1.05
0.99
0.63
1.25
1.12
0.99
0.61
1.29
1.08
1.01
0.62
1.26
1.13
1.04
0.62
1.27
1.05
0.97
0.63
1.3
1.1
1.02
0.62
1.28
1.09
1.0
0.62
1.27
1.0
0.62
1.27
1.03
1.0
0.63
1.31
1.13
1.04
0.62
1.32
1.16
1.01
0.62
1.27
1.08
1.03
0.62
1.31
1.14
1.01
0.62
1.3
1.11
1.02
0.62
1.24
1.09
0.96
0.62
1.27
1.03
0.99
0.62
1.28
1.11
0.99
0.62
1.31
1.09
1.0
0.62
1.31
1.09
1.01
0.62
1.27
1.12
0.99
0.62
1.29
1.01
0.98
0.63
1.24
1.05
0.96
0.62
1.31
1.02
0.94
0.62
1.31
1.0
0.97
0.62
1.3
1.06
0.98
0.61
1.32
1.06
0.99
0.63
1.35
1.14
1.05
0.62
1.33
1.15
1.01
0.63
1.31
1.09
1.01
0.62
1.26
1.11
0.98
0.63
1.29
1.08
0.96
0.62
1.31
1.11
1.01
0.62
1.29
1.07
0.98
0.63
1.29
1.09
1.01
0.62
1.3
1.09
0.95
0.62
1.29
1.02
0.99
0.62
1.31
1.13
0.99
0.62
1.31
1.04
0.99
0.63
1.29
1.11
1.0
0.62
1.3
1.02
0.99
0.62
1.29
1.07
1.0
0.62
1.3
1.06
0.97
0.62
1.27
1.05
0.99
0.62
1.25
1.08
0.93
0.62
1.3
0.97
0.62
1.32
1.06
1.01
0.62
1.29
1.12
0.98
0.62
1.27
1.04
0.99
0.62
1.27
1.09
0.96
0.61
1.31
1.06
1.02
0.63
1.25
1.08
0.99
0.62
1.3
1.06
0.96
0.62
1.29
1.07
1.0
0.63
1.31
1.12
0.99
0.62
1.27
1.05
0.99
0.62
1.25
1.1
0.98
0.62
1.3
1.12
1.02
0.62
1.26
1.11
1.01
0.62
1.24
1.0
0.97
0.63
1.25
1.07
0.99
0.62
1.28
1.1
0.99
0.62
1.29
1.09
1.05
0.62
1.3
1.22
1.06
1.06
1.03
0.63
1.36
1.15
1.03
0.62
1.31
1.16
1.02
0.62
1.28
1.07
0.99
0.62
1.24
1.04
1.02
0.62
1.27
1.12
0.97
0.63
1.32
1.07
1.0
0.62
1.24
1.05
0.97
0.62
1.35
1.1
1.02
0.63
1.28
1.13
1.02
0.63
1.29
1.08
0.99
0.63
1.32
1.1
1.04
0.62
1.27
1.05
0.96
0.63
1.27
1.02
1.02
0.63
1.27
1.16
1.05
1.03
0.63
1.36
1.2
1.12
1.02
0.63
1.34
1.14
1.07
1.03
0.63
1.29
1.13
1.04
0.62
1.29
1.06
1.02
0.63
1.26
1.17
1.0
0.62
1.3
1.07
1.01
0.62
1.34
1.18
1.12
1.04
0.63
1.35
1.15
1.06
0.63
1.28
1.12
1.02
0.62
1.28
1.08
0.96
0.62
1.28
1.01
0.95
0.62
1.25
1.1
1.02
0.62
1.4
1.18
1.07
1.05
0.63
1.29
1.1
1.01
0.62
1.27
1.17
1.06
0.62
1.32
1.19
1.03
0.63
1.3
1.13
1.06
0.62
1.3
1.18
1.02
0.62
1.31
1.09
1.02
1.0
0.64
1.3
1.15
1.02
0.62
1.28
1.1
1.01
0.62
1.25
1.11
1.0
0.62
1.25
1.1
1.03
0.63
1.27
1.1
1.01
0.63
1.26
1.12
1.05
0.97
0.62
1.28
1.04
0.99
0.62
1.2
1.05
1.05
0.93
0.63
1.18
1.18
0.99
0.63
1.26
1.1
0.99
0.62
1.27
1.03
0.97
0.62
1.26
1.03
0.98
0.62
1.22
1.07
0.96
0.62
1.26
1.04
0.96
0.63
1.25
1.0
0.93
0.63
1.03
0.82
0.62
1.0
0.84
0.62
1.11
0.88
0.6
1.13
0.87
0.61
1.13
0.87
0.61
0.99
0.99
0.61
1.04
1.05
0.61
1.14
1.15
0.61
1.2
1.21
0.61
1.24
1.24
0.61
1.11
1.12
0.62
1.09
1.1
0.61
1.14
1.15
0.62
1.12
1.13
0.62
1.21
1.22
0.95
0.62
1.05
1.06
0.62
0.95
0.78
0.62
0.85
0.75
0.61
0.86
0.75
0.62
0.85
0.75
0.62
0.88
0.79
0.61
0.99
0.86
0.6
1.12
0.91
0.61
1.24
1.01
1.0
0.62
1.33
1.34
1.05
0.63
1.4
1.19
1.06
0.64
1.29
1.12
1.01
0.63
1.25
1.01
0.62
1.29
1.14
1.01
0.62
1.25
1.26
1.0
0.63
1.34
1.11
1.01
0.63
1.35
1.1
0.97
0.63
1.22
1.22
1.02
0.64
1.33
1.17
1.06
0.62
1.31
1.13
0.97
0.62
1.34
1.01
0.62
1.35
1.05
0.62
1.32
1.12
1.02
0.63
1.31
1.17
1.06
0.62
1.29
1.13
0.98
0.63
1.3
1.04
1.01
0.63
1.26
1.09
1.01
0.63
1.34
1.13
1.0
0.62
1.32
1.09
1.03
0.64
1.32
1.13
1.06
0.62
1.3
1.14
0.99
0.62
1.29
1.02
0.99
0.63
1.26
1.02
0.99
0.62
1.29
1.03
0.94
0.63
1.32
1.05
1.01
0.63
1.3
1.15
1.05
0.63
1.3
1.1
0.98
0.62
1.32
1.05
1.0
0.63
1.32
1.17
1.1
1.01
0.63
1.37
1.15
1.05
0.62
1.29
1.15
1.01
0.62
1.31
1.1
0.99
0.62
1.31
1.1
1.03
0.61
1.3
1.17
1.0
0.61
1.29
1.04
0.61
1.32
1.03
0.61
1.27
1.06
0.95
0.62
1.31
1.09
1.03
0.62
1.3
1.15
1.08
1.05
0.63
1.38
1.21
1.13
1.02
0.62
1.32
1.06
1.02
0.63
1.28
1.15
1.01
0.62
1.37
1.14
1.03
0.62
1.33
1.13
1.05
0.62
1.31
1.19
1.01
0.61
1.35
1.11
1.03
0.63
1.29
1.11
1.0
0.62
1.3
1.15
0.99
0.62
1.33
1.12
1.03
0.62
1.24
1.08
1.03
0.62
1.31
1.1
0.99
0.62
1.39
1.16
1.08
0.62
1.3
1.17
1.01
0.62
1.32
1.08
0.99
0.62
1.32
1.12
1.0
0.61
1.34
1.14
1.02
0.62
1.3
1.11
0.99
0.61
1.36
1.11
1.03
0.63
1.3
1.14
1.01
0.62
1.32
1.09
0.98
0.62
1.35
1.1
1.05
0.62
1.37
1.26
1.1
1.05
0.62
1.3
1.15
1.04
0.62
1.37
1.24
1.11
1.07
0.62
1.32
1.18
1.0
0.62
1.33
1.03
1.0
0.62
1.31
1.07
0.99
0.62
1.32
1.06
0.61
1.33
1.04
0.62
1.34
1.05
1.0
0.62
1.31
1.11
1.01
0.62
1.41
1.17
1.06
0.63
1.39
1.23
1.14
1.04
0.62
1.32
1.13
1.13
1.04
0.63
1.32
1.15
1.04
0.62
1.34
1.18
1.12
1.02
0.62
1.37
1.13
1.09
1.13
1.02
0.63
1.35
1.18
1.09
1.01
0.62
1.35
1.1
1.05
0.62
1.32
1.19
1.03
1.07
1.07
0.64
1.34
1.17
1.0
0.62
1.31
1.1
1.08
0.62
1.34
1.21
1.11
1.07
1.14
1.08
0.63
1.38
1.2
1.14
1.11
0.62
1.34
1.2
1.06
0.63
1.34
1.19
1.16
1.06
1.09
1.15
1.03
0.63
1.36
1.16
1.18
1.11
1.05
0.63
1.29
1.11
1.14
1.0
0.63
1.34
1.11
1.06
1.03
0.63
1.38
1.2
1.14
1.14
1.05
1.11
1.07
0.63
1.34
1.18
1.14
1.11
1.01
0.62
1.32
1.13
1.1
1.03
0.61
1.31
1.15
1.04
1.06
0.62
1.31
1.23
1.07
1.09
1.13
1.04
0.63
1.34
1.16
1.11
1.1
1.03
0.63
1.3
1.15
1.13
0.98
1.04
1.11
1.02
0.63
1.33
1.13
1.14
1.08
0.62
1.31
1.17
1.07
0.62
1.28
1.16
1.12
1.08
1.11
0.63
1.29
1.16
1.03
0.61
1.31
1.12
1.07
0.99
0.62
1.33
1.14
1.07
1.11
1.01
0.63
1.32
1.17
1.15
1.05
0.63
1.36
1.18
1.1
0.63
1.35
1.23
1.17
1.08
0.62
1.35
1.14
1.11
0.62
1.3
1.2
1.06
0.61
1.33
1.14
1.03
0.62
1.31
1.11
0.99
0.62
1.28
1.06
0.96
0.62
1.31
1.09
1.02
0.61
1.4
1.15
1.05
0.63
1.34
1.21
1.06
0.62
1.33
1.16
1.01
0.62
1.33
1.1
1.04
0.62
1.31
1.16
1.03
0.62
1.34
1.13
1.03
0.62
1.32
1.13
1.04
0.62
1.31
1.18
1.03
0.63
1.35
1.18
1.1
0.62
1.3
1.2
1.05
0.62
1.29
1.04
1.01
0.62
1.32
1.16
0.99
0.62
1.35
1.09
1.04
0.62
1.28
1.14
0.99
0.62
1.37
1.13
1.02
0.62
1.29
1.08
0.97
0.62
1.29
1.02
0.98
0.62
1.35
1.13
1.04
0.62
1.33
1.15
1.01
0.62
1.36
1.11
1.04
0.62
1.32
1.17
1.04
0.63
1.36
1.12
1.01
0.62
1.34
1.09
1.02
0.62
1.33
1.15
1.0
0.63
1.32
1.08
1.02
0.63
1.3
1.2
1.05
0.62
1.38
1.22
1.07
1.08
0.62
1.33
1.22
1.03
0.62
1.34
1.12
1.05
0.63
1.3
1.16
1.04
1.05
0.63
1.34
1.15
1.06
0.62
1.32
1.11
1.03
0.62
1.33
1.18
1.1
0.62
1.32
1.21
1.05
0.62
1.28
1.06
1.0
0.62
1.29
1.14
0.99
0.61
1.36
1.12
1.05
0.62
1.32
1.15
1.02
0.61
1.34
1.05
0.99
0.62
1.33
1.07
0.99
0.61
1.29
1.0
0.62
1.34
1.03
0.61
1.37
1.08
1.02
0.62
1.33
1.23
1.03
0.62
1.38
1.12
1.06
0.62
1.36
1.22
1.03
0.61
1.38
1.12
1.06
0.62
1.35
1.16
1.07
0.62
1.33
1.12
1.02
0.62
1.33
1.11
1.02
0.62
1.31
1.08
0.99
0.62
1.26
1.27
1.07
0.62
1.3
1.25
1.05
0.62
1.3
1.12
1.04
0.62
1.3
1.15
1.02
0.62
1.31
0.99
0.61
1.2
0.9
0.61
1.14
0.97
0.6
1.21
0.91
0.61
1.02
0.84
0.61
1.06
0.95
0.91
0.61
1.22
0.95
0.61
1.31
1.04
0.99
0.6
1.19
1.2
0.6
1.29
1.3
1.03
0.63
1.38
1.39
1.12
1.09
1.03
0.64
1.25
1.25
1.0
0.62
1.27
1.27
1.06
0.62
1.35
1.25
1.05
0.62
1.38
1.18
1.01
0.62
1.36
1.1
1.02
0.63
1.33
1.16
1.03
0.61
1.37
1.13
1.01
0.61
1.4
1.17
1.08
0.62
1.33
1.22
1.12
0.99
0.63
1.35
1.03
0.61
1.34
1.05
1.02
0.63
1.41
1.22
1.1
0.61
1.39
1.21
1.02
0.63
1.35
1.1
1.03
0.62
1.31
1.17
1.01
0.62
1.35
1.17
1.06
0.62
1.38
1.18
1.02
0.62
1.34
1.08
1.0
0.62
1.28
1.12
1.02
0.61
1.34
1.15
1.0
0.62
1.37
1.15
1.06
0.62
1.3
1.17
1.03
0.61
1.36
1.21
1.05
0.61
1.42
1.2
1.1
1.05
0.62
1.33
1.17
1.01
0.62
1.35
1.11
1.06
0.62
1.31
1.15
1.0
0.61
1.35
1.1
0.99
0.62
1.33
1.08
1.02
0.62
1.3
1.15
1.0
0.61
1.32
1.03
0.99
0.62
1.33
1.13
1.03
0.61
1.4
1.21
1.06
0.62
1.38
1.16
1.06
0.62
1.31
1.16
1.02
0.61
1.34
1.08
1.02
0.62
1.36
1.15
1.04
0.61
1.35
1.12
0.97
0.61
1.33
1.09
1.05
0.62
1.36
1.21
1.03
0.62
1.36
1.13
1.04
0.62
1.3
1.2
1.04
0.62
1.32
1.14
1.02
0.62
1.29
1.12
1.02
0.61
1.39
1.19
1.04
0.62
1.34
1.23
1.09
0.99
0.62
0.79
0.61
1.09
1.06
0.62
1.36
1.27
1.06
0.62
1.44
1.21
1.06
0.63
1.37
1.15
1.07
0.62
1.32
1.19
1.01
0.61
1.36
1.04
1.0
0.62
1.37
1.15
1.04
0.61
1.32
1.09
0.96
0.62
1.33
1.03
0.99
0.62
1.32
1.1
1.0
0.61
1.36
1.06
0.98
0.62
1.34
1.08
1.02
0.61
1.35
1.12
0.99
0.61
1.37
1.07
1.04
0.61
1.34
1.13
1.01
0.61
1.37
1.03
0.61
1.16
0.88
0.61
1.49
1.09
1.1
1.12
0.61
1.44
1.22
1.08
1.07
0.62
1.4
1.22
1.04
0.61
1.42
1.1
1.04
0.62
1.37
1.14
1.03
0.61
1.42
1.1
1.03
0.62
1.4
1.16
1.08
0.61
1.4
1.28
1.09
0.62
1.34
1.21
1.08
0.62
1.33
1.19
1.02
0.62
1.41
1.12
1.03
0.62
1.34
1.16
1.03
0.61
1.34
1.1
1.0
0.61
1.39
1.14
1.05
0.61
1.36
1.16
1.0
0.61
1.36
1.09
1.0
0.61
1.28
1.11
0.97
0.61
1.35
1.07
1.03
0.62
1.37
1.18
1.04
0.61
1.37
1.2
1.04
0.62
1.34
1.08
1.03
0.61
1.3
1.13
1.04
0.6
1.32
1.12
1.01
0.61
1.36
1.18
1.07
0.62
1.33
1.14
0.99
0.61
1.38
1.09
1.03
0.62
1.35
1.15
1.06
0.61
1.36
1.15
0.99
0.61
1.33
1.1
1.03
0.62
1.31
1.07
0.96
0.62
1.36
1.15
1.07
0.62
1.35
1.25
1.11
0.62
1.42
1.21
1.1
0.63
1.29
1.13
1.0
0.62
1.35
1.04
0.98
0.62
1.35
1.05
0.98
0.61
1.34
1.02
0.95
0.62
1.35
1.03
1.02
0.61
1.35
1.12
1.03
0.61
1.37
1.07
1.01
0.62
1.37
1.16
1.04
0.61
1.43
1.16
1.02
0.62
1.38
1.13
1.05
0.62
1.35
1.21
1.03
0.62
1.39
1.13
1.07
0.61
1.36
1.21
1.04
0.61
1.35
1.08
1.04
0.62
1.34
1.22
1.07
0.61
1.4
1.1
1.01
0.62
1.33
1.11
1.04
0.61
1.36
1.08
0.99
0.62
1.35
1.11
1.04
0.62
1.34
1.15
1.01
0.62
1.39
1.11
1.02
0.62
1.31
1.18
1.01
0.61
1.35
1.07
1.0
0.62
1.35
1.16
1.04
0.61
1.39
1.21
1.08
1.02
0.62
1.33
1.17
1.02
0.62
1.44
1.19
1.09
0.63
1.38
1.27
1.12
0.63
1.39
1.11
1.04
0.62
1.33
1.07
1.0
0.61
1.32
1.04
0.94
0.62
1.34
1.0
0.61
1.36
1.05
1.03
0.61
1.38
1.18
1.04
0.61
1.38
1.1
1.04
0.61
1.3
1.15
1.0
0.61
1.38
1.08
1.05
0.62
1.35
1.23
1.05
1.03
0.62
1.38
1.18
1.08
0.61
1.36
1.18
1.01
0.61
1.36
1.11
1.03
0.62
1.32
1.16
1.03
0.61
1.37
1.16
1.03
0.61
1.37
1.25
1.12
1.0
0.62
1.38
1.07
1.02
0.63
1.34
1.2
1.07
0.61
1.32
1.16
1.03
0.61
1.3
1.13
1.0
0.61
1.4
1.18
1.06
0.61
1.4
1.22
1.09
0.61
1.35
1.21
1.02
0.61
1.33
1.11
1.01
0.61
1.32
1.11
1.02
0.61
1.4
1.12
1.01
0.61
1.39
1.2
1.1
1.02
0.62
1.36
1.14
1.04
0.62
1.32
1.18
1.02
0.61
1.37
1.09
1.02
0.62
1.34
1.06
1.01
0.61
1.31
1.07
0.97
0.61
1.37
1.03
1.01
0.62
1.35
1.11
1.01
0.61
1.33
1.07
0.98
0.61
1.35
1.06
1.01
0.62
1.34
1.15
1.03
0.61
1.39
1.12
1.02
0.61
1.33
1.1
1.03
0.61
1.33
1.17
1.01
0.61
1.37
1.15
1.06
0.61
1.33
1.23
1.04
0.62
1.34
1.1
1.01
0.61
1.32
1.13
1.04
0.61
1.32
1.12
1.0
0.61
1.35
1.08
1.01
0.61
1.32
1.06
0.98
0.61
1.35
1.07
1.01
0.61
1.34
1.08
0.98
0.61
1.32
1.02
0.99
0.61
1.3
1.07
0.98
0.6
1.41
1.06
0.93
0.61
1.24
0.96
0.61
1.26
1.27
1.08
0.62
1.42
1.25
1.08
1.06
0.63
1.39
1.25
1.07
1.05
0.63
1.37
1.19
1.06
0.61
1.38
1.12
1.02
0.61
1.34
1.17
1.05
0.6
1.36
1.12
0.97
0.61
1.32
1.08
1.03
0.61
1.33
1.11
1.0
0.61
1.39
1.1
1.06
0.62
1.33
1.26
1.05
1.03
0.62
1.35
1.21
1.07
0.61
1.34
1.18
1.01
0.62
1.36
1.11
1.04
0.61
1.31
1.17
1.0
0.61
1.31
1.06
1.01
0.61
1.34
1.1
1.01
0.61
1.36
1.07
1.0
0.61
1.37
1.11
1.04
0.61
1.36
1.1
1.01
0.61
1.34
1.06
1.04
0.61
1.36
1.23
1.05
0.61
1.42
1.16
1.08
0.61
1.39
1.26
1.07
1.05
0.63
1.36
1.24
1.09
0.61
1.32
1.17
1.0
0.61
1.36
1.14
1.02
0.61
1.38
1.12
1.03
0.62
1.39
1.17
1.07
0.6
1.37
1.16
1.06
0.61
1.38
1.23
1.09
0.61
1.36
1.24
1.05
0.61
1.35
1.18
1.04
0.61
1.33
1.12
1.0
0.61
1.34
1.1
1.02
0.62
1.3
1.11
1.01
0.6
1.41
1.08
1.03
0.61
1.32
1.13
1.0
0.61
1.36
1.08
1.03
0.62
1.33
1.18
1.02
0.61
1.37
1.09
1.03
0.62
1.34
1.2
1.05
0.61
1.31
1.1
1.0
0.62
1.29
1.07
1.02
0.61
1.42
1.2
1.11
1.09
1.02
0.61
1.37
1.18
1.08
0.62
1.31
1.2
1.04
0.61
1.36
1.16
1.02
0.61
1.34
1.1
1.03
0.6
1.29
1.11
1.0
0.6
1.34
1.1
0.99
0.62
1.31
1.05
1.0
0.61
1.36
1.05
1.0
0.62
1.4
1.16
1.07
0.6
1.37
1.16
1.02
0.61
1.32
1.09
0.99
0.61
1.34
1.02
0.6
1.42
1.05
0.61
1.39
1.07
1.02
0.61
1.34
1.09
1.02
0.61
1.34
1.04
0.61
1.35
1.03
0.61
1.34
1.02
0.6
1.35
1.02
0.61
1.38
1.06
1.0
0.62
1.36
1.15
1.01
0.61
1.37
1.09
1.02
0.61
1.35
1.15
1.01
0.6
1.35
1.03
0.61
1.35
1.01
0.6
1.37
1.05
0.6
1.39
1.07
1.01
0.62
1.41
1.14
1.05
0.61
1.38
1.1
1.01
0.61
1.35
1.05
1.0
0.61
1.32
1.05
0.97
0.6
1.35
1.08
1.03
0.6
1.37
1.13
1.01
0.61
1.38
1.12
1.04
0.61
1.35
1.14
1.01
0.6
1.37
1.07
1.01
0.61
1.32
1.12
1.01
0.61
1.37
1.06
0.99
0.61
1.36
1.07
0.99
0.61
1.42
1.09
1.05
0.62
1.37
1.16
1.04
0.6
1.37
1.08
1.01
0.63
1.34
1.14
1.03
0.61
1.36
1.07
0.95
0.62
1.32
1.02
1.01
0.6
1.36
1.11
1.01
0.61
1.39
1.12
1.07
0.61
1.32
1.17
1.02
0.61
1.36
1.11
1.05
0.61
1.33
1.15
1.02
0.61
1.37
1.14
1.02
0.61
1.39
1.12
1.05
0.61
1.34
1.11
0.98
0.61
1.35
1.07
1.03
0.61
1.36
1.12
1.01
0.61
1.36
1.05
1.02
0.61
1.32
1.08
0.98
0.61
1.41
1.12
1.06
0.62
1.34
1.17
1.01
0.62
1.36
1.08
1.01
0.61
1.37
1.06
1.0
0.61
1.38
1.05
1.03
0.61
1.33
1.08
0.98
0.61
1.33
1.01
0.6
1.33
1.01
0.6
1.36
1.0
0.61
1.39
1.03
1.02
0.61
1.39
1.17
1.04
0.62
1.36
1.21
1.06
0.61
1.37
1.08
1.03
0.61
1.37
1.13
1.04
0.61
1.41
1.26
1.05
0.62
1.37
1.14
1.07
0.62
1.31
1.21
1.04
0.61
1.33
1.08
1.01
0.6
1.35
1.08
0.99
0.6
1.39
1.08
1.03
0.6
1.32
1.17
1.02
0.61
1.36
1.14
1.06
0.61
1.32
1.18
1.01
0.61
1.38
1.08
1.04
0.62
1.33
1.2
1.05
0.6
1.42
1.17
1.08
0.61
1.33
1.17
1.02
0.6
1.34
1.05
1.01
0.61
1.31
1.08
1.01
0.61
1.34
1.1
0.99
0.61
1.38
1.11
1.04
0.61
1.34
1.13
1.01
0.61
1.37
1.13
1.05
0.61
1.33
1.18
1.01
0.61
1.36
1.04
1.01
0.61
1.3
1.05
0.99
0.61
1.37
1.05
0.61
1.37
1.08
1.0
0.61
1.41
1.11
1.02
0.62
1.34
1.12
0.98
0.61
1.36
1.08
1.02
0.61
1.36
1.16
1.02
0.61
1.41
1.12
1.05
0.61
1.37
1.21
1.02
0.6
1.36
1.09
1.01
0.61
1.31
1.12
1.02
0.61
1.34
1.14
1.0
0.61
1.36
1.07
1.01
0.61
1.3
1.05
0.94
0.61
1.38
1.04
1.03
0.61
1.37
1.1
1.01
0.6
1.36
1.03
0.6
1.35
1.01
0.6
1.36
1.02
0.61
1.39
1.04
0.62
1.35
1.01
0.61
1.32
1.05
0.99
0.62
1.38
1.05
0.61
1.36
1.04
0.61
1.37
1.05
0.6
1.34
1.03
0.6
1.36
1.03
0.6
1.38
1.03
0.61
1.34
1.04
0.61
1.41
1.06
0.61
1.39
1.11
1.03
0.62
1.34
1.14
1.01
0.61
1.34
1.03
1.0
0.61
1.33
1.08
1.01
0.61
1.4
1.11
1.01
0.61
1.39
1.09
1.07
0.61
1.4
1.19
1.03
0.61
1.41
1.12
1.03
0.61
1.31
1.14
1.06
0.6
1.38
1.19
1.03
0.6
1.38
1.11
1.03
0.61
1.37
1.14
1.01
0.61
1.38
1.08
1.03
0.61
1.42
1.14
1.06
0.61
1.4
1.2
1.04
0.61
1.38
1.08
1.02
0.61
1.35
1.08
1.01
0.61
1.36
1.1
0.99
0.61
1.37
1.06
1.0
0.62
1.35
1.11
1.02
0.61
1.36
1.09
0.99
0.61
1.37
1.04
1.0
0.61
1.33
1.03
0.97
0.61
1.42
1.02
0.61
1.39
1.05
0.61
1.39
1.05
1.0
0.61
1.33
1.06
0.97
0.61
1.35
1.03
0.61
1.33
1.03
1.01
0.6
1.32
1.03
0.96
0.61
1.35
1.01
0.6
1.3
1.0
0.6
1.35
1.03
0.61
1.33
1.02
0.6
1.33
1.0
0.6
1.33
0.99
0.6
1.35
1.0
0.6
1.34
1.01
0.61
1.38
1.03
0.6
1.36
1.05
0.99
0.61
1.34
1.02
0.61
1.31
1.0
0.6
1.36
1.01
0.6
1.35
1.02
0.6
1.35
1.02
0.6
1.33
1.01
0.6
1.34
1.0
0.6
1.36
1.0
0.6
1.33
1.0
0.6
1.34
0.98
0.6
1.33
1.0
0.6
1.32
1.0
0.6
1.3
0.97
0.6
1.28
0.97
0.6
1.35
1.01
0.6
1.41
1.07
0.6
1.42
1.06
0.6
1.38
1.03
0.61
1.35
1.02
0.61
1.36
1.04
0.61
1.38
1.02
0.61
1.38
1.04
0.61
1.37
1.06
0.99
0.61
1.33
1.05
0.98
0.61
1.4
1.07
1.03
0.61
1.32
1.09
0.99
0.61
1.32
1.01
0.6
1.32
1.01
0.6
1.35
1.02
0.6
1.35
1.02
0.6
1.31
1.01
0.6
1.35
1.07
0.98
0.61
1.38
1.04
1.0
0.61
1.28
1.0
0.6
1.32
1.03
0.6
1.33
1.01
0.6
1.33
1.0
0.6
1.35
1.02
0.6
1.35
1.01
0.61
1.35
1.01
0.61
1.34
1.0
0.6
1.3
1.01
0.61
1.34
1.08
1.0
0.61
1.39
1.07
0.99
0.61
1.38
1.07
1.02
0.6
1.35
1.07
0.98
0.61
1.39
1.05
0.61
1.36
1.06
0.61
1.32
1.05
0.6
1.37
1.04
0.6
1.31
1.02
0.61
1.3
1.01
0.6
1.3
1.01
0.6
1.36
1.04
0.61
1.35
1.03
0.6
1.31
1.0
0.6
1.36
0.99
0.6
1.36
1.02
0.6
1.43
1.05
0.6
1.41
1.04
0.61
1.37
1.03
0.6
1.38
1.04
0.6
1.21
1.22
0.6
1.2
1.2
0.6
1.16
1.16
0.61
1.15
1.15
0.61
1.16
1.17
0.6
1.18
1.18
0.6
1.17
1.18
0.6
1.23
1.23
1.01
0.61
1.21
1.21
0.97
0.61
1.16
1.17
0.6
1.06
1.06
0.6
1.03
0.87
0.6
1.15
1.16
0.91
0.61
1.05
1.06
0.6
1.03
1.03
0.59
1.1
0.89
0.6
1.0
1.01
0.6
0.97
0.98
0.6
0.97
0.81
0.59
0.95
0.77
0.65
0.91
0.79
0.59
0.95
0.82
0.6
0.97
0.98
0.59
0.95
0.96
0.6
0.99
0.79
0.59
0.9
0.77
0.6
0.88
0.8
0.6
0.92
0.79
0.6
0.91
0.77
0.62
0.86
0.74
0.64
0.84
0.76
0.6
0.88
0.79
0.59
0.93
0.78
0.62
0.92
0.78
0.61
0.88
0.76
0.6
0.85
0.75
0.6
0.9
0.78
0.6
0.97
0.79
0.59
1.11
0.87
0.6
1.08
0.88
0.59
1.11
0.87
0.6
1.18
0.9
0.61
1.27
1.02
0.61
1.36
1.08
0.61
1.25
1.25
0.63
1.37
1.14
1.06
0.63
1.28
1.28
0.62
1.37
1.19
1.04
0.64
1.3
1.3
0.63
1.36
1.11
0.62
1.35
1.1
0.61
1.37
1.12
1.04
0.62
1.43
1.09
0.61
1.37
1.09
0.61
1.46
1.15
1.06
0.62
1.45
1.11
0.61
1.36
1.09
0.62
1.4
1.07
0.61
1.48
1.1
0.6
1.42
1.21
1.01
0.61
1.34
1.01
0.6
1.36
1.01
0.6
1.41
1.03
0.6
1.42
1.05
0.61
1.39
1.07
0.6
1.44
1.08
0.61
1.38
1.06
0.61
1.37
1.06
0.6
1.32
1.01
0.6
1.37
1.02
0.6
1.39
1.05
0.61
1.37
1.05
0.6
1.39
1.06
0.6
1.37
1.05
0.6
1.33
1.03
0.6
1.29
1.01
0.6
1.35
1.03
0.6
1.41
1.1
1.02
0.61
1.11
1.36
1.04
1.02
0.61
1.34
1.07
1.0
0.6
1.36
1.0
0.6
1.35
1.04
1.0
0.61
1.42
1.11
1.02
0.61
1.4
1.05
0.6
1.41
1.09
1.01
0.61
1.39
1.13
1.05
0.6
1.35
1.09
0.97
0.6
1.38
1.05
0.6
1.4
1.08
1.0
0.61
1.38
1.09
1.02
0.61
1.39
1.07
0.61
1.38
1.06
0.61
1.37
1.06
0.97
0.61
1.37
1.02
0.6
1.33
1.01
0.6
1.36
1.01
0.6
1.37
1.03
0.6
1.36
1.07
0.98
0.61
1.36
1.08
1.01
0.61
1.36
1.06
0.61
1.32
1.04
0.61
1.33
1.03
0.6
1.34
1.03
0.6
1.31
1.04
0.96
0.6
1.4
1.03
0.6
1.32
1.02
0.99
0.61
1.33
1.07
0.98
0.6
1.38
1.08
1.02
0.6
1.34
1.1
1.01
0.6
1.35
1.11
0.99
0.6
1.37
1.09
1.03
0.61
1.37
1.23
1.07
0.61
1.36
1.24
1.04
0.6
1.38
1.1
1.02
0.61
1.32
1.15
1.03
0.6
1.35
1.12
1.0
0.6
1.39
1.13
1.05
0.61
1.34
1.15
1.04
0.6
1.36
1.11
0.98
0.6
1.3
1.06
0.97
0.6
1.37
1.05
1.0
0.6
1.35
1.09
1.02
0.6
1.36
1.09
1.0
0.6
1.41
1.06
0.6
1.39
1.09
1.03
0.61
1.35
1.16
1.03
0.6
1.37
1.09
1.02
0.61
1.36
1.09
1.03
0.6
1.34
1.1
0.99
0.6
1.38
1.04
0.61
1.39
1.05
0.6
1.37
1.05
0.6
1.39
1.05
0.61
1.36
1.01
0.6
1.33
1.0
0.6
1.33
0.99
0.6
1.34
1.0
0.6
1.34
1.0
0.6
1.32
0.98
0.6
1.28
0.98
0.6
1.34
0.97
0.59
1.27
0.94
0.59
1.3
0.96
0.59
1.36
1.03
0.6
1.41
1.07
1.04
0.6
1.39
1.06
1.02
0.6
1.37
1.06
1.01
0.6
1.39
1.05
0.6
1.42
1.05
1.03
0.61
1.42
1.13
1.06
0.6
1.44
1.19
1.04
0.61
1.41
1.1
0.61
1.35
1.1
1.04
0.61
1.37
1.13
1.02
0.61
1.43
1.07
0.61
1.38
1.11
1.01
0.62
1.4
1.13
1.05
0.61
1.35
1.15
0.99
0.61
1.36
1.04
0.61
1.35
1.07
1.04
0.6
1.38
1.12
1.03
0.61
1.36
1.09
1.01
0.61
1.37
1.07
0.61
1.36
1.07
1.03
0.61
1.35
1.09
1.02
0.61
1.41
1.08
0.6
1.41
1.07
0.61
1.34
1.07
0.99
0.61
1.36
1.05
0.61
1.36
1.02
0.61
1.4
1.08
0.61
1.38
1.08
1.03
0.62
1.31
1.09
0.99
0.62
1.32
1.04
0.61
1.34
1.05
0.6
1.3
1.04
0.6
1.33
1.02
0.6
1.33
1.0
0.61
1.35
1.02
0.6
1.38
1.04
0.61
1.41
1.07
0.61
1.37
1.1
1.0
0.61
1.37
1.12
1.03
0.61
1.36
1.09
0.98
0.61
1.35
1.05
0.6
1.37
1.07
0.61
1.39
1.1
1.04
0.61
1.33
1.19
1.06
0.6
1.32
1.15
1.01
0.61
1.32
1.06
0.62
1.31
1.05
0.95
0.61
1.31
0.97
0.6
1.31
0.97
0.6
1.3
0.97
0.6
1.3
0.99
0.6
1.3
1.01
0.6
1.31
0.98
0.6
1.28
0.97
0.6
1.31
1.02
0.6
1.35
0.99
0.6
1.34
0.99
0.6
1.32
0.98
0.6
1.31
0.99
0.6
1.3
0.95
0.6
1.29
0.96
0.6
1.32
0.98
0.6
1.34
0.99
0.6
1.29
0.99
0.6
1.33
0.99
0.6
1.3
0.98
0.6
1.35
1.01
0.61
1.37
1.04
0.6
1.41
1.06
0.61
1.34
1.02
0.61
1.32
1.02
0.61
1.34
1.03
0.61
1.31
1.01
0.61
1.3
0.99
0.6
1.31
1.0
0.61
1.28
1.0
0.6
1.3
1.01
0.6
1.32
1.04
0.61
1.33
1.03
0.6
1.34
1.02
0.6
1.34
1.01
0.61
1.33
0.96
0.62
1.3
0.96
0.62
1.31
0.98
0.61
1.29
0.96
0.61
1.28
0.95
0.61
1.27
0.94
0.61
1.29
0.95
0.61
1.27
0.93
0.61
1.27
0.94
0.6
1.27
0.93
0.6
1.22
0.92
0.6
1.18
0.94
0.6
1.19
0.94
0.6
1.22
0.92
0.6
1.23
0.92
0.61
1.19
0.94
0.61
1.2
0.94
0.59
1.17
0.92
0.6
1.17
0.91
0.61
1.16
0.89
0.61
1.14
0.86
0.61
1.08
0.84
0.61
1.06
0.86
0.61
1.11
0.88
0.61
1.12
0.9
0.61
1.17
0.93
0.61
1.16
0.92
0.61
1.14
0.89
0.62
1.15
0.93
0.6
1.18
0.93
0.6
1.22
0.9
0.62
1.23
0.9
0.61
1.2
0.9
0.62
1.24
0.93
0.62
1.29
0.95
0.63
1.3
0.97
0.62
1.16
1.17
0.63
1.3
0.96
0.62
1.29
0.95
0.62
1.3
0.96
0.61
1.3
0.97
0.62
1.3
0.94
0.62
1.26
0.93
0.61
1.26
0.95
0.62
1.26
0.94
0.62
1.23
0.93
0.61
1.21
0.93
0.61
1.22
0.93
0.6
1.22
0.94
0.61
1.21
0.93
0.61
1.19
0.9
0.61
1.04
0.82
0.6
0.98
0.84
0.6
1.22
0.95
0.59
1.16
1.17
0.61
1.18
1.19
0.62
1.35
0.97
0.62
1.29
0.95
0.62
1.24
0.93
0.61
1.23
0.93
0.61
1.18
0.91
0.61
1.21
0.94
0.6
1.27
0.96
0.6
1.3
0.95
0.61
1.33
0.95
0.61
1.29
0.94
0.62
1.25
0.95
0.61
1.27
0.95
0.62
1.24
0.95
0.61
1.24
0.94
0.61
1.25
0.95
0.97
0.61
1.23
0.94
0.61
1.21
0.93
0.61
1.24
0.95
0.62
1.3
0.97
0.62
1.3
0.98
0.61
1.3
0.98
0.61
1.32
0.96
0.62
1.32
0.97
0.62
1.34
1.0
0.63
1.35
1.05
0.61
1.33
0.96
0.62
1.19
0.92
0.63
1.19
0.92
0.62
1.21
0.93
0.61
1.23
0.94
0.61
1.24
0.94
0.61
1.25
0.96
0.96
0.61
1.22
0.94
0.61
1.23
0.93
0.61
1.21
0.91
0.61
1.19
0.93
0.61
1.23
0.96
0.96
0.61
1.22
0.94
0.62
1.22
0.94
0.61
1.27
0.95
0.61
1.22
0.94
0.61
1.16
0.88
0.61
1.09
0.87
0.6
1.2
0.89
0.61
1.27
0.92
0.6
1.28
0.95
0.61
1.15
0.9
0.6
1.09
0.86
0.61
1.21
0.95
0.6
1.13
1.13
0.97
0.6
1.24
0.94
0.6
1.19
0.91
0.61
1.16
0.92
0.6
1.16
0.91
0.61
1.18
0.92
0.61
1.21
0.92
0.61
1.23
0.94
0.62
1.25
0.94
0.62
1.24
0.93
0.62
1.14
0.89
0.62
1.15
0.9
0.61
1.17
0.9
0.6
1.15
0.89
0.61
1.15
0.9
0.61
1.21
0.92
0.61
1.2
0.92
0.61
1.15
0.86
0.61
1.16
0.88
0.61
1.26
0.93
0.61
1.3
0.97
0.62
1.27
0.97
0.61
1.25
0.94
0.61
1.24
0.94
0.61
1.25
0.93
0.61
1.13
1.13
0.61
1.13
1.14
0.63
1.28
0.97
0.62
1.17
0.91
0.62
1.22
0.94
0.62
1.26
0.95
0.62
1.27
0.93
0.62
1.21
0.89
0.62
1.19
0.88
0.63
1.21
0.9
0.61
1.22
0.91
0.62
1.17
0.91
0.61
1.18
0.92
0.62
1.2
0.94
0.62
1.28
0.96
0.62
1.28
0.98
0.62
1.29
0.98
0.61
1.32
1.0
0.62
1.19
1.19
0.62
1.38
1.01
0.62
1.38
1.0
0.63
1.37
0.98
0.63
1.33
0.97
0.62
1.31
0.97
0.61
1.28
0.95
0.61
1.3
0.95
0.6
1.28
0.94
0.61
1.29
0.94
0.61
1.3
0.96
0.62
1.3
0.97
0.62
1.28
0.95
0.61
1.23
0.93
0.6
1.22
0.91
0.62
1.24
0.93
0.62
1.24
0.92
0.62
1.2
0.9
0.62
1.16
0.89
0.61
1.17
0.88
0.62
1.17
0.89
0.61
1.19
0.89
0.6
1.1
0.84
0.61
1.16
0.9
0.61
1.12
1.12
0.62
1.25
0.93
0.62
1.21
0.92
0.61
1.21
0.88
0.61
1.18
0.88
0.61
1.09
0.89
0.6
1.14
0.91
0.6
1.19
0.9
0.6
1.23
0.91
0.6
1.27
0.93
0.61
1.25
0.94
0.6
1.18
0.96
0.93
0.6
1.21
0.92
0.61
1.27
0.96
0.98
0.61
1.28
0.97
0.61
1.28
0.95
0.62
1.24
0.94
0.61
1.24
0.95
0.61
1.24
0.95
0.61
1.25
0.95
0.61
1.23
0.94
0.61
1.23
0.94
0.6
1.24
0.93
0.6
1.23
0.94
0.92
0.61
1.2
0.92
0.6
1.21
0.93
0.6
1.23
0.94
0.61
1.21
0.94
0.61
1.22
0.94
0.61
1.18
0.9
0.6
1.18
0.88
0.6
1.16
0.87
0.61
1.16
0.88
0.61
1.16
0.91
0.59
1.18
0.92
0.61
1.19
0.93
0.61
1.21
0.92
0.61
1.22
0.9
0.62
1.22
0.91
0.62
1.2
0.92
0.61
1.21
0.92
0.61
1.17
0.9
0.61
1.16
0.92
0.61
1.21
0.9
0.61
1.18
0.89
0.61
1.15
0.89
0.62
1.22
0.93
0.61
1.23
0.99
0.61
1.28
0.98
0.61
1.3
0.98
0.62
1.29
0.95
0.61
1.29
0.91
0.62
1.28
0.93
0.63
1.35
0.96
0.63
1.34
0.97
0.63
1.28
0.94
0.64
1.2
0.93
0.62
1.21
0.9
0.63
1.19
0.92
0.62
1.22
0.93
0.62
1.22
0.92
0.62
1.24
0.93
0.62
1.22
0.93
0.62
1.22
0.92
0.62
1.21
0.92
0.61
1.22
0.93
0.61
1.22
0.93
0.61
1.18
0.91
0.61
1.15
0.88
0.62
1.17
0.88
0.61
1.19
0.9
0.61
1.17
0.89
0.61
1.15
0.89
0.61
1.14
0.88
0.6
1.13
0.88
0.6
1.1
0.85
0.6
1.12
0.86
0.61
1.05
0.85
0.61
1.16
0.91
0.61
1.11
1.12
0.62
1.12
1.12
0.61
1.11
1.12
0.61
1.25
0.95
0.61
1.25
0.96
0.61
1.14
1.14
0.62
1.14
1.14
0.62
1.26
0.94
0.62
1.22
0.92
0.61
1.24
0.94
0.61
1.11
1.11
0.62
1.23
0.95
0.61
1.25
0.95
0.61
1.21
0.92
0.61
1.2
0.93
0.61
1.19
0.9
0.61
1.13
0.85
0.62
0.97
0.82
0.62
1.18
0.93
0.61
1.31
0.97
0.61
1.25
0.97
0.61
1.23
0.94
0.61
1.2
0.9
0.61
1.19
0.9
0.62
1.2
0.93
0.61
1.24
0.93
0.61
1.22
0.94
0.62
1.21
0.92
0.62
1.2
0.92
0.62
1.2
0.9
0.62
1.18
0.92
0.61
1.2
0.92
0.61
1.25
0.92
0.61
1.28
0.92
0.62
1.27
0.93
0.62
1.25
0.94
0.61
1.25
0.94
0.61
1.23
0.92
0.61
1.22
0.91
0.6
1.21
0.9
0.6
1.21
0.9
0.62
1.21
0.94
0.61
1.19
0.94
0.61
1.2
0.91
0.61
1.22
0.91
0.61
1.21
0.9
0.61
1.19
0.89
0.61
1.2
0.89
0.61
1.21
0.91
0.61
1.07
1.07
0.61
1.1
1.11
0.61
1.08
1.09
0.61
1.18
0.89
0.63
1.17
0.92
0.63
1.09
1.1
0.65
1.07
1.07
0.65
1.18
0.91
0.63
1.16
0.91
0.62
1.16
0.9
0.63
1.14
0.89
0.62
1.12
0.88
0.61
1.09
0.87
0.6
1.09
0.86
0.61
1.06
0.86
0.6
1.08
0.86
0.61
1.08
0.85
0.61
1.07
0.85
0.61
1.06
0.85
0.6
1.08
0.86
0.6
1.07
0.87
0.59
1.08
0.85
0.59
1.07
0.83
0.61
1.08
0.87
0.6
1.15
0.89
0.6
1.17
0.9
0.6
1.03
1.03
0.6
1.03
1.04
0.6
1.09
1.1
0.6
1.09
1.09
0.6
1.08
1.08
0.61
1.1
1.1
0.61
1.11
1.11
0.61
1.1
1.11
0.61
1.1
1.1
0.61
1.1
1.1
0.61
1.12
1.13
0.62
1.13
1.13
0.62
1.11
1.11
0.6
1.12
1.13
0.61
1.09
1.1
0.61
1.09
1.1
0.62
1.13
1.14
0.61
1.09
1.09
0.61
1.19
0.9
0.61
1.17
0.89
0.61
1.09
0.89
0.6
1.09
1.1
0.6
1.11
1.12
0.61
1.1
1.11
0.61
1.2
0.91
0.61
1.15
0.93
0.61
1.18
0.91
0.61
1.15
0.9
0.6
1.14
0.88
0.61
1.19
0.89
0.61
1.18
0.92
0.61
1.16
0.91
0.6
1.23
0.93
0.6
1.18
0.9
0.61
1.22
0.91
0.62
1.22
0.91
0.63
1.19
0.89
0.64
1.11
0.88
0.62
1.11
0.88
0.62
1.13
0.9
0.6
1.18
0.92
0.61
1.23
0.95
0.61
1.26
0.96
0.62
1.33
0.99
0.62
1.18
1.19
0.62
1.16
1.17
0.62
1.15
1.16
0.62
1.19
1.19
0.62
1.34
0.97
0.63
1.31
0.97
0.62
1.29
0.97
0.62
1.27
1.0
0.61
1.17
0.9
0.62
1.2
0.94
0.62
1.3
0.97
0.62
1.15
1.16
0.62
1.14
1.14
0.62
1.25
0.95
0.61
1.25
0.93
0.62
1.26
0.93
0.61
1.12
0.87
0.62
1.2
1.01
0.61
1.29
1.18
0.99
0.63
1.37
1.1
0.61
1.29
1.07
0.61
1.24
1.03
0.61
1.27
1.05
0.61
1.29
1.15
1.0
0.63
1.33
1.1
0.61
1.31
1.12
0.61
1.3
1.14
0.61
1.26
0.99
0.61
1.23
0.93
0.61
1.07
0.88
0.62
1.28
1.04
0.61
1.35
1.16
0.6
1.32
1.15
0.62
1.3
1.1
0.61
1.3
1.04
0.61
1.3
1.04
0.61
1.31
1.03
0.61
1.31
1.01
0.61
1.3
0.99
0.61
1.31
0.98
0.62
1.32
0.99
0.62
1.31
0.97
0.61
1.29
0.98
0.62
1.31
0.99
0.61
1.3
0.98
0.62
1.28
1.0
0.61
1.25
0.98
0.61
1.26
0.96
0.61
1.28
0.97
0.61
1.23
0.94
0.61
1.23
0.93
0.61
1.23
0.94
0.61
1.19
0.88
0.61
1.18
0.89
0.61
1.33
0.97
0.61
1.41
1.07
0.61
1.36
1.06
0.62
1.31
1.01
0.62
1.3
1.03
0.61
1.26
0.96
0.62
1.23
0.94
0.61
1.25
0.95
0.62
1.28
0.98
0.61
1.28
0.97
0.62
1.3
0.98
0.62
1.29
0.98
0.61
1.3
0.99
0.62
1.3
1.0
0.61
1.3
1.07
0.6
1.32
1.06
0.62
1.28
1.05
0.61
1.27
1.0
0.61
1.28
1.04
0.61
1.24
0.98
0.61
1.22
0.95
0.61
1.22
0.94
0.61
1.26
0.95
0.62
1.31
0.99
0.61
1.29
0.97
0.62
1.25
0.95
0.62
1.21
0.93
0.62
1.23
0.95
0.61
1.32
1.01
0.61
1.31
0.98
0.61
1.27
0.96
0.61
1.23
0.97
0.61
1.21
0.95
0.61
1.29
1.04
0.61
1.27
1.04
0.61
1.3
1.09
0.61
1.32
1.16
0.62
1.31
1.11
0.62
1.3
1.12
1.01
0.62
1.32
1.09
0.61
1.24
1.03
0.61
1.24
0.98
0.61
1.27
1.02
0.6
1.38
1.1
0.61
1.35
1.13
0.61
1.31
1.12
0.62
1.29
1.15
0.62
1.27
1.1
0.61
1.3
1.05
0.62
1.32
1.03
0.61
1.25
0.93
0.62
1.14
0.85
0.63
0.94
0.77
0.63
0.86
0.76
0.63
0.83
0.76
0.61
0.89
0.8
0.62
0.9
0.77
0.61
0.88
0.77
0.61
0.85
0.71
0.66
0.7
0.77
0.63
0.79
0.72
0.62
0.78
0.72
0.59
0.79
0.71
0.62
0.74
0.68
0.63
0.69
0.7
0.62
0.69
0.65
0.63
0.65
0.64
0.63
0.63
0.64
0.64
0.64
0.64
0.66
0.67
0.65
0.67
0.69
0.68
0.69
0.67
0.69
0.65
0.73
0.7
0.64
0.76
0.72
0.62
0.91
0.76
0.64
0.85
0.83
0.63
0.91
0.81
0.63
0.96
0.76
0.62
0.4
0.45
0.75
0.63
0.86
0.75
0.63
0.91
0.8
0.63
0.97
0.82
0.83
0.65
1.03
0.84
0.64
1.03
0.85
0.82
0.64
1.04
0.82
0.42
1.03
1.03
0.63
0.99
1.0
0.9
0.96
0.97
0.89
0.65
1.04
1.05
0.88
0.63
0.48
0.66
0.85
0.84
0.64
1.01
0.81
0.62
0.93
0.78
0.79
0.65
1.02
1.02
0.92
0.96
1.0
1.01
0.96
1.07
1.05
1.01
1.06
1.06
1.04
1.02
1.08
1.13
1.01
1.04
1.07
1.08
1.03
1.11
1.09
1.04
1.12
1.11
1.05
1.01
1.07
1.06
1.02
1.08
1.1
1.04
1.06
1.09
1.1
1.0
1.07
1.04
1.03
1.07
1.09
1.05
1.05
1.07
1.09
1.0
1.05
1.03
0.99
1.07
1.07
1.0
1.09
1.1
1.03
1.1
1.07
1.01
1.0
1.04
0.99
0.97
1.04
1.05
0.99
1.07
1.07
0.99
1.05
1.07
1.04
1.04
1.06
1.06
0.99
1.06
1.05
0.99
1.05
1.05
0.99
1.07
1.03
1.0
1.03
1.02
1.0
1.02
1.03
0.99
0.97
1.0
0.98
0.95
0.98
1.0
0.98
1.01
1.02
1.03
0.97
1.05
1.03
0.98
1.05
1.05
0.99
1.03
1.03
0.98
1.02
1.02
0.98
1.02
1.03
0.99
1.0
1.0
0.98
1.0
0.98
0.96
0.92
0.97
0.95
0.97
0.98
1.0
0.98
1.0
1.0
0.98
1.01
1.0
0.97
1.0
1.01
1.02
0.94
0.99
0.94
0.96
0.97
1.0
0.97
1.01
1.01
0.98
1.01
1.02
0.96
1.0
0.99
0.96
1.01
0.98
0.96
1.01
1.02
0.96
0.99
0.99
0.96
0.94
0.93
0.98
0.95
1.04
1.06
1.03
1.08
1.12
1.07
1.11
1.1
1.05
1.09
1.06
1.1
1.1
1.05
1.08
1.08
1.03
1.04
1.07
1.02
1.05
1.06
1.01
1.05
1.07
0.99
1.04
1.03
0.97
1.04
1.02
0.98
1.04
1.04
1.01
1.03
1.07
1.01
1.03
1.03
1.04
1.0
1.03
1.04
1.0
1.03
1.04
1.01
1.03
1.03
1.0
1.03
1.03
0.99
1.03
1.01
0.99
0.99
1.0
0.98
1.0
1.0
0.99
1.02
1.01
0.98
1.03
1.02
1.0
1.04
1.02
1.04
1.03
1.03
1.04
1.02
1.05
1.02
0.99
1.01
1.01
0.99
1.01
0.99
1.0
1.01
0.96
1.0
0.98
1.03
1.04
0.99
1.03
1.04
1.03
1.05
1.07
1.03
1.04
1.07
1.01
1.02
1.04
1.0
1.01
0.98
1.03
1.01
1.01
0.99
1.02
1.03
0.99
1.03
1.0
1.02
1.05
0.99
1.0
1.01
1.01
1.03
1.04
0.96
1.03
1.02
0.98
1.02
1.02
0.99
1.01
1.02
1.01
0.97
1.01
0.97
1.03
1.02
1.0
1.0
1.02
1.04
1.01
1.04
1.03
1.06
1.07
1.03
1.04
1.05
0.99
1.02
1.03
1.0
1.02
1.01
1.04
1.06
1.03
1.06
1.09
1.03
1.07
1.07
1.06
1.03
1.07
1.07
1.03
1.05
1.02
1.06
1.08
1.03
1.07
1.08
1.07
1.1
1.05
1.08
1.07
1.01
1.05
1.03
1.02
1.07
1.02
1.03
1.08
1.07
1.02
1.05
1.02
1.03
1.01
1.04
1.0
1.0
1.01
0.98
1.03
1.01
0.98
1.0
0.99
1.02
1.02
1.01
1.02
1.04
1.02
1.05
1.06
1.02
1.05
1.05
0.99
1.03
0.99
1.04
1.05
1.03
1.07
1.05
1.05
1.07
1.03
1.06
1.06
1.01
1.05
1.01
1.05
1.05
1.0
1.03
1.04
1.01
1.06
1.04
1.04
1.06
1.05
1.03
1.07
1.03
1.04
1.05
1.04
1.03
1.05
1.03
1.01
1.03
0.97
1.02
1.02
0.99
1.03
1.03
0.99
1.02
1.02
1.02
1.07
1.04
1.08
1.09
1.06
1.09
1.06
1.06
1.09
1.06
1.08
1.09
1.05
1.08
1.11
1.05
1.11
1.11
1.07
1.13
1.09
1.08
1.1
1.05
1.11
1.08
1.1
1.1
1.08
1.07
1.09
1.04
1.05
1.07
1.05
1.07
1.06
1.04
1.05
1.02
1.02
1.04
1.01
1.03
1.03
1.01
1.02
1.0
1.03
1.03
1.0
1.02
1.03
1.01
1.03
1.05
1.01
1.09
1.1
1.05
1.1
1.1
1.07
1.1
1.06
1.07
1.09
1.05
1.06
1.09
1.06
1.07
1.07
1.05
1.06
1.06
1.04
1.05
1.07
1.05
1.09
1.05
1.07
1.06
1.04
1.1
1.08
1.06
1.09
1.06
1.1
1.09
1.05
1.08
1.04
1.08
1.09
1.03
1.08
1.07
1.03
1.07
1.03
1.07
1.06
1.03
1.06
1.04
1.03
1.05
1.04
1.04
1.06
1.05
1.05
1.06
1.02
1.04
1.06
1.02
1.05
1.07
1.03
1.06
1.07
1.03
1.05
1.04
1.01
1.04
1.03
1.02
1.03
1.03
1.03
1.06
1.04
1.04
1.07
1.04
1.04
1.07
1.01
1.03
1.04
1.0
1.04
1.06
1.04
1.07
1.05
1.06
1.08
1.03
1.07
1.08
1.02
1.06
1.06
1.04
1.07
1.06
1.05
1.0
1.06
1.08
1.05
1.1
1.12
1.09
1.13
1.14
1.13
1.15
1.11
1.11
1.11
1.12
1.12
1.06
1.06
1.08
1.03
1.06
1.04
1.04
1.08
1.03
1.07
1.06
1.03
1.06
1.05
1.05
1.06
1.03
1.06
1.08
1.04
1.08
1.09
1.03
1.06
1.02
1.03
1.05
1.02
1.05
1.06
1.03
1.05
1.04
1.04
1.06
1.03
1.06
1.04
1.06
1.07
1.02
1.04
1.05
1.03
1.05
1.04
1.01
1.04
1.03
1.02
1.05
1.02
1.02
1.04
1.03
1.03
1.04
1.02
1.03
1.06
1.02
1.05
1.05
1.01
1.05
1.04
1.03
1.06
1.04
1.05
1.06
1.01
1.03
1.04
1.01
1.04
1.05
1.03
1.07
1.04
1.04
1.06
1.03
1.07
1.06
1.02
1.06
1.06
1.02
1.06
1.04
1.04
1.05
1.03
1.05
1.04
1.03
1.05
1.05
1.04
1.05
1.04
1.01
1.03
1.02
1.03
1.04
1.02
1.06
1.08
1.03
1.08
1.09
1.05
1.08
1.05
1.07
1.07
1.03
1.06
1.06
1.05
1.08
1.04
1.06
1.07
1.04
1.08
1.06
1.03
1.07
1.04
1.07
1.07
1.04
1.08
1.05
1.06
1.08
1.01
1.01
1.01
1.0
1.03
1.0
1.01
1.02
1.02
1.03
1.07
1.02
1.06
1.05
1.02
1.04
1.04
0.97
1.02
1.01
1.01
1.04
1.04
1.03
1.05
1.04
1.04
1.04
1.0
1.02
1.04
1.0
1.03
1.03
1.02
1.04
1.03
1.02
1.03
1.01
1.03
1.04
1.0
1.05
1.04
1.03
1.07
1.03
1.06
1.05
1.03
1.07
1.04
1.05
1.07
1.01
0.95
1.01
1.05
1.04
1.11
1.13
1.1
1.14
1.1
1.06
1.02
0.99
0.99
0.92
0.9
0.89
0.85
0.84
0.84
0.83
0.8
0.73
0.85
0.86
0.81
0.8
0.82
0.85
0.87
0.91
0.94
0.94
0.99
1.01
1.02
1.06
1.06
1.05
1.06
1.06
1.06
1.09
1.09
1.04
1.04
1.03
0.97
1.05
1.09
1.02
1.11
1.11
1.02
1.06
1.09
1.03
1.06
1.08
1.0
1.07
1.08
1.02
1.03
1.08
1.03
1.08
1.09
1.06
1.06
1.08
1.06
1.07
1.12
1.12
1.07
1.11
1.09
1.05
1.08
1.09
1.06
1.11
1.1
1.08
1.13
1.12
1.09
1.08
1.06
1.06
1.06
1.06
1.03
1.06
1.04
1.03
1.07
1.06
1.05
1.09
1.08
1.04
1.09
1.07
1.03
1.05
1.05
1.08
1.06
1.06
1.09
1.08
1.07
1.1
1.06
1.06
1.06
1.08
1.1
1.06
1.09
1.1
1.05
1.08
1.09
1.07
1.08
1.07
1.07
1.09
1.05
1.07
1.08
1.05
1.08
1.08
1.03
1.04
1.03
1.03
1.06
1.02
1.07
1.06
1.04
1.07
1.07
0.97
0.96
0.98
0.94
0.97
0.95
0.93
0.91
0.91
0.92
0.91
0.9
0.89
0.87
0.88
0.96
0.9
0.88
0.95
1.05
1.05
1.09
1.07
1.14
1.15
1.09
1.13
1.1
1.05
1.11
1.1
1.04
1.07
1.09
1.02
1.08
1.09
1.01
1.06
1.09
1.03
1.09
1.12
1.04
1.1
1.11
1.03
1.07
1.09
1.03
1.04
1.08
1.0
1.07
1.1
1.03
1.07
1.09
1.04
1.08
1.08
1.02
1.06
1.07
1.03
1.08
1.09
1.07
1.09
1.09
1.04
1.1
1.07
1.11
1.11
1.06
1.09
1.09
1.05
1.07
1.04
1.07
1.07
1.06
1.07
1.05
1.07
1.08
1.04
1.07
1.1
1.05
1.09
1.08
1.02
1.05
1.04
1.01
1.05
1.04
1.01
1.04
1.02
1.01
1.03
1.03
1.03
1.06
1.04
1.03
1.02
1.01
1.04
1.03
1.01
1.05
1.06
1.02
1.05
1.07
1.01
1.05
1.05
1.01
1.05
1.06
1.01
1.06
1.05
1.02
1.06
1.01
1.06
1.04
1.0
1.04
1.05
1.0
1.05
1.07
1.03
1.06
1.01
0.99
1.02
1.01
1.02
1.04
1.04
1.02
1.06
1.04
1.02
1.05
1.02
1.04
1.06
1.05
1.01
1.03
1.04
1.0
1.04
1.05
1.02
1.07
1.07
1.06
1.09
1.07
1.08
1.1
1.05
1.08
1.08
1.04
1.07
1.05
1.04
1.06
1.03
1.04
1.05
1.02
1.03
1.06
1.02
1.01
1.05
1.01
1.06
1.07
1.03
1.06
1.06
1.02
1.04
1.03
1.02
1.05
1.03
1.01
1.04
1.02
1.03
1.05
1.02
1.05
1.05
1.02
1.04
1.04
1.01
1.05
1.04
1.01
1.05
1.03
1.04
1.06
1.01
1.04
1.05
1.02
1.03
1.02
1.0
1.02
1.04
1.0
1.01
1.03
0.99
1.04
1.06
1.02
1.07
1.08
1.03
1.07
1.08
1.03
1.06
1.08
1.05
1.07
1.07
1.04
1.06
1.02
1.05
1.04
1.03
1.03
1.03
1.07
1.06
1.05
1.07
1.05
1.04
1.07
1.02
1.06
1.06
1.03
1.05
1.06
1.04
1.08
1.06
1.06
1.09
1.07
1.03
1.07
1.06
1.03
1.06
1.06
1.02
1.05
1.06
1.04
1.07
1.05
1.0
1.04
1.02
1.0
1.04
1.03
1.02
1.04
1.04
1.02
1.06
1.04
1.05
1.06
1.01
1.04
1.04
1.01
1.03
1.06
1.02
1.03
1.06
1.03
1.07
1.06
1.08
1.11
1.06
1.07
1.08
1.04
1.05
1.02
1.02
1.03
1.03
1.01
1.05
1.04
1.02
1.06
1.04
1.07
1.08
1.03
1.06
1.05
1.02
1.04
1.04
1.01
1.02
1.02
1.02
1.05
1.02
1.04
1.04
1.01
1.03
1.03
1.0
1.04
1.05
1.01
1.05
1.06
1.02
1.03
1.01
1.02
1.03
1.0
1.01
1.04
1.02
1.02
1.04
1.02
1.0
1.04
1.0
1.03
1.03
1.01
1.04
1.03
1.03
1.05
1.02
1.04
1.08
1.03
1.05
1.07
1.03
1.06
1.04
1.06
1.08
1.03
1.07
1.08
1.04
1.06
1.06
1.03
1.06
1.05
1.03
1.04
1.02
1.0
1.02
1.0
1.04
1.05
1.04
1.07
1.04
1.04
1.06
1.05
1.02
1.05
1.03
1.03
1.05
1.02
1.04
1.06
1.02
1.05
1.05
1.01
1.03
1.02
1.0
1.02
1.03
1.0
1.04
1.05
1.01
1.05
1.05
1.01
1.02
1.01
1.02
1.03
1.02
1.04
1.08
1.03
1.06
1.07
1.03
1.04
1.05
1.02
1.06
1.05
1.03
1.07
1.02
1.05
1.06
1.02
1.06
1.06
1.02
1.06
1.06
1.01
1.05
1.04
1.0
1.05
1.04
0.99
1.02
1.01
0.97
0.97
0.97
0.97
0.99
0.98
1.01
0.99
1.02
1.02
0.98
1.0
0.96
0.9
0.87
0.85
0.82
0.81
0.77
0.77
0.89
0.9
0.81
0.74
0.74
0.89
0.78
0.77
0.72
0.72
0.85
0.76
0.77
0.72
0.73
0.85
0.81
0.81
0.81
0.81
0.82
0.86
0.94
0.93
0.97
0.98
1.0
0.99
0.98
0.95
0.9
0.88
0.84
0.6
0.6
0.56
0.65
0.77
0.64
0.63
0.87
0.88
0.77
0.7
0.71
0.82
0.73
0.73
0.62
0.79
0.8
0.75
0.77
0.74
0.75
0.88
0.84
0.83
0.89
0.92
0.93
0.92
0.94
0.91
0.95
0.99
0.98
0.98
1.01
1.06
1.0
1.02
1.06
1.04
1.0
1.01
1.05
1.04
0.99
0.97
1.02
1.0
0.97
1.01
1.03
0.98
1.01
1.02
0.98
1.0
1.0
0.97
0.96
0.93
0.87
0.79
0.8
0.95
1.02
0.96
1.03
1.03
1.07
1.08
1.05
1.08
1.09
1.04
1.05
1.05
1.02
1.0
0.93
0.9
0.88
0.9
1.0
1.05
1.01
1.07
1.11
1.05
1.09
1.09
1.04
1.06
1.07
1.01
1.04
1.03
0.97
0.9
0.77
0.78
0.86
0.87
0.72
0.73
0.84
0.78
0.79
0.73
0.74
0.88
0.79
0.79
0.81
0.79
0.79
0.96
0.97
0.97
0.98
0.96
0.98
0.99
0.96
0.99
1.02
0.95
1.02
1.05
1.03
0.97
0.99
1.04
0.81
0.81
0.94
0.88
0.96
1.09
1.09
0.96
0.94
0.97
1.02
0.97
0.97
1.0
1.01
0.96
0.98
1.03
1.02
1.01
1.05
1.05
0.99
1.03
1.05
1.02
1.0
1.03
1.05
1.01
1.03
1.03
0.99
1.04
1.03
0.99
0.95
0.96
0.95
0.98
1.0
1.03
1.0
1.02
1.01
0.99
1.0
0.99
0.97
1.0
1.0
0.96
0.95
0.96
0.95
0.97
0.98
0.99
0.96
1.01
1.03
0.99
1.02
1.05
1.0
0.99
1.02
1.0
0.99
1.01
1.01
0.98
1.0
1.01
0.97
1.01
1.01
0.97
0.96
0.99
0.99
0.96
0.99
1.0
0.98
0.98
1.0
1.01
0.96
1.01
1.0
0.96
0.97
0.99
0.97
0.98
1.02
1.01
0.98
1.02
1.0
0.97
1.0
1.0
0.98
1.0
0.99
0.96
0.99
1.0
0.97
0.99
1.01
0.96
0.98
1.01
0.96
1.0
1.0
0.98
1.0
1.02
0.99
0.99
1.01
0.97
0.98
0.99
0.98
0.97
0.98
0.99
0.95
0.97
0.97
0.94
0.96
0.96
0.94
0.97
0.98
0.98
0.97
0.99
0.97
0.99
1.0
0.98
0.97
1.0
1.0
0.98
1.0
1.01
0.97
0.99
1.02
0.99
1.02
1.03
0.99
1.01
1.01
0.99
0.95
0.98
1.0
0.95
0.97
0.99
0.95
0.99
1.0
0.97
1.01
1.02
0.99
1.01
1.02
0.99
1.02
1.02
1.0
1.0
1.01
0.97
1.01
1.01
0.98
1.01
1.01
0.98
1.01
1.02
0.98
1.01
1.03
0.98
1.02
1.01
0.98
0.99
1.0
0.97
1.0
1.01
0.98
1.0
1.0
0.97
1.01
1.0
0.98
1.02
1.02
0.99
1.03
1.03
0.99
1.02
1.01
0.99
1.01
1.01
0.97
1.01
1.03
0.98
1.01
1.02
0.97
0.99
1.01
0.97
1.01
1.01
0.97
1.01
1.0
0.96
1.0
1.02
0.98
1.0
1.02
0.97
1.01
1.02
0.97
1.02
1.03
0.99
1.02
1.02
1.0
1.03
1.03
1.0
1.02
1.02
0.98
0.99
0.98
0.95
0.98
0.99
0.97
1.02
1.04
1.01
1.03
1.04
1.0
1.03
1.04
1.0
1.04
1.06
1.01
1.04
1.05
0.98
1.03
1.01
0.99
1.01
1.03
0.97
1.0
1.02
0.98
1.02
1.03
1.0
1.04
1.03
0.99
1.03
1.01
0.98
1.02
1.01
0.97
1.01
0.98
0.98
0.98
0.96
0.96
0.97
0.97
0.98
1.01
0.99
1.0
1.01
0.98
0.99
1.0
0.97
1.01
1.02
0.98
1.01
1.03
0.99
1.04
1.03
0.99
1.03
1.04
1.02
1.05
1.05
1.0
1.03
1.04
1.0
1.03
1.03
1.01
1.04
1.04
1.0
1.02
1.0
1.0
1.04
1.0
1.02
1.01
0.98
1.01
1.0
0.99
1.03
1.0
1.02
1.03
0.99
1.01
1.02
0.99
1.02
1.02
0.99
1.02
1.01
0.99
1.0
1.0
0.98
1.0
1.02
0.97
1.02
1.01
0.97
1.02
1.01
0.97
1.02
1.0
1.02
1.03
0.99
1.02
1.02
0.99
1.03
1.01
0.98
1.02
1.01
0.97
1.01
1.01
0.97
1.01
1.02
0.97
1.0
1.02
0.98
1.01
1.01
0.98
1.01
1.0
0.97
0.99
1.0
0.94
0.98
0.99
0.95
1.0
1.01
0.96
1.02
1.04
1.01
1.03
1.05
1.01
1.04
1.02
1.04
1.04
1.0
1.01
1.03
0.99
1.02
1.03
1.0
1.01
1.03
0.98
1.01
1.01
0.97
1.03
1.02
1.01
1.03
1.01
1.0
1.01
1.0
0.98
1.0
0.98
1.0
1.01
0.99
1.0
1.01
0.97
1.0
1.0
0.97
1.0
1.0
0.99
1.02
1.01
1.0
1.02
1.0
0.98
1.0
1.01
0.99
1.03
1.0
1.01
1.02
0.99
1.02
1.03
0.98
1.03
1.05
1.02
1.02
1.05
1.01
1.04
1.01
1.03
1.03
0.99
1.04
1.04
1.0
1.03
1.02
1.0
1.03
1.01
1.03
1.03
1.0
0.98
1.01
1.01
0.98
1.02
1.06
1.01
1.06
1.06
1.05
1.08
1.06
1.06
1.08
1.04
1.05
1.05
1.02
1.03
1.03
0.98
0.99
0.98
0.95
0.91
0.92
1.11
1.12
1.03
1.0
1.02
0.99
1.03
1.05
1.0
1.05
1.03
1.02
1.04
1.02
0.99
1.02
0.99
1.01
1.01
0.98
0.98
1.01
0.98
1.02
1.04
1.0
1.04
1.04
1.02
1.05
1.05
1.03
1.07
1.05
1.02
1.04
1.01
1.0
1.05
1.03
1.0
1.04
1.02
1.03
1.06
1.02
1.02
1.06
1.01
1.03
1.02
1.01
1.05
1.02
0.99
1.03
1.01
0.98
1.01
0.98
1.01
1.04
0.99
1.02
1.03
1.01
1.05
1.07
1.02
1.06
1.07
1.03
1.07
1.05
1.01
1.05
1.03
1.02
1.05
0.99
1.02
1.02
1.0
1.03
1.03
0.99
1.01
1.03
0.98
1.04
1.03
1.02
1.05
1.02
1.02
1.06
1.01
1.04
1.05
1.01
1.04
1.04
0.99
1.03
1.02
1.01
1.03
1.02
1.01
1.03
1.02
1.01
1.03
1.02
1.0
1.01
1.02
0.97
1.01
0.99
0.99
1.0
0.98
1.02
1.04
0.99
1.02
1.03
0.97
1.01
1.02
0.98
1.01
1.0
1.0
1.01
1.02
0.97
1.02
1.01
0.97
1.01
1.01
0.97
1.01
1.03
0.98
1.03
1.04
0.99
1.02
1.05
0.99
1.01
1.0
0.98
1.03
1.05
1.01
1.07
1.08
1.03
1.08
1.05
1.02
1.05
1.02
1.05
1.05
1.0
1.04
1.03
1.0
1.02
1.03
0.99
1.02
1.03
1.0
1.04
1.05
1.0
1.03
1.04
1.0
1.04
1.04
1.01
1.04
1.02
1.0
1.01
1.0
1.01
1.04
1.03
1.03
1.06
1.04
1.02
1.06
1.04
1.05
1.06
1.02
1.03
1.04
1.01
1.04
1.04
0.98
1.02
0.99
1.01
1.07
1.04
1.07
1.08
1.04
1.07
1.06
1.0
1.04
1.02
1.02
1.05
1.03
1.03
1.05
1.01
1.02
1.05
1.01
1.03
1.02
0.99
1.04
1.02
1.0
1.02
1.02
0.98
1.01
1.02
0.98
1.02
1.03
0.97
1.0
1.01
0.98
1.01
1.01
0.99
1.01
1.01
0.98
1.02
1.03
0.99
1.02
1.02
0.99
1.01
1.02
0.97
1.02
1.01
0.98
1.03
1.01
1.01
1.04
1.01
0.99
1.03
1.03
0.98
1.03
1.04
1.0
1.02
1.03
0.99
1.02
1.03
0.99
1.03
1.04
0.99
1.03
1.04
0.98
1.02
1.02
0.98
1.01
1.04
1.01
1.05
1.05
1.01
1.03
1.01
0.99
1.01
1.02
0.99
1.03
1.03
1.0
1.04
1.03
1.02
1.04
1.0
1.03
1.02
0.98
1.0
0.97
0.97
1.0
0.97
0.98
1.0
1.0
0.98
1.0
1.0
0.99
1.01
1.0
1.01
1.02
1.0
1.0
1.02
1.0
0.98
1.01
1.01
1.01
1.03
1.02
1.0
1.04
1.03
1.0
1.03
1.03
0.99
1.03
1.03
0.99
1.04
1.04
0.98
1.02
1.01
0.97
1.01
1.0
0.97
1.01
1.01
1.01
1.03
0.99
1.03
1.03
0.98
1.01
1.02
0.97
1.01
1.03
1.01
1.04
1.05
0.99
1.04
1.03
0.97
1.02
1.0
1.0
1.02
1.02
1.06
1.08
1.03
1.07
1.08
1.03
1.07
1.07
1.04
1.06
1.03
1.02
1.04
1.04
1.01
1.04
1.0
1.01
1.02
0.99
0.95
0.9
0.9
1.1
1.11
0.95
0.92
0.92
1.15
1.16
1.02
1.04
1.05
1.01
1.04
1.03
1.0
1.02
1.03
0.98
1.02
1.01
0.98
1.01
0.99
1.0
1.03
0.99
1.03
1.03
1.0
1.04
1.02
1.01
1.03
0.99
1.0
1.01
1.0
1.02
1.03
0.99
1.03
1.01
0.99
1.01
0.98
1.01
1.01
0.98
1.0
1.05
0.95
0.92
0.99
1.1
1.1
1.03
1.03
1.03
1.01
1.01
1.05
1.03
1.06
1.08
1.02
1.06
1.06
1.02
1.05
1.06
1.03
1.06
1.05
1.01
1.03
1.01
0.97
0.99
1.02
0.97
1.02
0.99
1.0
1.02
0.98
1.01
1.03
0.99
1.0
0.99
1.01
1.02
1.0
1.02
1.02
1.01
1.05
1.04
1.01
1.02
1.02
1.0
1.03
1.0
1.02
1.04
1.0
1.0
1.01
0.98
1.02
1.04
1.01
1.06
1.05
1.03
1.05
1.02
1.01
1.04
1.01
1.01
1.03
0.99
1.02
1.02
0.98
1.0
1.01
0.97
1.0
1.01
0.98
0.99
0.99
0.95
0.98
1.0
0.98
0.91
0.92
1.13
1.13
1.07
1.01
1.04
1.04
1.02
1.06
1.05
1.04
1.07
0.98
1.04
1.06
0.98
1.03
1.03
0.96
1.02
1.04
0.97
1.0
1.07
0.99
1.02
1.07
1.0
1.06
1.02
1.06
1.1
0.98
1.05
1.11
0.99
1.05
1.03
1.05
1.1
1.0
1.06
1.11
0.99
1.01
1.0
0.99
1.03
0.97
1.01
1.05
0.96
1.01
1.07
0.98
1.05
1.09
0.99
1.02
1.03
0.89
0.85
0.85
0.98
0.99
0.86
0.87
1.13
1.0
1.0
1.03
1.06
0.99
1.0
0.98
0.92
0.79
0.79
0.96
0.82
0.6
0.89
0.9
0.81
0.6
0.88
0.89
0.79
0.6
0.84
0.84
0.75
0.61
0.9
0.82
0.88
0.9
0.93
0.92
0.91
0.92
0.93
1.24
0.99
1.05
1.12
1.1
1.15
1.18
1.19
1.03
1.04
1.05
1.32
1.27
1.25
1.02
1.0
1.01
1.41
1.21
1.12
1.07
1.14
1.05
1.1
1.16
1.05
1.13
1.14
1.02
1.09
1.15
1.04
1.09
1.07
1.04
1.06
1.07
1.07
1.02
1.06
1.02
1.03
1.08
1.02
1.04
1.1
0.97
0.95
0.95
1.18
1.18
1.07
1.0
1.07
1.08
1.0
1.06
1.06
1.02
0.93
0.94
1.18
1.18
1.08
0.99
1.05
1.06
1.02
1.08
1.0
1.05
1.07
0.98
1.06
1.09
0.96
1.05
1.11
0.97
1.05
1.09
0.96
1.03
1.1
1.0
1.01
1.1
0.98
1.06
1.13
1.02
1.03
1.1
1.0
1.04
1.04
0.97
1.02
1.02
0.99
1.06
1.01
1.02
1.1
1.04
1.01
1.09
1.04
1.03
1.11
1.03
1.03
1.13
1.01
1.02
1.15
1.0
1.01
1.13
1.0
1.01
1.11
1.0
1.0
1.04
0.98
1.05
1.07
1.0
1.07
1.01
0.98
1.04
0.97
1.04
1.05
0.97
1.01
0.99
0.96
1.01
0.95
1.0
1.07
0.97
1.02
1.07
0.99
1.02
1.13
1.01
1.01
1.11
1.02
1.0
1.08
0.99
1.04
1.11
0.97
1.06
1.14
0.98
1.01
1.09
0.96
0.94
0.95
1.1
1.11
0.94
0.94
1.18
1.18
1.09
1.09
1.22
1.1
1.17
1.1
1.09
1.19
1.05
1.06
1.11
0.94
0.91
0.91
1.11
1.11
1.04
0.98
0.93
0.94
1.14
1.15
1.0
0.99
1.02
1.02
0.99
1.01
0.99
0.99
1.02
1.01
0.97
1.01
1.0
0.97
1.0
1.0
0.98
1.01
1.02
1.0
1.03
0.99
1.01
1.02
0.99
1.0
1.02
0.99
1.01
1.03
0.99
1.03
1.03
1.0
1.04
1.05
0.98
1.02
1.05
1.01
1.03
1.03
0.99
0.99
1.03
0.98
1.01
0.97
0.91
0.92
0.97
1.03
1.07
1.02
1.06
1.09
1.08
1.05
1.07
1.07
1.04
1.07
1.03
1.03
1.05
1.01
1.03
1.06
1.02
1.04
1.07
1.03
1.06
1.08
1.03
1.03
1.0
0.98
1.04
1.06
1.01
1.07
1.04
1.0
1.07
1.06
1.05
1.1
1.06
1.06
1.08
1.04
1.06
1.03
1.07
1.06
1.0
1.04
1.07
1.0
1.06
1.06
1.01
1.05
1.06
1.01
1.05
1.04
1.04
1.08
1.03
1.06
1.03
0.99
1.03
1.03
0.98
0.92
0.92
1.16
1.16
1.0
1.01
1.06
1.0
1.01
1.09
0.98
0.99
1.07
0.97
1.02
1.04
1.0
1.06
1.03
0.98
0.92
0.92
1.13
1.13
1.02
1.0
1.04
1.03
1.0
1.03
0.98
1.01
1.02
0.99
1.01
1.02
1.0
1.03
1.01
0.99
1.02
1.01
1.0
1.02
1.0
0.99
1.02
1.02
1.02
1.06
1.03
1.04
1.04
1.01
1.0
1.01
0.98
1.01
1.0
0.98
1.03
1.03
1.0
1.03
1.01
0.99
1.01
1.0
0.99
1.01
1.0
1.0
1.02
1.0
1.0
1.02
1.01
0.98
1.0
0.99
0.97
0.99
0.99
0.98
1.0
0.99
0.96
1.01
1.0
1.0
1.04
1.01
1.0
1.03
1.03
1.01
1.06
1.02
1.03
1.04
0.99
1.01
1.03
0.97
0.93
0.94
1.16
1.17
0.99
1.04
1.1
1.0
0.93
0.94
1.16
1.16
0.97
0.92
0.92
1.13
1.16
1.05
1.28
1.29
1.12
0.98
0.93
0.93
1.16
1.16
1.01
1.02
1.09
1.02
1.04
1.08
0.99
1.04
1.02
1.04
1.07
1.01
1.02
1.07
1.0
1.04
1.09
0.98
1.02
1.07
0.97
1.02
1.1
0.99
1.03
1.08
0.98
1.02
1.07
0.97
1.04
1.07
1.03
1.09
1.01
1.08
1.09
1.03
1.11
1.03
1.09
1.05
1.07
1.13
1.02
1.06
1.1
0.97
1.0
1.06
0.96
0.94
0.94
1.15
1.16
0.98
1.03
0.92
0.92
1.11
1.12
0.97
0.99
0.9
0.9
1.1
1.1
0.98
1.01
0.93
0.94
1.11
1.12
1.02
1.01
0.99
1.04
1.03
0.96
0.96
1.15
1.16
1.03
1.0
1.02
1.03
1.0
1.05
1.07
1.02
1.06
1.04
1.02
1.02
1.04
0.98
1.03
1.03
1.0
1.05
1.04
1.02
1.05
1.03
1.0
1.04
1.01
0.98
1.02
1.01
0.98
1.02
1.0
1.01
1.0
0.96
0.99
0.97
0.95
0.9
0.9
1.09
1.1
1.01
0.99
0.94
0.94
1.15
1.15
1.01
1.02
1.04
1.01
1.04
1.06
1.03
1.05
1.05
1.01
0.95
0.96
1.19
1.2
1.01
1.03
1.02
1.01
1.04
1.03
1.0
1.05
1.04
0.96
0.97
1.17
1.18
1.06
1.02
1.02
1.05
0.99
1.02
1.04
0.99
1.02
1.02
0.97
0.92
0.93
1.13
1.14
1.01
0.98
0.92
0.93
1.14
1.15
1.01
0.98
0.92
0.92
1.12
1.13
0.99
1.06
1.06
1.01
1.05
1.06
1.02
1.08
1.09
1.04
1.06
1.04
1.02
1.04
1.01
1.03
1.05
1.01
1.03
1.03
1.0
1.03
1.04
1.0
1.04
1.01
1.03
1.04
1.01
1.05
1.03
1.03
1.05
0.98
1.02
1.0
0.95
0.91
0.92
1.12
1.12
1.0
1.02
1.03
1.0
1.05
1.05
1.0
0.94
0.95
1.17
1.18
1.01
1.06
1.03
1.02
1.07
1.07
1.02
1.06
1.03
1.01
1.03
1.03
1.01
1.03
1.02
1.02
1.05
0.99
1.03
1.04
1.0
1.04
1.03
1.05
1.03
1.01
1.04
1.0
1.03
1.03
1.0
1.02
1.03
1.01
1.06
1.05
1.02
1.04
1.06
0.99
0.93
0.94
1.14
1.15
1.01
0.97
0.94
0.95
1.18
1.18
1.07
1.02
1.07
1.06
1.03
1.06
1.04
1.02
1.05
1.04
1.02
1.05
1.01
1.05
1.06
1.02
1.05
1.05
1.01
1.04
1.04
1.02
1.05
1.05
1.01
1.04
1.03
1.0
1.03
1.04
0.99
1.02
1.02
0.98
0.91
0.92
1.12
1.13
0.96
0.91
0.92
1.12
1.12
0.97
0.99
1.0
0.97
1.01
1.01
0.94
0.94
1.12
1.12
1.03
1.01
1.01
1.05
1.02
1.05
1.05
0.99
1.02
1.02
0.95
0.95
1.14
1.15
1.06
1.03
1.02
1.05
1.0
1.0
1.0
0.99
1.05
1.03
1.02
1.07
1.05
1.02
1.08
1.05
1.05
1.07
1.02
0.97
1.0
1.0
1.0
1.17
1.17
1.08
1.13
1.38
1.39
1.18
1.07
1.04
1.02
1.05
1.0
0.93
0.93
1.13
1.13
0.99
0.96
0.94
0.95
1.15
1.16
1.04
1.0
0.96
0.97
1.2
1.2
1.01
1.06
1.06
1.0
0.93
0.93
1.15
1.15
1.02
1.01
1.04
1.03
1.04
1.06
1.01
1.04
1.07
1.01
1.05
1.06
1.0
1.05
1.06
1.0
1.03
1.03
0.99
1.01
0.96
0.86
0.87
1.06
1.07
1.01
1.07
1.06
1.14
1.11
1.11
1.13
1.07
1.08
1.09
1.04
1.06
1.04
1.01
1.05
1.0
1.0
1.01
1.01
0.98
1.0
1.01
0.97
0.92
0.92
1.13
1.13
0.99
1.0
1.02
0.99
1.01
1.03
0.98
1.01
1.04
0.98
1.02
1.02
1.01
1.02
1.03
1.01
1.05
1.06
1.01
1.06
1.04
1.04
1.06
1.04
1.01
1.07
1.02
1.04
1.04
0.98
0.92
0.93
1.13
1.14
0.95
0.96
0.88
0.88
1.06
1.07
0.97
1.05
1.07
1.01
1.09
1.04
1.07
1.09
1.02
1.06
1.05
1.03
1.06
1.04
1.01
1.06
1.02
1.05
1.07
1.01
1.05
1.03
0.99
1.02
1.03
0.96
0.92
0.93
1.14
1.15
1.0
1.03
1.08
1.05
1.04
1.05
0.99
0.61
1.28
1.28
1.06
1.05
1.0
0.62
1.29
1.29
1.06
1.0
1.01
1.0
0.99
1.03
1.03
1.03
1.07
1.04
1.07
1.09
1.02
1.08
1.07
1.01
1.03
0.61
1.25
1.25
0.98
0.95
0.6
1.23
1.24
1.03
1.02
1.0
0.61
1.28
1.28
1.05
1.0
0.62
1.27
1.28
1.04
1.05
1.0
0.61
1.3
1.3
1.06
1.03
0.96
0.61
1.26
1.27
1.05
1.06
1.01
0.6
1.29
1.29
1.06
1.01
1.03
1.07
1.04
1.06
1.06
1.03
0.99
0.97
0.92
0.6
1.15
1.15
1.04
1.05
1.06
1.1
1.03
1.08
1.07
1.03
1.05
1.03
0.97
0.61
1.13
1.13
0.94
0.97
1.0
1.04
1.01
1.06
1.07
1.02
1.06
1.08
0.98
0.92
0.93
1.16
1.16
1.04
1.01
1.06
1.05
1.01
1.05
1.03
0.91
0.91
1.03
1.04
0.91
1.13
0.95
1.09
0.95
0.92
0.86
0.87
1.06
1.07
0.98
1.02
1.05
1.02
1.06
1.06
1.01
1.07
1.04
1.03
1.03
0.99
1.02
1.02
0.98
1.03
1.04
0.99
0.99
1.0
0.98
1.0
1.04
1.0
1.04
1.06
1.0
0.95
0.96
1.16
1.17
1.01
0.96
0.91
0.91
1.1
1.1
0.98
0.92
0.88
0.88
1.07
1.08
0.98
0.97
0.94
0.94
1.17
1.17
1.03
1.04
1.05
1.01
1.03
1.02
1.0
1.06
1.04
0.99
1.04
1.04
1.0
1.04
1.02
0.63
1.28
1.28
0.99
0.97
0.98
0.98
1.01
1.03
1.01
1.04
1.04
1.01
1.05
1.04
0.99
0.61
1.23
1.24
1.0
0.97
0.92
0.61
1.08
1.08
0.92
1.02
0.98
0.61
1.44
1.23
1.13
1.02
1.05
1.07
1.0
0.61
1.21
1.22
1.01
0.94
0.61
1.15
1.16
0.96
1.02
0.99
0.61
1.22
1.23
0.98
0.61
1.2
1.2
1.0
0.97
0.61
1.21
1.21
0.99
1.02
0.99
1.01
1.03
1.01
1.05
1.08
0.98
0.6
1.22
1.22
0.95
0.6
1.21
1.22
1.03
1.01
1.07
1.1
1.03
1.08
1.1
1.05
1.03
1.06
1.01
0.99
1.0
0.98
1.01
1.01
0.98
1.01
1.02
0.99
1.02
1.0
0.98
0.92
0.92
1.12
1.13
0.99
1.03
1.04
1.01
1.05
1.03
1.01
1.06
1.02
1.01
1.06
1.01
1.03
1.04
0.99
1.03
1.01
0.98
0.9
0.91
1.1
1.1
0.99
0.97
0.99
0.99
0.96
1.02
1.03
0.99
1.03
1.03
0.98
1.0
1.03
0.99
0.98
1.0
0.64
1.27
1.12
0.92
0.61
1.17
1.17
0.99
1.03
1.0
1.03
1.06
1.06
1.02
0.63
1.37
1.13
1.03
1.06
1.01
1.03
1.04
0.99
1.04
1.01
0.62
1.3
1.08
0.93
0.59
1.31
0.99
0.96
0.98
0.93
0.62
1.32
0.98
0.97
0.99
0.64
1.37
1.16
0.99
0.61
1.36
1.11
1.01
0.95
0.96
0.6
1.31
1.04
0.97
0.93
0.93
0.6
1.33
0.99
0.97
0.98
0.95
0.6
1.23
1.23
1.05
1.01
1.01
1.03
1.0
1.03
1.04
1.0
1.04
1.01
0.97
0.61
1.34
1.08
1.01
1.0
0.97
0.61
1.36
1.03
0.97
0.98
0.96
1.0
1.01
0.98
1.03
1.0
0.98
1.01
0.96
0.97
0.98
0.95
0.95
0.62
1.33
1.01
0.97
0.96
0.92
0.62
1.27
1.01
0.91
0.61
1.28
1.03
0.9
0.6
1.28
0.97
0.89
0.61
1.24
0.96
0.93
0.6
1.31
1.03
0.98
0.96
0.93
0.61
1.36
1.0
0.97
0.97
0.94
0.61
1.33
0.99
0.95
0.97
0.92
0.61
1.3
0.98
0.92
0.61
1.28
0.97
0.95
0.95
0.93
0.61
1.31
1.02
0.97
0.96
0.95
0.62
1.35
0.98
0.99
0.99
0.95
0.62
1.32
0.96
0.93
0.61
1.28
0.96
0.94
0.93
0.92
0.6
1.3
0.95
0.95
0.94
0.91
0.64
1.21
0.96
0.89
0.61
1.2
0.91
0.87
0.62
1.15
0.89
0.9
0.6
1.32
0.93
0.91
0.6
1.27
0.96
0.93
0.92
0.91
0.61
1.25
0.93
0.93
0.93
0.89
0.63
1.18
0.93
0.9
0.61
1.13
1.13
0.61
1.13
1.14
0.59
1.14
1.15
0.59
1.13
1.13
0.94
0.92
0.6
1.11
1.12
0.59
1.11
1.11
0.59
1.09
1.09
0.6
1.21
0.88
0.6
1.06
1.07
0.6
1.22
0.89
0.61
1.16
0.88
0.86
0.61
1.1
0.86
0.61
1.09
0.9
0.87
0.62
1.21
0.92
0.92
0.6
1.12
1.12
0.6
1.3
1.05
0.96
0.94
0.61
1.34
0.99
0.97
0.93
0.64
1.3
0.97
0.97
0.62
1.22
1.22
0.96
0.62
1.36
1.02
0.97
0.93
0.63
1.29
0.95
0.93
0.59
1.27
0.94
0.92
0.93
0.91
0.62
1.2
0.89
0.84
0.61
1.03
0.82
0.6
1.07
0.84
0.59
1.33
0.91
0.61
1.26
0.92
0.94
0.95
0.93
0.93
0.6
1.32
0.96
0.98
0.61
1.24
1.07
0.96
0.93
0.6
1.17
1.17
0.61
1.29
0.97
0.93
0.92
0.61
1.07
0.86
0.59
1.18
0.95
0.91
0.88
0.62
1.24
0.94
0.93
0.96
0.92
0.9
0.61
1.24
0.91
0.61
1.25
0.93
0.88
0.6
1.16
0.87
0.6
1.01
0.82
0.6
0.97
0.8
0.61
0.98
0.8
0.61
0.93
0.78
0.78
0.6
0.92
0.79
0.61
1.1
0.87
0.91
0.93
0.96
0.93
0.98
0.63
1.39
1.07
1.02
0.97
0.63
1.38
1.09
0.94
0.61
1.25
1.26
0.99
0.61
1.38
1.11
1.02
0.98
0.63
1.4
1.13
0.99
0.6
1.37
1.05
1.0
1.0
1.0
1.01
0.62
1.37
1.22
1.05
1.01
0.61
1.41
1.13
1.02
1.0
0.97
0.61
1.43
1.08
1.0
1.0
0.97
0.61
1.36
1.05
0.98
0.98
0.96
0.62
1.42
1.03
0.99
0.99
0.95
0.62
1.41
1.02
0.99
0.95
0.95
0.96
0.63
1.22
1.07
0.97
0.97
1.02
1.0
1.01
1.01
0.99
1.04
1.0
1.01
1.03
0.98
1.0
0.98
0.96
0.61
1.42
1.0
0.98
0.99
0.98
0.97
0.62
1.41
1.07
1.02
1.04
1.01
1.02
1.04
1.02
0.99
1.03
1.01
0.66
1.37
1.06
0.97
1.01
1.0
0.95
0.62
1.33
0.98
0.96
0.99
0.94
0.97
0.99
0.97
0.96
1.0
0.98
0.94
0.62
1.31
0.98
0.91
0.61
1.3
0.94
0.95
0.97
0.96
0.93
0.61
1.41
1.01
0.95
0.6
1.35
1.0
0.98
0.97
0.98
0.98
0.97
0.99
1.02
0.97
0.99
1.0
0.97
1.0
1.01
0.65
1.37
1.06
0.96
0.98
1.01
0.97
0.96
1.01
1.01
0.65
1.39
1.07
0.96
0.63
1.37
1.01
0.95
0.97
0.64
1.33
1.01
0.93
0.91
0.61
1.3
0.95
0.93
0.93
0.92
0.91
0.61
1.34
0.95
0.94
0.95
0.94
0.91
0.61
1.15
1.15
0.93
0.94
0.61
1.24
1.03
0.95
0.95
0.63
1.34
1.01
0.96
0.94
0.61
1.14
1.14
0.94
0.92
0.95
0.95
0.94
0.97
0.95
0.98
0.98
0.94
0.97
0.93
0.96
0.93
0.88
0.63
0.97
0.75
0.71
0.63
0.74
0.69
0.59
0.79
0.75
0.61
0.9
0.76
0.6
1.07
0.89
0.87
0.88
0.61
1.08
0.91
0.84
0.61
1.04
0.83
0.79
0.61
0.89
0.76
0.59
0.85
0.76
0.61
0.87
0.78
0.81
0.61
0.96
0.96
0.85
0.6
1.0
0.8
0.62
0.96
0.97
0.87
0.61
1.02
1.03
0.62
1.01
1.01
0.64
1.03
0.86
0.6
0.97
0.98
0.61
1.0
0.79
0.61
0.89
0.77
0.61
1.04
0.87
0.87
0.62
1.08
0.89
0.88
0.63
1.01
1.02
0.88
0.62
1.05
1.06
0.64
1.16
0.92
0.63
1.06
1.06
0.61
1.06
1.06
0.6
1.05
1.05
0.6
1.02
1.02
0.62
1.01
1.02
0.62
1.02
1.02
0.62
1.04
1.05
0.62
1.02
1.03
0.62
1.03
1.04
0.62
1.02
1.02
0.89
0.62
1.03
1.04
0.88
0.61
1.01
1.02
0.61
1.0
1.01
0.62
0.99
1.0
0.85
0.62
0.96
0.96
0.61
1.01
1.01
0.9
0.6
1.04
1.04
0.9
0.62
1.02
0.82
0.61
0.88
0.74
0.61
0.82
0.73
0.6
0.87
0.79
0.6
0.98
0.81
0.89
0.91
0.62
1.24
0.98
0.93
0.63
1.29
1.0
0.95
0.61
1.2
1.2
0.97
0.64
1.36
1.0
0.98
0.65
1.37
1.03
0.96
0.63
1.39
1.04
0.93
0.62
1.35
0.99
0.97
0.61
1.37
1.03
0.97
0.93
0.62
1.32
0.95
0.96
0.61
1.41
1.08
1.04
1.04
1.04
0.99
0.62
1.41
1.13
1.0
0.97
0.99
1.01
0.63
1.27
1.13
0.91
0.92
0.61
1.31
0.92
0.94
0.96
0.6
1.36
1.0
0.97
0.94
0.98
0.96
0.99
0.9
0.64
1.26
0.94
1.0
0.98
0.98
0.98
1.01
1.02
1.04
1.04
1.03
1.05
1.03
0.99
0.62
1.39
1.08
0.98
0.98
0.93
0.62
1.33
0.94
0.95
0.94
0.6
1.33
1.0
0.95
0.95
0.92
0.62
1.28
0.92
0.93
0.92
0.6
1.27
0.93
0.93
0.92
0.9
0.63
1.21
0.94
0.9
0.92
0.94
0.93
0.92
0.93
0.63
1.18
0.94
0.91
0.9
0.62
1.2
0.89
0.92
0.92
0.9
0.91
0.62
1.22
0.92
0.92
0.93
0.89
0.91
0.91
0.92
0.91
0.93
0.93
0.91
0.92
0.9
0.89
0.88
0.88
0.9
0.9
0.62
1.07
1.08
0.9
0.91
0.88
0.88
0.91
0.9
0.89
0.87
0.66
1.16
0.93
0.92
0.95
0.95
0.94
0.96
0.99
0.96
1.01
1.01
0.99
1.01
0.98
1.0
0.96
0.93
0.63
1.28
0.89
0.92
0.88
0.85
0.64
1.17
0.92
0.92
0.64
1.35
0.97
0.98
0.99
0.93
0.64
1.32
0.96
0.95
0.95
0.94
0.93
0.94
0.65
1.22
0.94
0.91
0.91
0.62
1.3
0.96
0.94
0.93
0.91
0.61
1.15
0.9
0.86
0.63
1.17
0.91
0.89
0.62
1.14
0.91
0.91
0.88
0.9
0.61
1.18
0.89
0.91
0.91
0.89
0.9
0.65
1.19
0.91
0.89
0.63
1.15
0.87
0.89
0.62
1.19
0.91
0.93
0.94
0.91
0.64
1.21
0.89
0.92
0.62
1.17
0.86
0.9
0.87
0.61
1.04
0.83
0.82
0.62
1.06
0.87
0.89
0.91
0.91
0.62
1.33
0.97
0.92
0.62
1.33
0.96
0.94
0.62
1.39
1.01
0.94
0.62
1.37
0.97
0.96
0.99
0.96
0.95
0.62
1.43
1.01
0.97
0.98
0.62
1.33
0.99
0.92
0.91
0.62
1.32
0.9
0.96
0.96
0.94
0.96
0.98
0.95
0.95
0.97
0.96
0.93
0.94
0.91
0.87
0.9
0.64
1.15
0.9
0.9
0.88
0.65
1.14
0.91
0.89
0.63
1.18
0.9
0.91
0.89
0.88
0.63
1.14
0.88
0.93
0.92
0.9
0.92
0.93
0.64
1.19
0.92
0.91
0.9
0.63
1.23
0.92
0.93
0.92
0.89
0.65
1.17
0.91
0.91
0.62
1.25
0.92
0.91
0.91
0.88
0.65
1.19
0.91
0.91
0.61
1.26
0.94
0.94
0.92
0.9
0.63
1.19
0.88
0.89
0.84
0.63
1.0
0.82
0.62
1.0
0.82
0.87
0.61
1.18
0.89
0.93
0.92
0.88
0.65
1.11
0.9
0.84
0.65
1.05
0.85
0.81
0.64
0.95
0.8
0.79
0.64
0.92
0.79
0.8
0.64
1.1
0.9
0.89
0.89
0.62
1.26
0.95
0.93
0.62
1.13
1.14
0.94
0.93
0.93
0.62
1.13
1.13
0.94
0.94
0.91
0.63
1.09
1.1
0.95
0.93
0.93
0.94
0.63
1.17
1.17
0.98
0.95
0.98
0.93
0.65
1.02
1.03
0.84
0.62
0.93
0.75
0.75
0.61
0.82
0.74
0.59
0.8
0.72
0.61
0.78
0.7
0.58
0.78
0.7
0.59
0.75
0.7
0.58
0.76
0.69
0.7
0.7
0.62
0.84
0.76
0.77
0.6
1.08
0.82
0.9
0.93
0.96
0.91
0.63
1.31
1.01
0.94
0.6
1.25
1.25
0.98
0.6
1.33
1.34
1.06
1.05
0.99
0.62
1.27
1.27
0.98
0.6
1.23
1.23
0.99
1.01
0.97
0.6
1.25
1.25
1.01
1.02
0.96
0.94
0.61
1.37
1.05
0.94
0.6
1.23
1.23
1.01
1.04
1.05
1.01
0.64
1.27
1.28
1.02
1.0
0.61
1.33
1.12
0.96
0.62
1.19
1.2
0.94
0.61
1.22
1.22
0.96
0.6
1.22
1.23
0.96
0.64
1.33
0.99
0.97
0.62
1.33
1.0
0.6
1.29
0.97
0.99
0.96
0.96
0.62
1.19
1.2
0.92
0.6
1.11
1.11
0.59
1.13
0.84
0.6
1.05
0.81
0.61
1.12
0.83
0.61
1.19
0.93
0.93
0.59
1.19
1.19
0.59
1.21
1.21
0.96
0.6
0.75
0.62
1.03
0.6
1.19
1.2
0.6
1.21
1.22
0.95
0.59
1.2
1.2
0.6
1.25
1.25
1.01
0.61
1.26
1.27
1.02
0.98
0.64
1.21
1.21
0.94
0.6
1.17
1.17
0.6
1.16
1.16
0.61
1.18
1.18
0.94
0.59
1.19
1.19
0.98
0.97
0.94
0.62
1.15
1.16
0.92
0.59
1.12
1.12
0.93
0.61
1.17
0.88
0.6
1.2
0.89
0.64
1.15
0.91
0.91
0.6
1.42
1.0
1.01
0.6
1.36
1.11
1.0
0.95
0.61
1.36
1.05
0.97
0.95
0.62
1.32
0.98
0.92
0.6
1.34
0.96
0.61
1.34
1.01
0.97
0.61
1.35
1.04
0.98
0.95
0.92
0.61
1.29
0.96
0.93
0.92
0.92
0.91
0.6
1.29
0.93
0.93
0.95
0.92
0.62
1.32
0.97
0.94
0.94
0.9
0.62
1.28
0.92
0.9
0.6
1.28
0.92
0.6
1.23
0.9
0.87
0.6
1.2
0.88
0.61
1.16
0.89
0.89
0.6
1.27
0.95
0.95
0.94
0.94
0.6
1.31
0.99
0.96
0.62
1.35
1.02
0.97
0.93
0.61
0.76
0.58
1.04
1.0
0.95
0.62
1.35
1.01
0.95
0.92
0.62
1.36
0.97
0.96
0.96
0.93
0.61
1.38
1.01
0.98
0.99
0.96
0.63
1.34
1.0
0.93
0.63
1.37
1.01
0.98
0.96
0.95
0.61
1.35
0.96
0.61
1.33
0.96
0.93
0.95
0.93
0.6
1.44
1.02
1.01
1.0
0.97
0.61
1.36
0.99
0.96
0.94
0.62
1.28
0.97
0.92
0.62
1.33
0.95
0.92
0.6
1.31
0.94
0.6
1.34
0.95
0.59
1.35
0.98
0.97
0.98
0.95
0.61
1.37
1.04
0.96
0.95
0.94
0.6
1.31
0.96
0.94
0.93
0.89
0.62
1.24
0.92
0.9
0.6
1.32
0.95
0.96
0.96
0.94
0.94
0.61
1.32
0.95
0.93
0.91
0.9
0.63
1.23
0.92
0.89
0.6
1.24
0.91
0.59
1.26
0.91
0.61
1.32
0.95
0.94
0.62
1.29
0.97
0.92
0.9
0.61
1.26
0.91
0.63
1.2
0.92
0.9
0.6
1.11
1.11
0.61
1.11
1.12
0.93
0.94
0.61
1.08
1.09
0.89
0.62
1.16
0.9
0.89
0.6
1.12
1.13
0.92
0.6
1.11
1.12
0.6
1.11
1.12
0.93
0.6
1.11
1.12
0.6
1.11
1.12
0.62
1.14
1.15
0.92
0.61
1.17
1.17
0.61
1.11
1.12
0.61
1.05
1.05
0.86
0.61
1.03
1.04
0.62
1.15
0.89
0.88
0.6
1.09
1.1
0.86
0.61
1.08
0.81
0.61
0.9
0.76
0.59
0.87
0.75
0.61
0.85
0.76
0.61
0.86
0.76
0.59
0.88
0.77
0.6
0.94
0.79
0.61
1.07
0.9
0.89
0.6
1.16
1.16
0.92
0.61
1.4
1.18
1.02
1.03
0.98
0.62
1.27
1.28
0.98
0.59
1.29
1.3
1.05
1.04
1.01
1.02
0.6
1.31
1.31
1.05
1.04
0.99
0.6
1.26
1.26
1.03
1.02
0.99
0.63
1.3
1.3
1.02
0.6
1.25
1.26
1.02
0.59
1.38
1.11
1.02
0.97
0.61
1.43
1.04
0.98
0.6
1.37
1.04
0.99
1.01
0.97
0.62
1.4
1.09
0.97
0.6
1.38
1.06
0.97
0.63
1.34
1.04
0.97
0.64
1.37
1.04
0.95
0.59
1.41
1.08
1.02
1.04
1.04
1.0
0.61
1.44
1.23
1.07
1.02
0.99
0.61
1.39
1.12
1.0
1.0
0.99
1.0
1.01
0.61
1.34
1.18
1.0
0.96
0.62
1.33
1.04
0.96
0.96
0.95
0.62
1.37
1.0
0.95
0.61
1.31
0.98
0.94
0.96
0.61
1.3
1.01
0.95
0.94
0.6
1.34
0.98
0.95
0.96
0.93
0.63
1.32
0.96
0.98
0.97
0.95
0.99
0.99
0.95
0.6
1.27
0.97
0.94
0.93
0.9
0.6
1.26
0.93
0.91
0.91
0.92
0.91
0.61
1.31
0.97
0.92
0.6
1.25
0.97
0.94
0.92
0.91
0.62
1.18
0.92
0.92
0.94
0.99
0.96
0.99
1.03
1.03
0.99
1.06
1.03
0.62
1.4
1.19
1.0
0.6
1.34
1.11
1.01
0.98
0.98
0.6
1.43
1.1
1.01
1.05
0.99
0.61
1.37
1.15
1.01
0.99
0.96
0.63
1.31
1.02
0.95
0.97
0.6
1.37
1.05
1.01
0.98
0.59
1.39
1.03
0.96
0.98
0.95
0.61
1.38
1.38
1.1
1.13
1.06
1.07
1.08
1.03
1.05
1.04
1.0
1.05
1.03
0.62
1.4
1.14
0.99
0.61
1.37
1.03
0.98
0.96
0.91
0.6
1.32
0.96
0.94
0.95
0.98
0.93
0.6
1.38
1.02
0.95
0.59
1.38
1.04
1.01
0.99
0.98
1.01
1.01
0.62
1.38
1.1
0.97
1.01
1.0
0.98
1.01
1.02
0.99
1.0
1.01
0.96
0.61
1.38
1.07
0.98
1.01
0.97
0.99
1.03
1.03
1.01
1.05
1.02
1.02
1.0
0.97
0.98
0.6
1.32
1.07
0.96
0.92
0.6
1.38
1.02
0.92
0.59
1.24
0.98
0.97
0.97
1.0
1.02
0.99
1.03
1.04
0.98
1.01
1.0
0.97
0.99
0.99
0.96
0.98
1.0
1.01
0.96
1.0
0.62
1.39
1.09
0.99
0.96
0.62
1.35
1.07
0.95
0.92
0.62
1.35
0.99
0.93
0.6
1.33
1.01
0.97
0.95
0.93
0.6
1.35
0.98
0.96
0.61
1.33
1.03
0.96
0.93
0.62
1.28
0.96
0.9
0.6
1.3
0.92
0.59
1.36
0.96
0.58
1.36
1.0
0.6
1.39
1.02
1.0
0.6
1.36
1.14
1.01
0.95
0.63
1.31
1.02
0.93
0.6
1.36
1.05
1.0
1.02
0.98
0.61
1.39
1.08
0.96
0.6
1.3
1.04
0.98
0.97
0.97
0.6
1.44
1.13
1.05
1.04
0.98
0.61
1.39
1.09
1.0
1.01
0.61
1.33
1.12
1.02
0.95
0.62
1.39
1.05
0.99
1.0
0.99
0.95
0.6
1.32
0.98
0.95
0.97
0.95
0.6
1.27
1.27
1.03
1.07
1.05
1.03
1.07
1.08
1.03
1.08
1.07
1.02
1.03
1.03
1.0
1.02
1.03
1.0
1.02
1.04
0.99
1.02
1.02
0.99
1.02
1.04
0.99
0.99
1.0
0.97
1.0
0.99
0.95
0.86
0.87
1.03
1.03
0.92
0.89
0.9
0.91
1.07
1.08
0.87
1.2
1.02
1.18
1.05
1.03
1.07
1.05
1.04
1.07
1.04
1.06
1.06
1.01
1.03
1.0
0.98
1.0
0.99
0.97
0.98
0.99
0.98
1.01
1.03
0.98
1.0
1.02
1.0
0.99
1.01
1.0
1.0
1.03
0.99
1.01
1.02
1.02
0.98
0.61
1.3
0.95
0.6
1.35
0.99
0.59
1.29
1.29
1.08
1.05
1.05
1.09
1.02
1.05
1.06
1.01
1.04
1.03
0.97
0.61
1.33
1.12
1.01
0.97
0.99
1.0
0.96
0.61
1.36
1.04
0.97
0.59
1.37
1.06
0.99
1.0
0.93
0.62
1.21
0.86
0.62
1.03
0.82
0.61
1.01
0.84
0.61
1.21
0.91
0.91
0.61
1.06
1.04
0.84
0.62
0.98
0.74
0.62
0.95
0.79
0.6
0.98
0.81
0.82
0.61
1.08
0.85
0.89
0.6
1.21
0.92
0.6
1.36
1.01
0.97
0.6
1.25
1.26
1.01
1.05
0.6
1.38
1.25
1.06
1.01
0.6
1.46
1.26
1.1
1.08
1.04
0.62
1.42
1.23
1.08
1.0
0.63
1.37
1.13
0.95
0.61
1.39
1.09
1.03
1.09
1.03
1.08
1.09
0.63
1.4
1.31
1.07
1.03
1.03
0.98
0.61
1.39
1.15
1.03
1.01
1.0
0.61
1.36
1.12
0.99
1.02
1.01
0.61
1.28
1.29
1.06
1.04
1.02
1.03
1.02
1.0
1.02
1.02
0.97
0.98
0.98
0.61
1.27
1.06
0.95
0.92
0.6
1.17
1.17
0.95
0.97
0.97
0.97
1.01
1.02
0.97
1.03
1.04
0.98
1.01
1.0
0.97
1.02
0.98
0.94
0.61
1.16
1.16
0.95
0.95
0.93
0.6
1.16
1.17
0.97
0.96
0.92
0.61
1.15
1.16
0.96
0.98
0.93
0.61
1.16
1.17
0.97
0.96
0.95
0.75
0.59
1.32
1.1
0.98
0.96
1.0
1.01
1.0
1.02
1.02
0.96
0.92
0.61
1.12
1.13
0.97
1.02
1.04
1.08
1.07
1.08
1.1
1.05
1.07
1.08
1.02
1.07
1.08
1.01
0.96
0.96
1.29
1.06
1.01
1.0
1.04
1.02
1.0
1.05
1.04
0.95
0.95
1.17
1.18
1.04
1.02
1.05
1.07
1.01
0.89
0.9
1.06
1.07
0.95
0.93
0.93
0.93
1.14
1.15
1.03
0.99
0.94
0.95
1.16
1.16
1.03
1.01
1.05
1.05
1.03
1.05
1.0
1.01
1.02
0.99
1.01
1.02
0.97
1.03
1.04
1.0
1.02
1.04
1.01
1.04
1.06
1.01
1.04
1.04
1.0
1.04
1.05
1.02
1.04
1.04
0.98
0.92
0.92
1.11
1.12
0.99
0.97
0.92
0.92
1.12
1.13
1.0
1.03
1.07
1.05
1.02
1.08
1.08
1.03
1.09
1.03
1.02
1.02
0.98
1.0
0.99
0.94
0.9
0.9
1.1
1.1
1.0
0.97
1.01
1.02
0.99
1.04
1.01
1.0
1.03
1.0
1.0
1.01
1.01
1.0
1.04
1.0
1.04
1.05
1.0
1.04
1.05
1.01
1.02
1.03
0.99
1.02
0.99
0.98
0.99
0.98
1.0
1.02
1.01
1.02
1.03
1.02
1.0
1.03
0.99
1.03
1.04
1.01
1.04
1.03
1.02
1.04
1.01
0.98
0.93
0.93
1.13
1.13
0.99
0.98
1.05
1.05
1.04
1.05
1.32
1.33
1.04
1.04
1.02
0.98
0.95
0.96
1.19
1.19
1.0
0.95
0.96
1.2
1.2
1.05
1.03
1.04
1.04
1.18
1.19
1.03
1.07
1.04
1.05
1.05
1.07
1.11
1.04
1.09
1.04
1.07
1.1
1.04
1.07
1.03
1.06
1.06
1.01
0.95
0.96
1.13
1.14
0.96
0.96
0.97
1.2
1.2
1.08
1.07
1.15
1.11
1.15
1.21
1.12
1.14
1.09
1.1
1.09
1.04
1.07
1.09
1.03
1.07
1.05
1.0
1.04
1.01
1.02
1.24
1.25
1.08
1.02
1.08
1.03
1.08
1.11
1.05
1.08
1.03
1.05
1.05
1.0
1.04
1.02
1.05
1.06
1.0
1.05
1.08
1.02
1.06
1.08
1.03
1.08
1.09
1.04
1.07
1.03
1.06
1.07
1.04
1.07
1.05
1.08
1.1
1.03
1.08
1.09
1.04
1.1
1.07
1.05
1.08
1.06
1.07
1.08
1.04
1.08
1.09
1.03
1.07
1.07
1.04
1.07
1.08
1.1
1.1
1.05
1.1
1.08
1.07
1.09
1.07
1.05
1.06
1.01
1.04
1.04
1.0
1.04
1.05
1.01
1.05
1.07
1.04
1.06
1.02
1.06
1.06
1.02
1.06
1.05
1.03
1.07
1.06
1.03
1.05
1.06
1.04
1.07
1.03
1.03
1.06
1.03
1.08
1.1
1.04
1.11
1.12
1.05
1.09
1.09
1.1
1.1
1.05
1.09
1.1
1.04
1.09
1.06
1.09
1.09
1.02
1.1
1.1
1.05
1.08
1.07
1.03
1.01
1.01
1.08
1.14
1.07
1.15
1.14
1.1
1.16
1.14
1.08
1.13
1.11
1.05
1.08
1.02
1.09
1.06
1.06
1.08
1.03
1.03
1.05
1.04
1.05
1.1
1.08
1.1
1.12
1.05
1.1
1.09
1.04
1.09
1.04
1.08
1.09
1.04
1.08
1.08
1.0
0.95
0.95
1.18
1.18
1.05
1.04
1.08
1.07
1.05
1.09
1.06
1.04
1.07
1.04
1.07
1.08
1.01
1.05
1.05
1.0
1.03
1.06
1.02
1.07
1.07
1.05
1.08
1.06
1.07
1.06
1.0
1.02
1.0
0.95
0.95
1.15
1.16
1.05
1.04
1.09
1.09
1.03
0.99
1.0
1.2
1.2
1.0
0.94
0.94
1.13
1.14
0.92
0.93
1.13
1.13
0.98
0.92
0.92
1.12
1.12
1.01
0.98
0.92
0.92
1.12
1.13
0.99
0.98
1.02
1.03
1.05
1.09
1.05
1.08
1.08
1.05
1.1
1.05
1.04
1.07
1.03
1.06
1.08
1.04
1.08
1.09
1.05
1.09
1.06
1.08
1.08
1.03
1.07
1.05
1.04
1.08
1.02
1.07
1.05
1.05
1.07
1.04
1.06
1.1
1.04
1.07
1.09
1.04
1.06
1.05
1.0
0.87
0.87
1.02
1.02
0.82
0.83
1.04
0.93
0.99
1.07
1.0
1.07
1.09
1.06
1.11
1.11
1.09
1.11
1.09
1.04
1.1
1.1
1.07
1.14
1.13
1.04
0.97
0.97
1.22
1.23
1.11
1.0
1.02
1.02
1.44
1.39
1.27
1.19
1.11
1.04
0.99
0.99
1.24
1.24
1.04
1.04
1.07
1.04
1.01
1.0
1.01
1.27
1.28
1.05
1.13
1.13
1.07
1.13
1.11
1.13
1.16
1.06
1.11
1.08
1.08
1.11
1.05
1.08
1.09
1.05
1.06
1.03
1.02
1.06
1.06
1.07
1.11
1.06
1.1
1.1
1.06
1.09
1.08
1.03
1.08
1.08
1.02
1.08
1.09
1.04
1.1
1.07
1.09
1.11
1.05
1.09
1.07
1.1
1.12
1.07
1.12
1.1
1.04
1.1
1.1
1.04
1.11
1.07
1.12
1.13
1.07
1.09
1.11
1.05
1.09
1.1
1.04
1.07
1.07
1.05
1.06
1.04
1.03
1.05
1.02
1.05
1.06
1.02
1.07
1.09
1.04
1.1
1.12
1.04
0.97
0.98
1.2
1.21
1.03
1.02
1.04
1.02
1.04
1.0
1.0
1.24
1.24
1.0
0.92
0.93
1.13
1.13
0.97
0.95
0.97
0.97
1.23
1.24
1.09
1.12
1.12
1.04
0.97
0.97
1.22
1.22
1.06
1.02
1.07
1.05
1.06
1.1
1.06
1.08
1.11
1.06
1.1
1.1
1.02
1.06
1.06
1.02
1.08
1.05
1.09
1.11
1.07
1.1
1.09
1.02
1.08
1.03
1.07
1.09
1.02
0.96
0.96
1.18
1.18
1.03
0.98
0.96
0.96
1.18
1.19
1.01
0.96
0.96
1.17
1.18
1.04
0.99
0.94
0.95
1.16
1.17
1.03
1.05
1.08
1.04
1.06
1.09
1.03
1.09
1.09
1.04
1.07
1.05
0.98
0.94
0.95
1.18
1.18
1.05
1.06
1.1
1.13
1.06
1.11
1.1
1.06
1.1
1.1
1.05
1.11
1.05
1.07
1.1
1.05
1.07
1.07
1.03
1.07
1.04
1.07
1.1
1.06
1.1
1.07
1.03
1.08
1.09
1.05
1.09
1.07
1.07
1.11
1.06
1.1
1.1
1.04
1.07
1.08
1.05
1.08
1.05
1.04
1.07
1.04
1.05
1.06
1.03
1.07
1.07
1.02
1.07
1.07
1.05
1.07
1.05
1.02
1.04
0.96
0.97
1.17
1.17
1.05
1.03
1.04
1.07
1.05
1.06
1.07
1.03
1.1
1.08
1.04
1.09
1.06
1.06
1.07
1.02
1.05
1.04
1.01
1.03
1.03
0.99
0.93
0.93
1.15
1.15
1.04
1.01
1.05
1.02
1.04
1.06
1.0
0.94
0.94
1.15
1.15
1.04
0.99
0.93
0.93
1.14
1.14
1.03
0.98
0.94
0.94
1.16
1.17
1.04
1.04
1.08
1.06
1.04
1.06
1.02
1.08
1.08
1.03
1.07
1.05
1.03
1.05
1.02
1.0
1.03
1.02
0.99
1.04
1.03
0.95
0.96
1.14
1.14
0.94
0.94
1.16
1.17
1.02
1.08
1.07
0.96
0.96
1.17
1.17
1.02
0.98
0.94
0.95
1.16
1.16
1.03
1.02
1.06
1.03
1.07
1.09
1.03
1.08
1.08
1.05
1.08
1.04
1.07
1.05
1.01
1.05
1.06
1.01
1.06
1.05
1.04
1.07
1.05
1.06
1.09
1.03
1.06
1.07
1.03
1.07
1.07
1.02
1.06
1.05
1.01
1.01
1.14
1.15
1.03
1.04
1.01
1.02
1.03
1.02
1.02
1.02
1.28
1.28
1.16
1.08
1.05
1.05
1.36
1.37
1.18
1.08
1.03
1.02
0.94
0.95
1.15
1.16
0.98
0.94
0.95
1.16
1.16
1.03
1.03
1.04
1.03
1.05
1.06
1.02
1.04
1.03
0.99
0.92
0.92
1.12
1.12
0.97
0.98
0.92
0.93
1.14
1.15
1.02
1.04
1.05
1.02
1.04
1.05
1.0
0.93
0.94
1.15
1.16
0.99
1.02
1.04
1.01
1.08
1.11
1.09
1.12
1.07
1.12
1.13
1.06
1.11
1.08
1.06
1.08
1.04
1.07
1.07
1.03
1.07
1.01
1.02
1.24
1.24
1.06
1.08
1.02
1.04
1.0
1.0
1.2
1.2
1.03
1.05
1.03
1.02
1.05
1.02
1.05
1.07
1.03
1.08
1.04
1.04
1.06
1.03
1.05
1.06
1.06
1.02
1.08
1.06
1.05
1.09
1.04
1.09
1.06
0.97
0.92
0.93
1.13
1.14
0.95
0.9
0.9
1.1
1.1
0.97
0.95
0.95
1.19
1.19
1.06
1.02
0.68
0.69
0.61
1.19
1.05
1.0
0.99
0.93
0.93
1.24
1.02
0.99
1.02
1.05
1.01
1.04
1.06
1.03
1.06
1.07
1.03
1.08
1.04
1.03
1.08
1.05
1.08
1.1
1.05
1.08
1.11
1.06
1.07
1.09
1.03
0.61
1.27
1.27
0.95
0.62
1.11
0.86
0.62
1.08
0.88
0.88
0.61
1.1
1.11
0.99
0.99
1.0
1.03
1.05
1.01
1.03
1.05
1.0
0.62
1.35
1.36
1.08
1.08
1.03
1.04
1.08
1.08
1.02
0.61
1.32
1.32
1.09
1.08
1.03
0.62
1.53
1.36
1.21
1.08
1.05
1.09
0.62
1.43
1.39
1.1
1.04
1.07
0.99
0.99
1.2
1.21
0.98
0.98
1.22
1.22
1.04
1.02
1.02
1.03
1.28
1.12
1.04
1.1
1.12
1.03
1.09
1.09
1.06
1.1
1.08
1.05
1.09
1.07
1.06
1.1
1.05
1.09
1.08
1.05
1.1
1.07
1.04
1.05
1.02
1.02
1.05
1.04
1.03
1.05
1.05
1.04
1.09
1.09
1.09
1.13
1.09
1.14
1.17
1.1
1.15
1.11
1.08
1.1
1.07
1.06
1.09
1.06
1.06
1.06
1.03
1.05
1.03
1.03
1.06
1.02
1.05
1.04
1.01
1.02
1.0
0.94
0.94
1.11
1.11
0.99
1.0
1.13
1.13
1.06
1.05
1.07
1.01
0.94
0.94
1.15
1.16
1.03
0.97
0.93
0.94
1.13
1.14
1.02
1.08
1.09
1.05
1.11
1.09
1.05
1.08
1.03
1.05
1.06
1.01
0.96
0.96
1.21
1.21
1.07
1.08
1.11
1.07
1.09
1.1
1.07
1.09
1.12
1.07
1.1
1.15
1.09
1.11
1.12
1.06
1.1
1.07
1.06
1.1
1.06
1.07
1.08
1.04
1.05
1.04
1.06
1.08
1.04
1.07
1.08
1.02
0.95
0.95
1.13
1.14
1.02
1.03
1.18
1.18
1.11
1.08
1.12
1.1
1.06
1.09
1.07
1.07
1.11
1.07
1.09
1.11
1.05
1.08
1.09
1.01
0.91
0.92
1.13
1.13
1.02
0.95
0.95
0.95
1.18
1.18
1.0
1.02
1.06
1.06
1.07
1.04
1.07
1.08
1.02
1.05
1.05
1.01
1.03
1.03
0.99
0.95
0.95
1.15
1.16
1.07
1.05
1.11
1.11
1.1
1.16
1.12
1.15
1.13
1.11
1.13
1.1
1.09
1.1
1.05
1.05
1.08
1.03
1.02
1.06
1.02
1.04
1.07
1.03
1.05
1.02
1.04
1.05
1.01
1.02
1.04
1.02
1.02
1.05
1.04
1.04
1.07
1.03
1.06
1.09
1.03
1.06
0.62
1.35
1.15
1.08
0.99
0.61
1.41
1.07
0.99
1.0
0.99
0.62
1.43
1.15
1.04
0.97
0.62
1.45
1.14
1.02
0.96
0.63
1.4
1.03
1.0
1.05
0.96
0.63
1.4
1.05
1.0
1.01
1.0
0.62
1.44
1.12
1.03
1.0
0.64
1.42
1.04
1.02
1.08
0.98
0.62
1.42
1.07
1.02
1.02
0.99
0.62
1.45
1.1
1.02
1.03
1.02
0.63
1.45
1.2
1.09
1.02
0.62
1.41
1.1
1.04
0.97
0.62
1.45
1.08
1.03
1.06
1.01
0.63
1.42
1.11
1.04
1.08
0.99
0.61
1.44
1.12
1.02
1.07
1.01
0.6
0.78
0.71
1.11
1.02
1.0
1.03
1.02
1.01
1.05
1.08
1.02
1.05
1.1
1.0
1.02
1.13
0.99
1.01
1.09
0.99
1.01
1.02
1.02
1.01
1.0
1.02
1.05
1.05
1.04
0.99
1.06
0.97
0.61
1.25
1.25
1.0
0.92
0.62
1.23
1.23
1.02
1.04
1.21
1.08
1.0
0.61
1.22
1.22
1.02
0.99
0.97
0.62
1.21
1.22
1.02
0.97
1.03
1.04
0.62
1.26
1.27
1.01
0.61
1.26
1.27
1.04
0.97
0.62
1.24
1.24
1.01
0.98
1.02
1.03
0.64
1.29
1.3
1.04
1.02
1.01
1.07
1.12
1.02
1.01
0.62
1.33
1.2
1.07
1.03
1.11
1.03
1.07
1.16
1.05
1.07
1.18
1.13
1.04
1.05
1.1
1.12
1.05
1.08
1.02
1.02
1.11
1.05
1.07
1.09
1.0
0.63
1.24
1.24
1.01
0.98
1.0
0.63
1.24
1.25
1.01
0.99
1.02
0.64
1.26
1.26
1.08
0.99
0.62
1.25
1.26
1.06
0.99
1.05
1.13
0.98
0.62
1.27
1.27
1.03
0.98
0.62
1.27
1.27
1.04
0.99
0.63
1.27
1.27
1.06
1.14
1.01
0.62
1.37
1.38
1.17
1.05
1.08
1.18
1.04
0.98
0.62
1.31
1.31
1.09
1.04
1.1
1.16
1.06
1.11
1.18
1.05
1.06
0.62
1.36
1.21
1.15
1.0
0.62
1.37
1.22
1.09
0.99
0.62
1.29
1.3
1.06
1.01
1.07
1.06
1.04
1.05
1.09
1.05
1.07
0.62
1.36
1.18
1.1
0.98
0.62
1.29
1.29
1.04
0.97
0.62
1.26
1.27
1.04
1.13
1.01
0.62
1.42
1.11
1.04
1.05
1.01
1.04
0.64
1.33
1.21
1.03
1.03
1.03
1.07
1.02
1.01
1.06
1.01
1.01
1.1
0.99
1.01
1.08
0.98
0.62
1.39
1.06
1.02
1.03
0.97
0.62
1.42
1.03
0.99
0.99
0.95
0.62
1.38
1.06
1.04
1.04
1.0
0.61
1.4
1.13
1.03
1.01
1.01
0.61
1.43
1.21
1.1
1.02
0.62
1.29
1.29
1.06
1.04
1.01
0.61
1.4
1.13
1.03
1.08
1.0
0.62
1.46
1.12
1.05
1.0
0.62
1.47
1.15
1.07
1.09
1.04
1.07
1.06
1.14
1.19
1.04
1.05
1.08
1.06
1.07
0.97
1.01
0.94
0.94
1.14
1.15
1.03
1.07
1.06
1.05
1.1
1.05
1.05
1.1
1.0
1.03
1.09
1.02
1.01
1.04
1.0
1.03
1.01
1.05
1.04
1.02
1.08
1.01
1.0
1.02
0.95
0.64
1.31
1.31
1.05
1.07
1.06
1.04
1.07
1.02
0.63
1.28
1.29
1.04
1.01
0.63
1.25
1.26
1.03
1.05
1.0
0.61
1.25
1.26
1.05
1.01
0.62
1.27
1.28
1.05
1.07
1.02
0.6
1.26
1.26
1.01
1.05
0.88
0.63
0.79
0.49
0.42
0.6
0.95
0.78
0.6
0.89
0.75
0.6
0.84
0.74
0.59
0.82
0.72
0.58
0.8
0.72
0.59
0.79
0.7
0.6
0.77
0.7
0.58
0.77
0.7
0.58
0.8
0.72
0.59
0.85
0.74
0.58
0.9
0.77
0.59
0.91
0.76
0.59
0.88
0.73
0.6
0.85
0.74
0.58
0.87
0.77
0.6
0.99
0.9
0.82
0.62
1.08
0.95
0.86
0.62
1.15
0.9
0.62
1.13
0.9
0.59
1.07
0.83
0.6
1.1
0.84
0.61
1.12
0.9
0.61
1.07
1.08
0.61
1.1
1.11
0.61
1.11
1.12
0.6
1.16
1.16
0.6
1.26
1.02
0.6
1.26
0.97
0.61
1.21
0.9
0.62
1.3
0.97
0.61
1.19
1.2
0.62
1.31
1.07
0.64
1.25
1.03
0.62
1.25
1.02
0.63
1.29
1.07
0.96
0.61
1.19
1.19
0.61
1.17
1.18
0.62
1.27
1.05
0.93
0.62
1.21
1.21
0.61
1.25
0.93
0.61
1.19
1.05
0.95
0.61
1.19
1.2
0.61
1.35
1.0
0.61
1.31
1.01
0.62
1.33
0.99
0.62
1.42
1.01
0.62
1.38
1.02
0.6
1.35
1.0
0.61
1.37
1.03
0.61
1.34
0.97
0.61
1.3
0.98
0.61
1.32
0.95
0.6
1.32
0.98
0.6
1.35
1.04
0.6
1.25
1.04
1.01
0.91
0.63
1.37
0.99
0.61
1.35
1.0
0.61
1.37
1.0
0.61
1.36
1.03
0.61
1.33
1.02
0.61
1.34
1.03
0.61
1.41
1.07
0.61
1.37
1.09
1.04
0.96
0.62
1.44
1.04
0.62
1.43
1.03
0.61
1.38
1.0
0.62
1.34
1.04
0.93
0.61
1.38
0.96
0.61
1.35
1.01
0.61
1.5
1.05
0.62
1.51
1.17
1.1
1.06
1.06
0.63
1.41
1.15
1.04
0.98
0.62
1.29
1.3
1.0
0.61
1.47
1.17
1.08
1.01
0.63
1.32
1.33
1.07
1.1
1.08
1.04
1.1
1.04
1.03
1.14
1.02
1.05
1.16
1.0
1.06
1.17
0.99
0.62
1.25
1.26
1.02
1.08
0.96
0.62
1.24
1.24
1.01
1.08
0.97
0.63
1.26
1.27
0.97
0.6
1.2
1.2
1.0
1.04
0.95
0.61
1.25
1.25
1.03
1.0
1.05
1.13
1.03
1.06
1.13
1.04
1.05
1.04
1.0
1.04
0.98
0.99
1.04
0.93
0.61
1.19
1.19
0.98
1.06
0.99
1.0
1.12
1.06
0.96
0.96
0.62
1.28
1.28
1.07
1.01
1.08
1.1
1.08
0.64
1.48
1.25
1.15
1.02
0.61
1.28
1.29
1.04
0.99
0.62
1.3
1.3
1.08
1.03
1.02
1.12
1.04
1.05
1.03
1.01
1.06
1.04
0.96
0.61
1.38
1.07
1.03
1.03
0.98
0.61
1.4
1.09
1.02
1.04
0.98
0.61
1.38
1.05
1.01
1.09
1.0
0.61
1.43
1.13
1.04
0.99
0.97
0.6
1.44
1.1
1.07
1.04
1.09
1.08
1.04
1.08
1.05
0.62
1.41
1.19
1.04
1.05
1.0
1.04
1.05
1.01
1.05
1.03
0.99
0.62
1.41
1.15
1.04
1.0
0.61
1.42
1.03
1.01
1.06
1.01
1.02
1.02
0.99
1.03
1.05
0.64
1.42
1.04
1.01
1.03
0.99
1.03
1.05
0.99
1.05
0.61
1.34
1.2
0.99
0.99
0.61
1.39
1.2
1.0
0.6
1.42
1.09
1.04
1.04
1.02
0.61
1.44
1.21
1.11
1.02
0.62
1.39
1.16
1.05
0.98
0.63
1.41
1.05
1.02
1.01
1.0
0.63
1.34
1.15
1.06
0.91
0.62
1.36
1.02
0.6
1.3
1.3
1.09
1.05
1.09
1.12
1.05
1.09
0.61
1.36
1.36
1.03
1.02
1.07
1.03
1.02
0.6
1.32
1.2
1.01
1.02
1.08
1.02
1.05
1.1
1.01
1.04
1.14
1.0
1.01
0.62
1.36
1.23
1.03
1.06
1.14
1.0
0.61
1.42
1.12
1.03
1.02
0.99
0.6
1.42
1.15
1.05
0.99
0.61
1.42
1.13
1.05
1.01
1.05
1.07
0.62
1.4
1.28
1.04
0.6
1.39
1.22
1.05
1.0
0.62
1.4
1.13
1.03
1.03
0.99
0.61
1.26
1.26
1.03
0.99
0.62
1.37
1.14
1.04
1.02
1.0
0.61
1.46
1.24
1.13
1.01
0.61
1.43
1.31
1.11
0.98
0.62
1.39
1.12
1.0
0.61
1.37
1.06
1.03
0.97
0.63
1.39
1.08
1.02
1.08
0.99
0.62
1.43
1.13
1.03
1.02
1.02
0.79
0.6
1.41
1.29
1.02
1.02
1.02
1.04
1.07
0.98
0.62
1.44
1.06
1.03
1.06
1.02
0.63
1.41
1.14
1.04
1.0
0.61
1.3
1.3
1.04
1.03
1.08
0.63
1.4
1.17
1.05
0.99
0.62
1.42
1.08
1.02
0.98
0.62
1.47
1.17
1.07
1.09
1.03
0.6
1.41
1.18
1.05
1.0
0.6
1.42
1.09
1.02
0.98
0.61
1.35
1.05
0.98
0.6
1.33
1.12
1.02
0.97
0.61
1.42
1.08
1.04
1.04
1.0
0.61
1.42
1.17
1.05
1.01
0.61
1.45
1.12
1.05
1.02
1.02
0.6
1.39
1.15
1.02
1.03
1.05
1.02
1.06
1.1
1.04
1.08
1.05
1.01
1.04
0.61
1.37
1.3
1.02
1.03
1.08
0.99
0.61
1.4
1.16
1.05
1.0
0.6
1.47
1.18
1.08
1.04
0.61
1.42
1.2
1.06
0.99
0.62
1.31
1.07
0.95
0.6
1.4
1.11
1.03
1.01
1.0
0.6
1.39
1.11
1.03
0.97
0.62
1.35
1.08
1.0
0.98
0.99
0.59
1.42
1.12
1.06
1.01
0.61
1.28
1.29
1.04
1.06
0.98
0.61
1.34
1.34
1.12
1.02
1.09
0.62
1.38
1.27
1.04
1.04
1.11
1.01
0.61
1.4
1.16
1.01
0.98
0.61
1.33
1.03
0.98
0.99
0.9
0.62
1.4
1.07
1.02
1.06
1.07
1.08
1.03
1.09
1.06
1.07
1.13
1.03
1.06
1.12
1.02
0.61
1.42
1.12
1.04
0.97
0.62
1.41
1.13
1.04
1.03
1.02
0.63
1.46
1.14
1.06
0.99
0.61
1.42
1.15
1.08
1.03
1.0
0.61
1.4
1.12
1.04
1.03
1.01
1.06
0.62
1.33
1.22
0.99
0.61
1.39
1.16
1.05
0.97
0.61
1.33
1.34
1.09
1.06
0.62
1.46
1.26
1.13
1.12
1.01
0.6
1.4
1.1
1.03
1.01
0.62
1.38
1.13
1.02
0.61
1.38
1.11
1.03
0.99
0.59
1.4
1.09
1.04
1.0
0.61
1.43
1.11
1.04
1.01
0.63
1.42
1.07
1.06
1.04
1.06
1.07
1.02
0.61
1.47
1.17
1.07
1.02
0.62
1.43
1.14
1.05
1.02
0.99
0.61
1.4
1.16
1.06
0.99
1.04
0.6
1.4
1.18
1.1
0.97
0.61
1.45
1.08
1.04
0.6
1.37
1.09
0.97
0.62
1.39
1.03
0.62
1.44
1.04
1.03
1.03
1.08
1.05
1.02
1.03
0.61
1.29
1.17
1.01
0.95
0.61
1.37
1.06
1.02
0.96
0.61
1.42
1.04
0.98
0.94
0.62
1.4
1.05
1.02
1.01
0.99
0.6
1.4
1.07
1.01
0.98
0.61
1.41
1.02
1.01
0.61
1.39
1.08
1.02
0.97
0.62
1.41
1.08
1.03
1.04
0.63
1.4
1.2
1.01
0.6
1.39
1.13
1.03
0.99
0.61
1.42
1.06
1.02
0.99
1.02
1.11
1.03
0.63
1.43
1.08
1.01
1.02
0.62
1.42
1.15
1.04
1.04
0.62
1.4
1.32
1.04
0.61
1.39
1.12
1.02
1.04
0.61
1.39
1.11
0.99
0.6
1.39
1.07
1.02
0.61
1.38
1.1
0.98
0.6
1.37
1.05
0.61
1.34
0.99
0.59
1.31
0.96
0.59
1.45
1.13
1.1
1.05
0.6
1.51
1.22
1.12
1.03
0.61
1.36
1.08
0.97
0.6
1.38
1.11
1.03
1.07
1.1
1.06
1.07
0.61
1.38
1.12
0.97
0.6
1.34
1.05
1.0
1.04
1.01
1.08
1.11
1.07
1.12
1.1
1.09
1.11
1.08
1.05
1.09
1.06
1.04
1.1
1.03
1.05
1.06
0.99
0.61
1.34
1.05
0.99
0.96
0.91
0.62
1.4
1.03
1.01
1.0
0.99
1.01
0.61
1.29
1.13
1.01
1.03
1.04
0.95
0.61
1.27
1.09
0.98
0.61
1.41
1.12
1.05
1.05
0.96
0.62
1.34
0.99
0.6
1.29
0.93
0.6
1.22
0.93
0.59
1.25
0.91
0.6
1.26
0.96
0.6
1.35
1.0
1.03
1.12
1.04
1.09
1.11
1.03
1.08
1.07
1.06
1.11
1.1
1.07
1.1
1.05
1.09
1.1
1.03
0.61
1.42
1.23
1.07
1.03
0.63
1.36
1.37
1.1
1.1
