sample,time_sec
89,0.89
198,1.98
306,3.06
422,4.22
532,5.32
577,5.77
633,6.33
744,7.44
866,8.66
979,9.79
1089,10.89
1214,12.14
1323,13.23
1438,14.38
1558,15.58
1668,16.68
1772,17.72
1896,18.96
2011,20.11
2123,21.23
2240,22.4
2356,23.56
2464,24.64
2583,25.83
2703,27.03
2883,28.83
2928,29.28
3034,30.34
3121,31.21
3254,32.54
3323,33.23
3373,33.73
3477,34.77
3587,35.87
3717,37.17
3817,38.17
3931,39.31
4029,40.29
4128,41.28
4220,42.2
4281,42.81
4338,43.38
4464,44.64
4560,45.6
4639,46.39
4695,46.95
4809,48.09
4914,49.14
5034,50.34
5150,51.5
5262,52.62
5376,53.76
5482,54.82
5584,55.84
5703,57.03
5808,58.08
5925,59.25
6046,60.46
6166,61.66
6283,62.83
6391,63.91
6501,65.01
6625,66.25
6732,67.32
6842,68.42
6993,69.93
7109,71.09
7216,72.16
7363,73.63
7428,74.28
7490,74.9
7548,75.48
7599,75.99
7749,77.49
7901,79.01
8036,80.36
8095,80.95
8156,81.56
8265,82.65
8401,84.01
8556,85.56
8669,86.69
8778,87.78
8895,88.95
9012,90.12
9129,91.29
9236,92.36
9345,93.45
9469,94.69
9593,95.93
9707,97.07
9809,98.09
9918,99.18
10044,100.44
10162,101.62
10274,102.74
10389,103.89
10546,105.46
10687,106.87
10810,108.1
10919,109.19
11036,110.36
11182,111.82
11316,113.16
11442,114.42
11566,115.66
11689,116.89
11816,118.16
11941,119.41
12061,120.61
12172,121.72
12299,122.99
12435,124.35
12558,125.58
12670,126.7
12783,127.83
12915,129.15
13016,130.16
13127,131.27
13264,132.64
13375,133.75
13522,135.22
13615,136.15
13710,137.1
13810,138.1
13905,139.05
14000,140.0
14118,141.18
14224,142.24
14326,143.26
14417,144.17
14518,145.18
14619,146.19
14719,147.19
14829,148.29
14932,149.32
15027,150.27
15128,151.28
15240,152.4
15348,153.48
15451,154.51
15550,155.5
15664,156.64
15777,157.77
15882,158.82
15993,159.93
16118,161.18
16227,162.27
16326,163.26
16450,164.5
16557,165.57
16629,166.29
16765,167.65
16871,168.71
16976,169.76
17081,170.81
17177,171.77
17268,172.68
17359,173.59
17450,174.5
17537,175.37
17631,176.31
17729,177.29
17831,178.31
17928,179.28
18033,180.33
18143,181.43
18250,182.5
18349,183.49
18452,184.52
18505,185.05
18563,185.63
18666,186.66
18763,187.63
18802,188.02
18869,188.69
18976,189.76
19091,190.91
19200,192.0
19235,192.35
19287,192.87
19421,194.21
19578,195.78
19711,197.11
19803,198.03
19901,199.01
20013,200.13
20056,200.56
20101,201.01
20227,202.27
20278,202.78
20321,203.21
20419,204.19
20466,204.66
20523,205.23
20649,206.49
20731,207.31
20890,208.9
20938,209.38
21033,210.33
21136,211.36
21205,212.05
21255,212.55
21336,213.36
21407,214.07
21476,214.76
21521,215.21
21572,215.72
21604,216.04
21681,216.81
21747,217.47
21797,217.97
21911,219.11
22018,220.18
22117,221.17
22224,222.24
22336,223.36
22447,224.47
22562,225.62
22675,226.75
22780,227.8
22878,228.78
22992,229.92
23123,231.23
23246,232.46
23371,233.71
23480,234.8
23598,235.98
23702,237.02
23749,237.49
23873,238.73
24020,240.2
24132,241.32
24263,242.63
24497,244.97
24596,245.96
24694,246.94
24766,247.66
24912,249.12
25164,251.64
25395,253.95
25500,255.0
25743,257.43
25981,259.81
26112,261.12
26235,262.35
26347,263.47
26463,264.63
26583,265.83
26696,266.96
26800,268.0
26847,268.47
26910,269.1
27023,270.23
27200,272.0
27377,273.77
27522,275.22
27667,276.67
27821,278.21
27888,278.88
28093,280.93
28304,283.04
28513,285.13
28806,288.06
29099,290.99
29267,292.67
29380,293.8
29484,294.84
29591,295.91
29702,297.02
29736,297.36
29802,298.02
29906,299.06
30001,300.01
30101,301.01
30206,302.06
30309,303.09
30421,304.21
30528,305.28
30628,306.28
30735,307.35
30846,308.46
30952,309.52
31054,310.54
31159,311.59
31268,312.68
31375,313.75
31474,314.74
31571,315.71
31673,316.73
31780,317.8
31881,318.81
31986,319.86
32096,320.96
32200,322.0
32301,323.01
32409,324.09
32519,325.19
32620,326.2
32727,327.27
32834,328.34
32934,329.34
33029,330.29
33120,331.2
33224,332.24
33352,333.52
33471,334.71
33591,335.91
33698,336.98
33796,337.96
33885,338.85
33976,339.76
34081,340.81
34192,341.92
34303,343.03
34415,344.15
34531,345.31
34647,346.47
34759,347.59
34874,348.74
34982,349.82
35086,350.86
35192,351.92
35305,353.05
35421,354.21
35532,355.32
35645,356.45
35754,357.54
35862,358.62
35977,359.77
36093,360.93
36205,362.05
36315,363.15
36421,364.21
36526,365.26
36629,366.29
36731,367.31
36835,368.35
36939,369.39
37040,370.4
37151,371.51
37261,372.61
37370,373.7
37474,374.74
37573,375.73
37673,376.73
37777,377.77
37880,378.8
37980,379.8
38083,380.83
38182,381.82
38281,382.81
38385,383.85
38489,384.89
38591,385.91
38689,386.89
38789,387.89
38894,388.94
38997,389.97
39098,390.98
39199,391.99
39298,392.98
39397,393.97
39500,395.0
39603,396.03
39703,397.03
39803,398.03
39908,399.08
40014,400.14
40117,401.17
40216,402.16
40316,403.16
40419,404.19
40520,405.2
40620,406.2
40724,407.24
40827,408.27
40926,409.26
41025,410.25
41128,411.28
41233,412.33
41336,413.36
41438,414.38
41529,415.29
41616,416.16
41711,417.11
41863,418.63
41971,419.71
42080,420.8
42171,421.71
42278,422.78
42386,423.86
42491,424.91
42597,425.97
42690,426.9
42788,427.88
42920,429.2
43032,430.32
43145,431.45
43252,432.52
43354,433.54
43455,434.55
43546,435.46
43637,436.37
43724,437.24
43810,438.1
43914,439.14
44035,440.35
44146,441.46
44254,442.54
44365,443.65
44475,444.75
44583,445.83
44691,446.91
44799,447.99
44905,449.05
45014,450.14
45122,451.22
45230,452.3
45338,453.38
45447,454.47
45557,455.57
45663,456.63
45776,457.76
45888,458.88
46002,460.02
46114,461.14
46226,462.26
46336,463.36
46446,464.46
46557,465.57
46664,466.64
46770,467.7
46877,468.77
46982,469.82
47090,470.9
47202,472.02
47314,473.14
47429,474.29
47540,475.4
47647,476.47
47756,477.56
47867,478.67
47968,479.68
48074,480.74
48189,481.89
48298,482.98
48402,484.02
48503,485.03
48597,485.97
48690,486.9
48791,487.91
48908,489.08
49019,490.19
49129,491.29
49241,492.41
49345,493.45
49443,494.43
49543,495.43
49658,496.58
49766,497.66
49875,498.75
49985,499.85
50092,500.92
50200,502.0
50307,503.07
50408,504.08
50514,505.14
50619,506.19
50723,507.23
50824,508.24
50926,509.26
51029,510.29
51127,511.27
51230,512.3
51325,513.25
51419,514.19
51522,515.22
51625,516.25
51728,517.28
51834,518.34
51930,519.3
52023,520.23
52121,521.21
52223,522.23
52329,523.29
52427,524.27
52524,525.24
52625,526.25
52729,527.29
52833,528.33
52930,529.3
53030,530.3
53130,531.3
53233,532.33
53325,533.25
53421,534.21
53520,535.2
53621,536.21
53721,537.21
53821,538.21
53915,539.15
54009,540.09
54105,541.05
54198,541.98
54297,542.97
54396,543.96
54488,544.88
54580,545.8
54668,546.68
54752,547.52
54842,548.42
54938,549.38
55033,550.33
55130,551.3
55228,552.28
55326,553.26
55418,554.18
55511,555.11
55606,556.06
55701,557.01
55800,558.0
55898,558.98
55997,559.97
56069,560.69
56178,561.78
56277,562.77
56376,563.76
56460,564.6
56545,565.45
56643,566.43
56737,567.37
56833,568.33
56932,569.32
57034,570.34
57137,571.37
57238,572.38
57335,573.35
57432,574.32
57529,575.29
57625,576.25
57725,577.25
57828,578.28
57927,579.27
58032,580.32
58142,581.42
58253,582.53
58352,583.52
58454,584.54
58561,585.61
58666,586.66
58770,587.7
58869,588.69
58973,589.73
59079,590.79
59181,591.81
59289,592.89
59397,593.97
59503,595.03
59614,596.14
59724,597.24
59831,598.31
59929,599.29
60034,600.34
60134,601.34
60241,602.41
60348,603.48
60456,604.56
60562,605.62
60665,606.65
60771,607.71
60879,608.79
60981,609.81
61081,610.81
61188,611.88
61298,612.98
61401,614.01
61506,615.06
61617,616.17
61726,617.26
61833,618.33
61941,619.41
62048,620.48
62149,621.49
62256,622.56
62362,623.62
62475,624.75
62586,625.86
62683,626.83
62779,627.79
62887,628.87
62995,629.95
63096,630.96
63197,631.97
63306,633.06
63412,634.12
63514,635.14
63605,636.05
63696,636.96
63776,637.76
63836,638.36
63890,638.9
63938,639.38
63991,639.91
64055,640.55
64120,641.2
64183,641.83
64246,642.46
64326,643.26
64404,644.04
64480,644.8
64558,645.58
64635,646.35
64712,647.12
64791,647.91
64867,648.67
64942,649.42
65028,650.28
65092,650.92
65157,651.57
65234,652.34
65312,653.12
65376,653.76
65443,654.43
65521,655.21
65601,656.01
65682,656.82
65764,657.64
65848,658.48
65936,659.36
66025,660.25
66113,661.13
66195,661.95
66278,662.78
66359,663.59
66446,664.46
66542,665.42
66645,666.45
66746,667.46
66849,668.49
66953,669.53
67056,670.56
67160,671.6
67264,672.64
67364,673.64
67459,674.59
67553,675.53
67654,676.54
67757,677.57
67856,678.56
67953,679.53
68051,680.51
68145,681.45
68230,682.3
68313,683.13
68400,684.0
68494,684.94
68587,685.87
68680,686.8
68773,687.73
68868,688.68
68963,689.63
69059,690.59
69152,691.52
69243,692.43
69335,693.35
69436,694.36
69536,695.36
69635,696.35
69730,697.3
69825,698.25
69923,699.23
70024,700.24
70125,701.25
70224,702.24
70323,703.23
70420,704.2
70514,705.14
70616,706.16
70717,707.17
70818,708.18
70914,709.14
71008,710.08
71101,711.01
71199,711.99
71297,712.97
71392,713.92
71486,714.86
71583,715.83
71682,716.82
71781,717.81
71878,718.78
71972,719.72
72067,720.67
72166,721.66
72264,722.64
72360,723.6
72454,724.54
72550,725.5
72647,726.47
72745,727.45
72841,728.41
72935,729.35
73033,730.33
73133,731.33
73234,732.34
73331,733.31
73427,734.27
73528,735.28
73628,736.28
73728,737.28
73824,738.24
73921,739.21
74021,740.21
74122,741.22
74218,742.18
74314,743.14
74413,744.13
74513,745.13
74609,746.09
74703,747.03
74800,748.0
74898,748.98
74996,749.96
75090,750.9
75184,751.84
75284,752.84
75386,753.86
75483,754.83
75579,755.79
75679,756.79
75779,757.79
75879,758.79
75974,759.74
76066,760.66
76161,761.61
76257,762.57
76351,763.51
76442,764.42
76532,765.32
76626,766.26
76721,767.21
76816,768.16
76907,769.07
76999,769.99
77093,770.93
77186,771.86
77276,772.76
77364,773.64
77455,774.55
77548,775.48
77640,776.4
77729,777.29
77821,778.21
77915,779.15
78008,780.08
78098,780.98
78188,781.88
78281,782.81
78375,783.75
78467,784.67
78557,785.57
78649,786.49
78742,787.42
78836,788.36
78927,789.27
79016,790.16
79108,791.08
79201,792.01
79294,792.94
79386,793.86
79476,794.76
79569,795.69
79664,796.64
79760,797.6
79852,798.52
79947,799.47
80042,800.42
80137,801.37
80232,802.32
80323,803.23
80416,804.16
80509,805.09
80601,806.01
80692,806.92
80782,807.82
80876,808.76
80972,809.72
81071,810.71
81167,811.67
81262,812.62
81363,813.63
81463,814.63
81562,815.62
81657,816.57
81749,817.49
81842,818.42
81936,819.36
82032,820.32
82128,821.28
82223,822.23
82320,823.2
82421,824.21
82521,825.21
82619,826.19
82714,827.14
82811,828.11
82908,829.08
83004,830.04
83097,830.97
83190,831.9
83286,832.86
83383,833.83
83480,834.8
83573,835.73
83670,836.7
83767,837.67
83861,838.61
83953,839.53
84047,840.47
84141,841.41
84233,842.33
84322,843.22
84415,844.15
84509,845.09
84601,846.01
84692,846.92
84788,847.88
84884,848.84
84975,849.75
85066,850.66
85161,851.61
85257,852.57
85349,853.49
85439,854.39
85533,855.33
85629,856.29
85722,857.22
85812,858.12
85907,859.07
86004,860.04
86098,860.98
86189,861.89
86283,862.83
86378,863.78
86472,864.72
86562,865.62
86655,866.55
86750,867.5
86844,868.44
86934,869.34
87027,870.27
87121,871.21
87215,872.15
87306,873.06
87400,874.0
87494,874.94
87588,875.88
87679,876.79
87772,877.72
87868,878.68
87963,879.63
88055,880.55
88150,881.5
88246,882.46
88339,883.39
88430,884.3
88524,885.24
88618,886.18
88712,887.12
88803,888.03
88897,888.97
88993,889.93
89089,890.89
89180,891.8
89272,892.72
89366,893.66
89462,894.62
89554,895.54
89648,896.48
89744,897.44
89842,898.42
89934,899.34
90027,900.27
90120,901.2
90214,902.14
90303,903.03
90395,903.95
90491,904.91
90587,905.87
90680,906.8
90775,907.75
90870,908.7
90964,909.64
91054,910.54
91146,911.46
91239,912.39
91333,913.33
91422,914.22
91512,915.12
91606,916.06
91699,916.99
91788,917.88
91878,918.78
91970,919.7
92061,920.61
92152,921.52
92241,922.41
92332,923.32
92427,924.27
92522,925.22
92613,926.13
92705,927.05
92800,928.0
92897,928.97
92990,929.9
93082,930.82
93174,931.74
93266,932.66
93358,933.58
93448,934.48
93540,935.4
93633,936.33
93727,937.27
93817,938.17
93906,939.06
93998,939.98
94092,940.92
94181,941.81
94272,942.72
94364,943.64
94457,944.57
94547,945.47
94637,946.37
94730,947.3
94824,948.24
94914,949.14
95008,950.08
95103,951.03
95196,951.96
95285,952.85
95374,953.74
95467,954.67
95558,955.58
95645,956.45
95735,957.35
95829,958.29
95924,959.24
96016,960.16
96104,961.04
96198,961.98
96295,962.95
96391,963.91
96484,964.84
96572,965.72
96660,966.6
96753,967.53
96846,968.46
96939,969.39
97028,970.28
97118,971.18
97209,972.09
97300,973.0
97387,973.87
97478,974.78
97575,975.75
97674,976.74
97767,977.67
97858,978.58
97952,979.52
98045,980.45
98133,981.33
98224,982.24
98315,983.15
98406,984.06
98492,984.92
98582,985.82
98675,986.75
98766,987.66
98855,988.55
98945,989.45
99038,990.38
99128,991.28
99214,992.14
99304,993.04
99398,993.98
99494,994.94
99585,995.85
99679,996.79
99774,997.74
99867,998.67
99956,999.56
100049,1000.49
100144,1001.44
100236,1002.36
100323,1003.23
100419,1004.19
100514,1005.14
100607,1006.07
100696,1006.96
100789,1007.89
100883,1008.83
100975,1009.75
101063,1010.63
101158,1011.58
101252,1012.52
101343,1013.43
101431,1014.31
101527,1015.27
101623,1016.23
101717,1017.17
101807,1018.07
101900,1019.0
101996,1019.96
102088,1020.88
102175,1021.75
102266,1022.66
102358,1023.58
102452,1024.52
102542,1025.42
102633,1026.33
102728,1027.28
102826,1028.26
102920,1029.2
103009,1030.09
103102,1031.02
103197,1031.97
103291,1032.91
103381,1033.81
103471,1034.71
103562,1035.62
103653,1036.53
103740,1037.4
103829,1038.29
103922,1039.22
104019,1040.19
104116,1041.16
104207,1042.07
104297,1042.97
104390,1043.9
104483,1044.83
104574,1045.74
104661,1046.61
104752,1047.52
104843,1048.43
104933,1049.33
105021,1050.21
105113,1051.13
105207,1052.07
105299,1052.99
105388,1053.88
105479,1054.79
105570,1055.7
105660,1056.6
105746,1057.46
105836,1058.36
105927,1059.27
106016,1060.16
106102,1061.02
106191,1061.91
106281,1062.81
106372,1063.72
106459,1064.59
106549,1065.49
106641,1066.41
106734,1067.34
106822,1068.22
106911,1069.11
107001,1070.01
107093,1070.93
107181,1071.81
107268,1072.68
107359,1073.59
107448,1074.48
107535,1075.35
107620,1076.2
107708,1077.08
107799,1077.99
107899,1078.99
108005,1080.05
108105,1081.05
108213,1082.13
108321,1083.21
108417,1084.17
108508,1085.08
108603,1086.03
108702,1087.02
108802,1088.02
108898,1088.98
108994,1089.94
109088,1090.88
109174,1091.74
109253,1092.53
109335,1093.35
109418,1094.18
109497,1094.97
109581,1095.81
109671,1096.71
109760,1097.6
109845,1098.45
109931,1099.31
110023,1100.23
110114,1101.14
110199,1101.99
110284,1102.84
110373,1103.73
110464,1104.64
110552,1105.52
110636,1106.36
110724,1107.24
110814,1108.14
110903,1109.03
110988,1109.88
111076,1110.76
111169,1111.69
111259,1112.59
111345,1113.45
111435,1114.35
111525,1115.25
111616,1116.16
111701,1117.01
111788,1117.88
111879,1118.79
111970,1119.7
112055,1120.55
112143,1121.43
112234,1122.34
112325,1123.25
112412,1124.12
112504,1125.04
112597,1125.97
112687,1126.87
112773,1127.73
112864,1128.64
112956,1129.56
113045,1130.45
113130,1131.3
113222,1132.22
113316,1133.16
113407,1134.07
113493,1134.93
113585,1135.85
113676,1136.76
113767,1137.67
113855,1138.55
113946,1139.46
114039,1140.39
114131,1141.31
114218,1142.18
114310,1143.1
114402,1144.02
114494,1144.94
114581,1145.81
114671,1146.71
114763,1147.63
114857,1148.57
114945,1149.45
115031,1150.31
115125,1151.25
115217,1152.17
115308,1153.08
115394,1153.94
115485,1154.85
115577,1155.77
115667,1156.67
115753,1157.53
115846,1158.46
115940,1159.4
116033,1160.33
116119,1161.19
116209,1162.09
116300,1163.0
116392,1163.92
116487,1164.87
116581,1165.81
116670,1166.7
116760,1167.6
116854,1168.54
116949,1169.49
117043,1170.43
117134,1171.34
117227,1172.27
117320,1173.2
117413,1174.13
117502,1175.02
117592,1175.92
117687,1176.87
117786,1177.86
117881,1178.81
117973,1179.73
118066,1180.66
118160,1181.6
118255,1182.55
118346,1183.46
118435,1184.35
118527,1185.27
118621,1186.21
118711,1187.11
118801,1188.01
118895,1188.95
118991,1189.91
119089,1190.89
119179,1191.79
119270,1192.7
119363,1193.63
119455,1194.55
119539,1195.39
119628,1196.28
119720,1197.2
119818,1198.18
119915,1199.15
120007,1200.07
120103,1201.03
120203,1202.03
120297,1202.97
120381,1203.81
120469,1204.69
120562,1205.62
120660,1206.6
120755,1207.55
120853,1208.53
120953,1209.53
121050,1210.5
121145,1211.45
121234,1212.34
121327,1213.27
121420,1214.2
121512,1215.12
121603,1216.03
121690,1216.9
121781,1217.81
121872,1218.72
121968,1219.68
122065,1220.65
122156,1221.56
122249,1222.49
122344,1223.44
122441,1224.41
122531,1225.31
122618,1226.18
122708,1227.08
122798,1227.98
122889,1228.89
122980,1229.8
123074,1230.74
123173,1231.73
123270,1232.7
123360,1233.6
123453,1234.53
123544,1235.44
123636,1236.36
123725,1237.25
123814,1238.14
123905,1239.05
123999,1239.99
124093,1240.93
124182,1241.82
124271,1242.71
124364,1243.64
124456,1244.56
124546,1245.46
124632,1246.32
124721,1247.21
124811,1248.11
124902,1249.02
124990,1249.9
125080,1250.8
125173,1251.73
125265,1252.65
125355,1253.55
125443,1254.43
125535,1255.35
125629,1256.29
125722,1257.22
125812,1258.12
125901,1259.01
125983,1259.83
126065,1260.65
126159,1261.59
126246,1262.46
126338,1263.38
126419,1264.19
126497,1264.97
126572,1265.72
126649,1266.49
126738,1267.38
126836,1268.36
126930,1269.3
127019,1270.19
127101,1271.01
127186,1271.86
127278,1272.78
127369,1273.69
127459,1274.59
127547,1275.47
127635,1276.35
127733,1277.33
127829,1278.29
127923,1279.23
128015,1280.15
128104,1281.04
128190,1281.9
128283,1282.83
128377,1283.77
128472,1284.72
128555,1285.55
128637,1286.37
128724,1287.24
128812,1288.12
128897,1288.97
128976,1289.76
129056,1290.56
129140,1291.4
129230,1292.3
129323,1293.23
129418,1294.18
129510,1295.1
129600,1296.0
129691,1296.91
129787,1297.87
129881,1298.81
129970,1299.7
130057,1300.57
130149,1301.49
130243,1302.43
130336,1303.36
130423,1304.23
130512,1305.12
130604,1306.04
130695,1306.95
130787,1307.87
130875,1308.75
130961,1309.61
131051,1310.51
131141,1311.41
131234,1312.34
131327,1313.27
131418,1314.18
131508,1315.08
131594,1315.94
131684,1316.84
131776,1317.76
131867,1318.67
131956,1319.56
132045,1320.45
132136,1321.36
132229,1322.29
132321,1323.21
132412,1324.12
132498,1324.98
132583,1325.83
132672,1326.72
132762,1327.62
132853,1328.53
132944,1329.44
133033,1330.33
133121,1331.21
133211,1332.11
133302,1333.02
133391,1333.91
133480,1334.8
133569,1335.69
133662,1336.62
133753,1337.53
133839,1338.39
133928,1339.28
134019,1340.19
134110,1341.1
134198,1341.98
134285,1342.85
134375,1343.75
134467,1344.67
134556,1345.56
134641,1346.41
134731,1347.31
134821,1348.21
134910,1349.1
134999,1349.99
135082,1350.82
135169,1351.69
135258,1352.58
135346,1353.46
135436,1354.36
135524,1355.24
135615,1356.15
135706,1357.06
135799,1357.99
135892,1358.92
135978,1359.78
136062,1360.62
136150,1361.5
136238,1362.38
136325,1363.25
136407,1364.07
136494,1364.94
136583,1365.83
136673,1366.73
136763,1367.63
136848,1368.48
136936,1369.36
137025,1370.25
137113,1371.13
137200,1372.0
137282,1372.82
137364,1373.64
137452,1374.52
137540,1375.4
137631,1376.31
137720,1377.2
137807,1378.07
137900,1379.0
137995,1379.95
138087,1380.87
138174,1381.74
138265,1382.65
138358,1383.58
138451,1384.51
138541,1385.41
138629,1386.29
138720,1387.2
138812,1388.12
138904,1389.04
138992,1389.92
139077,1390.77
139163,1391.63
139255,1392.55
139351,1393.51
139448,1394.48
139543,1395.43
139632,1396.32
139721,1397.21
139813,1398.13
139905,1399.05
139997,1399.97
140085,1400.85
140171,1401.71
140262,1402.62
140355,1403.55
140447,1404.47
140536,1405.36
140622,1406.22
140714,1407.14
140806,1408.06
140900,1409.0
140990,1409.9
141082,1410.82
141175,1411.75
141267,1412.67
141359,1413.59
141450,1414.5
141540,1415.4
141631,1416.31
141723,1417.23
141814,1418.14
141904,1419.04
141996,1419.96
142087,1420.87
142178,1421.78
142262,1422.62
142348,1423.48
142435,1424.35
142522,1425.22
142610,1426.1
142693,1426.93
142778,1427.78
142867,1428.67
142958,1429.58
143050,1430.5
143139,1431.39
143228,1432.28
143320,1433.2
143412,1434.12
143502,1435.02
143588,1435.88
143678,1436.78
143768,1437.68
143855,1438.55
143939,1439.39
144029,1440.29
144120,1441.2
144208,1442.08
144295,1442.95
144382,1443.82
144472,1444.72
144561,1445.61
144643,1446.43
144726,1447.26
144811,1448.11
144895,1448.95
144981,1449.81
145061,1450.61
145141,1451.41
145227,1452.27
145315,1453.15
145403,1454.03
145489,1454.89
145578,1455.78
145673,1456.73
145774,1457.74
145869,1458.69
145959,1459.59
146051,1460.51
146142,1461.42
146236,1462.36
146328,1463.28
146414,1464.14
146504,1465.04
146595,1465.95
146688,1466.88
146784,1467.84
146874,1468.74
146968,1469.68
147065,1470.65
147162,1471.62
147255,1472.55
147345,1473.45
147436,1474.36
147529,1475.29
147624,1476.24
147714,1477.14
147803,1478.03
147893,1478.93
147985,1479.85
148076,1480.76
148163,1481.63
148246,1482.46
148335,1483.35
148425,1484.25
148509,1485.09
148592,1485.92
148680,1486.8
148769,1487.69
148859,1488.59
148940,1489.4
149025,1490.25
149113,1491.13
149201,1492.01
149285,1492.85
149367,1493.67
149451,1494.51
149537,1495.37
149624,1496.24
149708,1497.08
149790,1497.9
149879,1498.79
149969,1499.69
150059,1500.59
150148,1501.48
150231,1502.31
150321,1503.21
150408,1504.08
150494,1504.94
150574,1505.74
150654,1506.54
150742,1507.42
150828,1508.28
150910,1509.1
150994,1509.94
151078,1510.78
151164,1511.64
151252,1512.52
151338,1513.38
151421,1514.21
151504,1515.04
151594,1515.94
151686,1516.86
151775,1517.75
151860,1518.6
151948,1519.48
152041,1520.41
152134,1521.34
152225,1522.25
152312,1523.12
152402,1524.02
152495,1524.95
152587,1525.87
152675,1526.75
152758,1527.58
152849,1528.49
152940,1529.4
153032,1530.32
153123,1531.23
153207,1532.07
153294,1532.94
153383,1533.83
153472,1534.72
153563,1535.63
153653,1536.53
153742,1537.42
153832,1538.32
153926,1539.26
154019,1540.19
154108,1541.08
154192,1541.92
154280,1542.8
154369,1543.69
154459,1544.59
154551,1545.51
154640,1546.4
154726,1547.26
154817,1548.17
154913,1549.13
155003,1550.03
155090,1550.9
155172,1551.72
155261,1552.61
155350,1553.5
155439,1554.39
155521,1555.21
155608,1556.08
155695,1556.95
155783,1557.83
155872,1558.72
155955,1559.55
156044,1560.44
156132,1561.32
156222,1562.22
156309,1563.09
156392,1563.92
156477,1564.77
156566,1565.66
156656,1566.56
156749,1567.49
156839,1568.39
156920,1569.2
157007,1570.07
157095,1570.95
157186,1571.86
157277,1572.77
157366,1573.66
157452,1574.52
157541,1575.41
157635,1576.35
157724,1577.24
157808,1578.08
157897,1578.97
157991,1579.91
158091,1580.91
158188,1581.88
158280,1582.8
158365,1583.65
158460,1584.6
158555,1585.55
158652,1586.52
158746,1587.46
158834,1588.34
158921,1589.21
159013,1590.13
159113,1591.13
159210,1592.1
159306,1593.06
159399,1593.99
159493,1594.93
159588,1595.88
159682,1596.82
159771,1597.71
159856,1598.56
159946,1599.46
160037,1600.37
160130,1601.3
160222,1602.22
160311,1603.11
160398,1603.98
160488,1604.88
160576,1605.76
160664,1606.64
160747,1607.47
160830,1608.3
160920,1609.2
161009,1610.09
161099,1610.99
161185,1611.85
161270,1612.7
161362,1613.62
161459,1614.59
161557,1615.57
161650,1616.5
161744,1617.44
161841,1618.41
161939,1619.39
162031,1620.31
162121,1621.21
162213,1622.13
162305,1623.05
162399,1623.99
162491,1624.91
162586,1625.86
162685,1626.85
162781,1627.81
162873,1628.73
162963,1629.63
163053,1630.53
163150,1631.5
163251,1632.51
163346,1633.46
163438,1634.38
163531,1635.31
163628,1636.28
163723,1637.23
163813,1638.13
163907,1639.07
164002,1640.02
164098,1640.98
164193,1641.93
164284,1642.84
164373,1643.73
164465,1644.65
164560,1645.6
164651,1646.51
164742,1647.42
164831,1648.31
164922,1649.22
165008,1650.08
165094,1650.94
165184,1651.84
165276,1652.76
165362,1653.62
165442,1654.42
165528,1655.28
165613,1656.13
165694,1656.94
165778,1657.78
165865,1658.65
165946,1659.46
166032,1660.32
166130,1661.3
166229,1662.29
166324,1663.24
166414,1664.14
166494,1664.94
166580,1665.8
166662,1666.62
166746,1667.46
166838,1668.38
166929,1669.29
167008,1670.08
167085,1670.85
167164,1671.64
167250,1672.5
167341,1673.41
167425,1674.25
167507,1675.07
167591,1675.91
167682,1676.82
167773,1677.73
167864,1678.64
167954,1679.54
168039,1680.39
168130,1681.3
168223,1682.23
168319,1683.19
168415,1684.15
168511,1685.11
168603,1686.03
168695,1686.95
168792,1687.92
168889,1688.89
168986,1689.86
169083,1690.83
169178,1691.78
169271,1692.71
169362,1693.62
169451,1694.51
169541,1695.41
169636,1696.36
169735,1697.35
169836,1698.36
169932,1699.32
170024,1700.24
170115,1701.15
170208,1702.08
170302,1703.02
170395,1703.95
170489,1704.89
170581,1705.81
170674,1706.74
170773,1707.73
170873,1708.73
170971,1709.71
171064,1710.64
171154,1711.54
171244,1712.44
171334,1713.34
171421,1714.21
171512,1715.12
171614,1716.14
171725,1717.25
171839,1718.39
171945,1719.45
172037,1720.37
172124,1721.24
172218,1722.18
172317,1723.17
172416,1724.16
172508,1725.08
172604,1726.04
172703,1727.03
172804,1728.04
172900,1729.0
172991,1729.91
173085,1730.85
173179,1731.79
173272,1732.72
173363,1733.63
173450,1734.5
173541,1735.41
173633,1736.33
173726,1737.26
173816,1738.16
173898,1738.98
173988,1739.88
174083,1740.83
174193,1741.93
174304,1743.04
174405,1744.05
174503,1745.03
174596,1745.96
174687,1746.87
174771,1747.71
174854,1748.54
174945,1749.45
175039,1750.39
175140,1751.4
175240,1752.4
175334,1753.34
175429,1754.29
175523,1755.23
175615,1756.15
175699,1756.99
175788,1757.88
175878,1758.78
175972,1759.72
176066,1760.66
176156,1761.56
176244,1762.44
176336,1763.36
176430,1764.3
176524,1765.24
176618,1766.18
176708,1767.08
176796,1767.96
176886,1768.86
176979,1769.79
177072,1770.72
177163,1771.63
177257,1772.57
177355,1773.55
177452,1774.52
177547,1775.47
177633,1776.33
177722,1777.22
177813,1778.13
177905,1779.05
177996,1779.96
178085,1780.85
178173,1781.73
178269,1782.69
178364,1783.64
178453,1784.53
178542,1785.42
178636,1786.36
178730,1787.3
178823,1788.23
178911,1789.11
178999,1789.99
179090,1790.9
179184,1791.84
179276,1792.76
179365,1793.65
179452,1794.52
179543,1795.43
179636,1796.36
179728,1797.28
179820,1798.2
179907,1799.07
179996,1799.96
180089,1800.89
180183,1801.83
180273,1802.73
180357,1803.57
180438,1804.38
180527,1805.27
180619,1806.19
180720,1807.2
180820,1808.2
180914,1809.14
181008,1810.08
181106,1811.06
181201,1812.01
181297,1812.97
181388,1813.88
181473,1814.73
181568,1815.68
181661,1816.61
181755,1817.55
181845,1818.45
181935,1819.35
182027,1820.27
182118,1821.18
182212,1822.12
182304,1823.04
182393,1823.93
182477,1824.77
182567,1825.67
182658,1826.58
182752,1827.52
182844,1828.44
182931,1829.31
183023,1830.23
183118,1831.18
183216,1832.16
183313,1833.13
183405,1834.05
183498,1834.98
183598,1835.98
183695,1836.95
183787,1837.87
183876,1838.76
183967,1839.67
184060,1840.6
184151,1841.51
184234,1842.34
184324,1843.24
184411,1844.11
184501,1845.01
184589,1845.89
184671,1846.71
184762,1847.62
184855,1848.55
184950,1849.5
185042,1850.42
185130,1851.3
185221,1852.21
185310,1853.1
185398,1853.98
185486,1854.86
185573,1855.73
185665,1856.65
185757,1857.57
185850,1858.5
185940,1859.4
186032,1860.32
186130,1861.3
186227,1862.27
186325,1863.25
186417,1864.17
186506,1865.06
186597,1865.97
186689,1866.89
186780,1867.8
186871,1868.71
186965,1869.65
187065,1870.65
187167,1871.67
187264,1872.64
187354,1873.54
187445,1874.45
187539,1875.39
187639,1876.39
187736,1877.36
187829,1878.29
187929,1879.29
188041,1880.41
188151,1881.51
188254,1882.54
188346,1883.46
188440,1884.4
188532,1885.32
188627,1886.27
188721,1887.21
188814,1888.14
188914,1889.14
189011,1890.11
189104,1891.04
189196,1891.96
189284,1892.84
189377,1893.77
189474,1894.74
189570,1895.7
189663,1896.63
189759,1897.59
189857,1898.57
189953,1899.53
190046,1900.46
190135,1901.35
190224,1902.24
190316,1903.16
190411,1904.11
190506,1905.06
190599,1905.99
190688,1906.88
190783,1907.83
190884,1908.84
190984,1909.84
191080,1910.8
191171,1911.71
191260,1912.6
191355,1913.55
191450,1914.5
191544,1915.44
191634,1916.34
191720,1917.2
191812,1918.12
191905,1919.05
191998,1919.98
192089,1920.89
192177,1921.77
192266,1922.66
192358,1923.58
192451,1924.51
192540,1925.4
192629,1926.29
192721,1927.21
192816,1928.16
192911,1929.11
192998,1929.98
193085,1930.85
193174,1931.74
193269,1932.69
193366,1933.66
193458,1934.58
193550,1935.5
193646,1936.46
193742,1937.42
193836,1938.36
193925,1939.25
194014,1940.14
194103,1941.03
194193,1941.93
194281,1942.81
194370,1943.7
194462,1944.62
194556,1945.56
194647,1946.47
194736,1947.36
194824,1948.24
194906,1949.06
195001,1950.01
195093,1950.93
195186,1951.86
195278,1952.78
195373,1953.73
195474,1954.74
195572,1955.72
195668,1956.68
195758,1957.58
195848,1958.48
195938,1959.38
196030,1960.3
196123,1961.23
196211,1962.11
196300,1963.0
196392,1963.92
196491,1964.91
196590,1965.9
196685,1966.85
196775,1967.75
196870,1968.7
196965,1969.65
197059,1970.59
197148,1971.48
197237,1972.37
197327,1973.27
197416,1974.16
197508,1975.08
197598,1975.98
197689,1976.89
197783,1977.83
197885,1978.85
197991,1979.91
198094,1980.94
198191,1981.91
198287,1982.87
198381,1983.81
198472,1984.72
198561,1985.61
198652,1986.52
198745,1987.45
198841,1988.41
198937,1989.37
199030,1990.3
199120,1991.2
199216,1992.16
199314,1993.14
199411,1994.11
199504,1995.04
199595,1995.95
199689,1996.89
199785,1997.85
199882,1998.82
199975,1999.75
200066,2000.66
200162,2001.62
200258,2002.58
200356,2003.56
200452,2004.52
200542,2005.42
200634,2006.34
200728,2007.28
200823,2008.23
200914,2009.14
201004,2010.04
201098,2010.98
201195,2011.95
201292,2012.92
201385,2013.85
201474,2014.74
201567,2015.67
201661,2016.61
201753,2017.53
201843,2018.43
201931,2019.31
202023,2020.23
202117,2021.17
202214,2022.14
202302,2023.02
202390,2023.9
202477,2024.77
202567,2025.67
202664,2026.64
202756,2027.56
202850,2028.5
202946,2029.46
203042,2030.42
203133,2031.33
203221,2032.21
203309,2033.09
203402,2034.02
203492,2034.92
203578,2035.78
203666,2036.66
203756,2037.56
203847,2038.47
203936,2039.36
204021,2040.21
204107,2041.07
204196,2041.96
204280,2042.8
204364,2043.64
204451,2044.51
204540,2045.4
204630,2046.3
204718,2047.18
204812,2048.12
204909,2049.09
205002,2050.02
205092,2050.92
205183,2051.83
205276,2052.76
205368,2053.68
205462,2054.62
205555,2055.55
205645,2056.45
205738,2057.38
205836,2058.36
205934,2059.34
206031,2060.31
206125,2061.25
206220,2062.2
206316,2063.16
206411,2064.11
206503,2065.03
206593,2065.93
206686,2066.86
206782,2067.82
206877,2068.77
206967,2069.67
207057,2070.57
207149,2071.49
207245,2072.45
207339,2073.39
207431,2074.31
207516,2075.16
207610,2076.1
207706,2077.06
207809,2078.09
207907,2079.07
208001,2080.01
208100,2081.0
208203,2082.03
208306,2083.06
208402,2084.02
208491,2084.91
208583,2085.83
208676,2086.76
208770,2087.7
208864,2088.64
208954,2089.54
209048,2090.48
209150,2091.5
209251,2092.51
209347,2093.47
209438,2094.38
209533,2095.33
209629,2096.29
209728,2097.28
209823,2098.23
209914,2099.14
210007,2100.07
210102,2101.02
210195,2101.95
210291,2102.91
210390,2103.9
210490,2104.9
210583,2105.83
210673,2106.73
210766,2107.66
210860,2108.6
210953,2109.53
211042,2110.42
211130,2111.3
211222,2112.22
211317,2113.17
211411,2114.11
211500,2115.0
211582,2115.82
211676,2116.76
211770,2117.7
211866,2118.66
211962,2119.62
212051,2120.51
212135,2121.35
212231,2122.31
212325,2123.25
212420,2124.2
212513,2125.13
212605,2126.05
212696,2126.96
212790,2127.9
212887,2128.87
212980,2129.8
213070,2130.7
213163,2131.63
213261,2132.61
213360,2133.6
213458,2134.58
213550,2135.5
213642,2136.42
213736,2137.36
213833,2138.33
213929,2139.29
214021,2140.21
214107,2141.07
214193,2141.93
214284,2142.84
214372,2143.72
214461,2144.61
214555,2145.55
214654,2146.54
214756,2147.56
214855,2148.55
214952,2149.52
215058,2150.58
215166,2151.66
215261,2152.61
215351,2153.51
215442,2154.42
215534,2155.34
215628,2156.28
215721,2157.21
215815,2158.15
215917,2159.17
216021,2160.21
216121,2161.21
216212,2162.12
216304,2163.04
216396,2163.96
216488,2164.88
216581,2165.81
216668,2166.68
216751,2167.51
216849,2168.49
216946,2169.46
217042,2170.42
217139,2171.39
217239,2172.39
217359,2173.59
217480,2174.8
217582,2175.82
217690,2176.9
217792,2177.92
217893,2178.93
217991,2179.91
218087,2180.87
218191,2181.91
218294,2182.94
218395,2183.95
218494,2184.94
218588,2185.88
218682,2186.82
218785,2187.85
218886,2188.86
218987,2189.87
219083,2190.83
219182,2191.82
219282,2192.82
219382,2193.82
219480,2194.8
219575,2195.75
219672,2196.72
219772,2197.72
219872,2198.72
219973,2199.73
220070,2200.7
220168,2201.68
220270,2202.7
220371,2203.71
220469,2204.69
220568,2205.68
220668,2206.68
220770,2207.7
220868,2208.68
220964,2209.64
221063,2210.63
221164,2211.64
221263,2212.63
221358,2213.58
221452,2214.52
221548,2215.48
221646,2216.46
221743,2217.43
221839,2218.39
221936,2219.36
222037,2220.37
222141,2221.41
222241,2222.41
222340,2223.4
222442,2224.42
222544,2225.44
222643,2226.43
222739,2227.39
222836,2228.36
222933,2229.33
223032,2230.32
223131,2231.31
223229,2232.29
223330,2233.3
223432,2234.32
223535,2235.35
223639,2236.39
223739,2237.39
223846,2238.46
223952,2239.52
224056,2240.56
224154,2241.54
224255,2242.55
224357,2243.57
224456,2244.56
224552,2245.52
224648,2246.48
224747,2247.47
224852,2248.52
224956,2249.56
225056,2250.56
225159,2251.59
225262,2252.62
225367,2253.67
225466,2254.66
225559,2255.59
225650,2256.5
225743,2257.43
225843,2258.43
225942,2259.42
226046,2260.46
226150,2261.5
226254,2262.54
226354,2263.54
226455,2264.55
226558,2265.58
226657,2266.57
226753,2267.53
226852,2268.52
226954,2269.54
227057,2270.57
227157,2271.57
227260,2272.6
227364,2273.64
227467,2274.67
227565,2275.65
227661,2276.61
227760,2277.6
227859,2278.59
227956,2279.56
228054,2280.54
228152,2281.52
228252,2282.52
228353,2283.53
228452,2284.52
228549,2285.49
228651,2286.51
228753,2287.53
228855,2288.55
228954,2289.54
229054,2290.54
229156,2291.56
229257,2292.57
229353,2293.53
229450,2294.5
229550,2295.5
229650,2296.5
229749,2297.49
229845,2298.45
229942,2299.42
230042,2300.42
230143,2301.43
230243,2302.43
230343,2303.43
230449,2304.49
230554,2305.54
230656,2306.56
230753,2307.53
230851,2308.51
230947,2309.47
231044,2310.44
231136,2311.36
231229,2312.29
231339,2313.39
231443,2314.43
231554,2315.54
231659,2316.59
231774,2317.74
231889,2318.89
232002,2320.02
232108,2321.08
232214,2322.14
232321,2323.21
232426,2324.26
232526,2325.26
232627,2326.27
232729,2327.29
232831,2328.31
232932,2329.32
233030,2330.3
233131,2331.31
233230,2332.3
233326,2333.26
233418,2334.18
233508,2335.08
233605,2336.05
233703,2337.03
233800,2338.0
233894,2338.94
233991,2339.91
234090,2340.9
234186,2341.86
234279,2342.79
234370,2343.7
234467,2344.67
234565,2345.65
234660,2346.6
234751,2347.51
234846,2348.46
234942,2349.42
235040,2350.4
235136,2351.36
235224,2352.24
235318,2353.18
235411,2354.11
235505,2355.05
235599,2355.99
235685,2356.85
235776,2357.76
235869,2358.69
235966,2359.66
236063,2360.63
236155,2361.55
236247,2362.47
236348,2363.48
236452,2364.52
236552,2365.52
236644,2366.44
236737,2367.37
236833,2368.33
236933,2369.33
237030,2370.3
237124,2371.24
237225,2372.25
237333,2373.33
237444,2374.44
237550,2375.5
237659,2376.59
237769,2377.69
237876,2378.76
237976,2379.76
238069,2380.69
238162,2381.62
238262,2382.62
238364,2383.64
238463,2384.63
238565,2385.65
238671,2386.71
238779,2387.79
238881,2388.81
238976,2389.76
239074,2390.74
239172,2391.72
239268,2392.68
239359,2393.59
239444,2394.44
239541,2395.41
239639,2396.39
239738,2397.38
239835,2398.35
239928,2399.28
240028,2400.28
240127,2401.27
240223,2402.23
240316,2403.16
240407,2404.07
240501,2405.01
240602,2406.02
240705,2407.05
240803,2408.03
240898,2408.98
240995,2409.95
241094,2410.94
241192,2411.92
241283,2412.83
241375,2413.75
241473,2414.73
241572,2415.72
241668,2416.68
241761,2417.61
241858,2418.58
241961,2419.61
242063,2420.63
242160,2421.6
242257,2422.57
242361,2423.61
242465,2424.65
242560,2425.6
242651,2426.51
242741,2427.41
242835,2428.35
242933,2429.33
243029,2430.29
243123,2431.23
243221,2432.21
243320,2433.2
243417,2434.17
243509,2435.09
243603,2436.03
243699,2436.99
243793,2437.93
243883,2438.83
243974,2439.74
244070,2440.7
244170,2441.7
244271,2442.71
244367,2443.67
244467,2444.67
244568,2445.68
244668,2446.68
244764,2447.64
244856,2448.56
244951,2449.51
245050,2450.5
245152,2451.52
245249,2452.49
245345,2453.45
245444,2454.44
245546,2455.46
245641,2456.41
245733,2457.33
245829,2458.29
245927,2459.27
246021,2460.21
246110,2461.1
246204,2462.04
246301,2463.01
246398,2463.98
246492,2464.92
246585,2465.85
246680,2466.8
246776,2467.76
246874,2468.74
246966,2469.66
247055,2470.55
247148,2471.48
247245,2472.45
247343,2473.43
247437,2474.37
247531,2475.31
247629,2476.29
247730,2477.3
247824,2478.24
247909,2479.09
248001,2480.01
248096,2480.96
248196,2481.96
248297,2482.97
248394,2483.94
248503,2485.03
248624,2486.24
248746,2487.46
248850,2488.5
248956,2489.56
249070,2490.7
249173,2491.73
249263,2492.63
249377,2493.77
249491,2494.91
249596,2495.96
249687,2496.87
249801,2498.01
249911,2499.11
250019,2500.19
250111,2501.11
250220,2502.2
250325,2503.25
250426,2504.26
250518,2505.18
250623,2506.23
250710,2507.1
250816,2508.16
250922,2509.22
251023,2510.23
251113,2511.13
251218,2512.18
251319,2513.19
251421,2514.21
251522,2515.22
251619,2516.19
251717,2517.17
251816,2518.16
251915,2519.15
252010,2520.1
252096,2520.96
252200,2522.0
252308,2523.08
252414,2524.14
252505,2525.05
252609,2526.09
252711,2527.11
252813,2528.13
252910,2529.1
253006,2530.06
253104,2531.04
253203,2532.03
253302,2533.02
253399,2533.99
253497,2534.97
253599,2535.99
253702,2537.02
253805,2538.05
253898,2538.98
254004,2540.04
254103,2541.03
254201,2542.01
254292,2542.92
254393,2543.93
254491,2544.91
254591,2545.91
254691,2546.91
254782,2547.82
254886,2548.86
254984,2549.84
255082,2550.82
255177,2551.77
255263,2552.63
255363,2553.63
255469,2554.69
255569,2555.69
255670,2556.7
255763,2557.63
255867,2558.67
255971,2559.71
256073,2560.73
256174,2561.74
256271,2562.71
256370,2563.7
256473,2564.73
256576,2565.76
256677,2566.77
256774,2567.74
256875,2568.75
256979,2569.79
257080,2570.8
257173,2571.73
257276,2572.76
257374,2573.74
257475,2574.75
257576,2575.76
257671,2576.71
257767,2577.67
257866,2578.66
257968,2579.68
258067,2580.67
258161,2581.61
258259,2582.59
258361,2583.61
258465,2584.65
258563,2585.63
258664,2586.64
258765,2587.65
258867,2588.67
258963,2589.63
259054,2590.54
259155,2591.55
259253,2592.53
259353,2593.53
259445,2594.45
259547,2595.47
259646,2596.46
259745,2597.45
259838,2598.38
259932,2599.32
260032,2600.32
260135,2601.35
260240,2602.4
260340,2603.4
260441,2604.41
260545,2605.45
260649,2606.49
260746,2607.46
260848,2608.48
260948,2609.48
261050,2610.5
261152,2611.52
261251,2612.51
261349,2613.49
261450,2614.5
261551,2615.51
261649,2616.49
261740,2617.4
261841,2618.41
261940,2619.4
262040,2620.4
262141,2621.41
262238,2622.38
262336,2623.36
262435,2624.35
262532,2625.32
262631,2626.31
262724,2627.24
262822,2628.22
262928,2629.28
263031,2630.31
263127,2631.27
263226,2632.26
263325,2633.25
263421,2634.21
263516,2635.16
263610,2636.1
263710,2637.1
263815,2638.15
263920,2639.2
264020,2640.2
264118,2641.18
264218,2642.18
264316,2643.16
264408,2644.08
264507,2645.07
264606,2646.06
264706,2647.06
264810,2648.1
264906,2649.06
265004,2650.04
265107,2651.07
265208,2652.08
265306,2653.06
265402,2654.02
265499,2654.99
265602,2656.02
265704,2657.04
265804,2658.04
265901,2659.01
266002,2660.02
266108,2661.08
266208,2662.08
266301,2663.01
266399,2663.99
266497,2664.97
266597,2665.97
266698,2666.98
266794,2667.94
266895,2668.95
266998,2669.98
267097,2670.97
267197,2671.97
267293,2672.93
267391,2673.91
267491,2674.91
267595,2675.95
267697,2676.97
267795,2677.95
267896,2678.96
267997,2679.97
268098,2680.98
268193,2681.93
268289,2682.89
268394,2683.94
268501,2685.01
268606,2686.06
268708,2687.08
268807,2688.07
268908,2689.08
269010,2690.1
269106,2691.06
269203,2692.03
269305,2693.05
269407,2694.07
269505,2695.05
269601,2696.01
269697,2696.97
269799,2697.99
269899,2698.99
269992,2699.92
270086,2700.86
270190,2701.9
270291,2702.91
270392,2703.92
270485,2704.85
270588,2705.88
270684,2706.84
270783,2707.83
270877,2708.77
270968,2709.68
271075,2710.75
271181,2711.81
271283,2712.83
271385,2713.85
271491,2714.91
271598,2715.98
271704,2717.04
271803,2718.03
271902,2719.02
272007,2720.07
272108,2721.08
272209,2722.09
272307,2723.07
272405,2724.05
272506,2725.06
272608,2726.08
272709,2727.09
272808,2728.08
272911,2729.11
273013,2730.13
273116,2731.16
273215,2732.15
273311,2733.11
273409,2734.09
273505,2735.05
273595,2735.95
273691,2736.91
273786,2737.86
273885,2738.85
273982,2739.82
274074,2740.74
274170,2741.7
274272,2742.72
274374,2743.74
274472,2744.72
274565,2745.65
274659,2746.59
274755,2747.55
274853,2748.53
274948,2749.48
275039,2750.39
275132,2751.32
275228,2752.28
275325,2753.25
275419,2754.19
275511,2755.11
275607,2756.07
275704,2757.04
275801,2758.01
275894,2758.94
275989,2759.89
276085,2760.85
276186,2761.86
276287,2762.87
276384,2763.84
276483,2764.83
276585,2765.85
276686,2766.86
276784,2767.84
276877,2768.77
276973,2769.73
277071,2770.71
277170,2771.7
277261,2772.61
277352,2773.52
277446,2774.46
277544,2775.44
277640,2776.4
277737,2777.37
277834,2778.34
277938,2779.38
278046,2780.46
278148,2781.48
278243,2782.43
278339,2783.39
278441,2784.41
278543,2785.43
278640,2786.4
278733,2787.33
278830,2788.3
278930,2789.3
279027,2790.27
279121,2791.21
279214,2792.14
279309,2793.09
279403,2794.03
279498,2794.98
279591,2795.91
279684,2796.84
279782,2797.82
279882,2798.82
279980,2799.8
280076,2800.76
280173,2801.73
280269,2802.69
280362,2803.62
280453,2804.53
280546,2805.46
280642,2806.42
280742,2807.42
280844,2808.44
280943,2809.43
281043,2810.43
281142,2811.42
281241,2812.41
281334,2813.34
281426,2814.26
281520,2815.2
281618,2816.18
281717,2817.17
281812,2818.12
281909,2819.09
282009,2820.09
282109,2821.09
282204,2822.04
282294,2822.94
282384,2823.84
282480,2824.8
282574,2825.74
282666,2826.66
282761,2827.61
282862,2828.62
282966,2829.66
283067,2830.67
283164,2831.64
283263,2832.63
283364,2833.64
283461,2834.61
283560,2835.6
283654,2836.54
283748,2837.48
283847,2838.47
283953,2839.53
284069,2840.69
284185,2841.85
284302,2843.02
284414,2844.14
284517,2845.17
284610,2846.1
284704,2847.04
284801,2848.01
284899,2848.99
284991,2849.91
285080,2850.8
285175,2851.75
285274,2852.74
285372,2853.72
285466,2854.66
285558,2855.58
285654,2856.54
285750,2857.5
285848,2858.48
285942,2859.42
286033,2860.33
286129,2861.29
286226,2862.26
286321,2863.21
286414,2864.14
286510,2865.1
286606,2866.06
286706,2867.06
286801,2868.01
286893,2868.93
286991,2869.91
287090,2870.9
287187,2871.87
287280,2872.8
287371,2873.71
287468,2874.68
287568,2875.68
287669,2876.69
287767,2877.67
287862,2878.62
287955,2879.55
288053,2880.53
288153,2881.53
288250,2882.5
288345,2883.45
288444,2884.44
288543,2885.43
288643,2886.43
288734,2887.34
288827,2888.27
288919,2889.19
289014,2890.14
289108,2891.08
289198,2891.98
289294,2892.94
289396,2893.96
289498,2894.98
289594,2895.94
289694,2896.94
289796,2897.96
289897,2898.97
289993,2899.93
290088,2900.88
290185,2901.85
290286,2902.86
290389,2903.89
290488,2904.88
290585,2905.85
290685,2906.85
290785,2907.85
290884,2908.84
290978,2909.78
291072,2910.72
291171,2911.71
291271,2912.71
291371,2913.71
291466,2914.66
291559,2915.59
291654,2916.54
291753,2917.53
291847,2918.47
291940,2919.4
292032,2920.32
292128,2921.28
292227,2922.27
292324,2923.24
292409,2924.09
292502,2925.02
292596,2925.96
292693,2926.93
292793,2927.93
292890,2928.9
292985,2929.85
293100,2931.0
293211,2932.11
293327,2933.27
293428,2934.28
293522,2935.22
293618,2936.18
293711,2937.11
293803,2938.03
293899,2938.99
294003,2940.03
294122,2941.22
294242,2942.42
294348,2943.48
294449,2944.49
294551,2945.51
294650,2946.5
294745,2947.45
294837,2948.37
294933,2949.33
295035,2950.35
295137,2951.37
295235,2952.35
295331,2953.31
295433,2954.33
295534,2955.34
295635,2956.35
295730,2957.3
295824,2958.24
295921,2959.21
296020,2960.2
296115,2961.15
296208,2962.08
296308,2963.08
296414,2964.14
296523,2965.23
296624,2966.24
296722,2967.22
296817,2968.17
296917,2969.17
297016,2970.16
297110,2971.1
297208,2972.08
297310,2973.1
297411,2974.11
297507,2975.07
297598,2975.98
297695,2976.95
297793,2977.93
297891,2978.91
297984,2979.84
298079,2980.79
298173,2981.73
298266,2982.66
298362,2983.62
298455,2984.55
298547,2985.47
298644,2986.44
298744,2987.44
298839,2988.39
298932,2989.32
299025,2990.25
299123,2991.23
299223,2992.23
299321,2993.21
299416,2994.16
299509,2995.09
299607,2996.07
299707,2997.07
299803,2998.03
299895,2998.95
299988,2999.88
300085,3000.85
300184,3001.84
300277,3002.77
300368,3003.68
300462,3004.62
300555,3005.55
300651,3006.51
300746,3007.46
300838,3008.38
300937,3009.37
301040,3010.4
301145,3011.45
301246,3012.46
301342,3013.42
301441,3014.41
301539,3015.39
301637,3016.37
301731,3017.31
301827,3018.27
301931,3019.31
302034,3020.34
302131,3021.31
302221,3022.21
302312,3023.12
302406,3024.06
302500,3025.0
302600,3026.0
302696,3026.96
302798,3027.98
302919,3029.19
303040,3030.4
303148,3031.48
303244,3032.44
303341,3033.41
303435,3034.35
303530,3035.3
303626,3036.26
303722,3037.22
303821,3038.21
303928,3039.28
304039,3040.39
304147,3041.47
304251,3042.51
304354,3043.54
304450,3044.5
304540,3045.4
304633,3046.33
304728,3047.28
304828,3048.28
304923,3049.23
305016,3050.16
305115,3051.15
305214,3052.14
305309,3053.09
305407,3054.07
305502,3055.02
305599,3055.99
305694,3056.94
305789,3057.89
305886,3058.86
305984,3059.84
306081,3060.81
306179,3061.79
306287,3062.87
306403,3064.03
306515,3065.15
306619,3066.19
306721,3067.21
306822,3068.22
306918,3069.18
307010,3070.1
307100,3071.0
307197,3071.97
307298,3072.98
307403,3074.03
307506,3075.06
307600,3076.0
307696,3076.96
307795,3077.95
307893,3078.93
307990,3079.9
308083,3080.83
308175,3081.75
308272,3082.72
308374,3083.74
308473,3084.73
308567,3085.67
308658,3086.58
308756,3087.56
308856,3088.56
308953,3089.53
309048,3090.48
309140,3091.4
309236,3092.36
309330,3093.3
309421,3094.21
309512,3095.12
309607,3096.07
309712,3097.12
309823,3098.23
309935,3099.35
310041,3100.41
310146,3101.46
310250,3102.5
310347,3103.47
310438,3104.38
310537,3105.37
310636,3106.36
310737,3107.37
310834,3108.34
310929,3109.29
311030,3110.3
311133,3111.33
311234,3112.34
311333,3113.33
311429,3114.29
311528,3115.28
311625,3116.25
311718,3117.18
311812,3118.12
311911,3119.11
312004,3120.04
312098,3120.98
312189,3121.89
312285,3122.85
312387,3123.87
312491,3124.91
312593,3125.93
312691,3126.91
312813,3128.13
312928,3129.28
313050,3130.5
313152,3131.52
313255,3132.55
313357,3133.57
313461,3134.61
313564,3135.64
313659,3136.59
313754,3137.54
313857,3138.57
313962,3139.62
314065,3140.65
314161,3141.61
314255,3142.55
314352,3143.52
314453,3144.53
314553,3145.53
314649,3146.49
314739,3147.39
314833,3148.33
314931,3149.31
315030,3150.3
315125,3151.25
315219,3152.19
315320,3153.2
315419,3154.19
315517,3155.17
315609,3156.09
315704,3157.04
315801,3158.01
315900,3159.0
315994,3159.94
316086,3160.86
316182,3161.82
316281,3162.81
316378,3163.78
316474,3164.74
316564,3165.64
316657,3166.57
316754,3167.54
316854,3168.54
316951,3169.51
317046,3170.46
317141,3171.41
317238,3172.38
317337,3173.37
317435,3174.35
317531,3175.31
317630,3176.3
317732,3177.32
317833,3178.33
317930,3179.3
318026,3180.26
318128,3181.28
318242,3182.42
318357,3183.57
318458,3184.58
318560,3185.6
318661,3186.61
318757,3187.57
318855,3188.55
318955,3189.55
319075,3190.75
319195,3191.95
319304,3193.04
319414,3194.14
319525,3195.25
319626,3196.26
319731,3197.31
319838,3198.38
319943,3199.43
320043,3200.43
320139,3201.39
320239,3202.39
320344,3203.44
320444,3204.44
320538,3205.38
320635,3206.35
320734,3207.34
320832,3208.32
320933,3209.33
321029,3210.29
321124,3211.24
321231,3212.31
321343,3213.43
321448,3214.48
321546,3215.46
321643,3216.43
321740,3217.4
321839,3218.39
321936,3219.36
322032,3220.32
322128,3221.28
322227,3222.27
322328,3223.28
322426,3224.26
322519,3225.19
322617,3226.17
322716,3227.16
322812,3228.12
322906,3229.06
323001,3230.01
323097,3230.97
323197,3231.97
323294,3232.94
323387,3233.87
323484,3234.84
323586,3235.86
323693,3236.93
323793,3237.93
323894,3238.94
323996,3239.96
324100,3241.0
324206,3242.06
324305,3243.05
324403,3244.03
324505,3245.05
324608,3246.08
324707,3247.07
324802,3248.02
324898,3248.98
324997,3249.97
325098,3250.98
325197,3251.97
325292,3252.92
325388,3253.88
325487,3254.87
325587,3255.87
325681,3256.81
325772,3257.72
325868,3258.68
325965,3259.65
326062,3260.62
326158,3261.58
326249,3262.49
326345,3263.45
326442,3264.42
326541,3265.41
326640,3266.4
326732,3267.32
326825,3268.25
326921,3269.21
327017,3270.17
327114,3271.14
327207,3272.07
327301,3273.01
327401,3274.01
327497,3274.97
327592,3275.92
327685,3276.85
327779,3277.79
327882,3278.82
327986,3279.86
328084,3280.84
328178,3281.78
328278,3282.78
328379,3283.79
328477,3284.77
328570,3285.7
328665,3286.65
328765,3287.65
328865,3288.65
328967,3289.67
329061,3290.61
329155,3291.55
329274,3292.74
329393,3293.93
329495,3294.95
329593,3295.93
329695,3296.95
329803,3298.03
329909,3299.09
330011,3300.11
330118,3301.18
330224,3302.24
330329,3303.29
330427,3304.27
330534,3305.34
330637,3306.37
330740,3307.4
330840,3308.4
330938,3309.38
331038,3310.38
331144,3311.44
331250,3312.5
331352,3313.52
331451,3314.51
331554,3315.54
331657,3316.57
331758,3317.58
331858,3318.58
331950,3319.5
332055,3320.55
332158,3321.58
332261,3322.61
332359,3323.59
332462,3324.62
332565,3325.65
332669,3326.69
332769,3327.69
332867,3328.67
332970,3329.7
333073,3330.73
333175,3331.75
333275,3332.75
333368,3333.68
333473,3334.73
333577,3335.77
333681,3336.81
333782,3337.82
333883,3338.83
333988,3339.88
334093,3340.93
334193,3341.93
334291,3342.91
334394,3343.94
334500,3345.0
334605,3346.05
334704,3347.04
334802,3348.02
334901,3349.01
335001,3350.01
335103,3351.03
335200,3352.0
335301,3353.01
335405,3354.05
335511,3355.11
335615,3356.15
335716,3357.16
335822,3358.22
335929,3359.29
336035,3360.35
336135,3361.35
336234,3362.34
336339,3363.39
336445,3364.45
336552,3365.52
336655,3366.55
336756,3367.56
336859,3368.59
336962,3369.62
337050,3370.5
337142,3371.42
337240,3372.4
337342,3373.42
337455,3374.55
337562,3375.62
337664,3376.64
337772,3377.72
337880,3378.8
337986,3379.86
338085,3380.85
338187,3381.87
338292,3382.92
338395,3383.95
338496,3384.96
338594,3385.94
338697,3386.97
338800,3388.0
338904,3389.04
339007,3390.07
339107,3391.07
339211,3392.11
339315,3393.15
339420,3394.2
339520,3395.2
339617,3396.17
339718,3397.18
339821,3398.21
339925,3399.25
340029,3400.29
340130,3401.3
340236,3402.36
340342,3403.42
340448,3404.48
340551,3405.51
340652,3406.52
340756,3407.56
340859,3408.59
340960,3409.6
341057,3410.57
341159,3411.59
341260,3412.6
341363,3413.63
341463,3414.63
341561,3415.61
341662,3416.62
341765,3417.65
341868,3418.68
341965,3419.65
342061,3420.61
342158,3421.58
342257,3422.57
342356,3423.56
342454,3424.54
342551,3425.51
342654,3426.54
342759,3427.59
342865,3428.65
342965,3429.65
343068,3430.68
343176,3431.76
343281,3432.81
343385,3433.85
343485,3434.85
343589,3435.89
343694,3436.94
343797,3437.97
343898,3438.98
343997,3439.97
344100,3441.0
344201,3442.01
344304,3443.04
344404,3444.04
344508,3445.08
344616,3446.16
344721,3447.21
344823,3448.23
344921,3449.21
345020,3450.2
345121,3451.21
345223,3452.23
345324,3453.24
345419,3454.19
345514,3455.14
345619,3456.19
345728,3457.28
345831,3458.31
345937,3459.37
346042,3460.42
346147,3461.47
346245,3462.45
346337,3463.37
346431,3464.31
346527,3465.27
346628,3466.28
346722,3467.22
346820,3468.2
346921,3469.21
347026,3470.26
347132,3471.32
347231,3472.31
347328,3473.28
347425,3474.25
347523,3475.23
347622,3476.22
347718,3477.18
347815,3478.15
347917,3479.17
348020,3480.2
348120,3481.2
348214,3482.14
348306,3483.06
348404,3484.04
348507,3485.07
348610,3486.1
348708,3487.08
348800,3488.0
348899,3488.99
349002,3490.02
349102,3491.02
349198,3491.98
349291,3492.91
349387,3493.87
349487,3494.87
349586,3495.86
349681,3496.81
349774,3497.74
349867,3498.67
349964,3499.64
350061,3500.61
350157,3501.57
350258,3502.58
350365,3503.65
350472,3504.72
350561,3505.61
350650,3506.5
350747,3507.47
350845,3508.45
350940,3509.4
351035,3510.35
351130,3511.3
351232,3512.32
351348,3513.48
351472,3514.72
351588,3515.88
351701,3517.01
351818,3518.18
351931,3519.31
352031,3520.31
352130,3521.3
352231,3522.31
352336,3523.36
352444,3524.44
352546,3525.46
352647,3526.47
352751,3527.51
352856,3528.56
352954,3529.54
353049,3530.49
353148,3531.48
353244,3532.44
353340,3533.4
353433,3534.33
353529,3535.29
353634,3536.34
353740,3537.4
353837,3538.37
353930,3539.3
354029,3540.29
354131,3541.31
354230,3542.3
354323,3543.23
354417,3544.17
354514,3545.14
354615,3546.15
354714,3547.14
354808,3548.08
354904,3549.04
355002,3550.02
355101,3551.01
355197,3551.97
355291,3552.91
355388,3553.88
355489,3554.89
355593,3555.93
355688,3556.88
355780,3557.8
355875,3558.75
355970,3559.7
356071,3560.71
356168,3561.68
356261,3562.61
356358,3563.58
356466,3564.66
356575,3565.75
356682,3566.82
356782,3567.82
356885,3568.85
356991,3569.91
357095,3570.95
357195,3571.95
357289,3572.89
357384,3573.84
357485,3574.85
357584,3575.84
357679,3576.79
357770,3577.7
357868,3578.68
357970,3579.7
358072,3580.72
358172,3581.72
358270,3582.7
358374,3583.74
358483,3584.83
358598,3585.98
358699,3586.99
358798,3587.98
358898,3588.98
358996,3589.96
359096,3590.96
359191,3591.91
359285,3592.85
359387,3593.87
359490,3594.9
359594,3595.94
359692,3596.92
359791,3597.91
359892,3598.92
359991,3599.91
360086,3600.86
360182,3601.82
360282,3602.82
360386,3603.86
360484,3604.84
360578,3605.78
360675,3606.75
360779,3607.79
360885,3608.85
360989,3609.89
361086,3610.86
361184,3611.84
361278,3612.78
361377,3613.77
361475,3614.75
361570,3615.7
361668,3616.68
361775,3617.75
361883,3618.83
361987,3619.87
362082,3620.82
362177,3621.77
362274,3622.74
362374,3623.74
362468,3624.68
362561,3625.61
362657,3626.57
362751,3627.51
362849,3628.49
362942,3629.42
363034,3630.34
363133,3631.33
363233,3632.33
363331,3633.31
363428,3634.28
363520,3635.2
363617,3636.17
363718,3637.18
363817,3638.17
363913,3639.13
364009,3640.09
364106,3641.06
364207,3642.07
364306,3643.06
364399,3643.99
364493,3644.93
364592,3645.92
364692,3646.92
364792,3647.92
364887,3648.87
364979,3649.79
365075,3650.75
365172,3651.72
365266,3652.66
365358,3653.58
365450,3654.5
365547,3655.47
365650,3656.5
365756,3657.56
365855,3658.55
365959,3659.59
366074,3660.74
366190,3661.9
366293,3662.93
366396,3663.96
366502,3665.02
366608,3666.08
366709,3667.09
366801,3668.01
366897,3668.97
366999,3669.99
367101,3671.01
367198,3671.98
367291,3672.91
367388,3673.88
367486,3674.86
367584,3675.84
367680,3676.8
367773,3677.73
367871,3678.71
367976,3679.76
368082,3680.82
368180,3681.8
368267,3682.67
368367,3683.67
368465,3684.65
368562,3685.62
368659,3686.59
368751,3687.51
368845,3688.45
368946,3689.46
369048,3690.48
369142,3691.42
369236,3692.36
369335,3693.35
369436,3694.36
369539,3695.39
369634,3696.34
369730,3697.3
369826,3698.26
369923,3699.23
370019,3700.19
370105,3701.05
370201,3702.01
370299,3702.99
370404,3704.04
370505,3705.05
370606,3706.06
370714,3707.14
370841,3708.41
370968,3709.68
371085,3710.85
371197,3711.97
371304,3713.04
371402,3714.02
371502,3715.02
371608,3716.08
371718,3717.18
371824,3718.24
371931,3719.31
372040,3720.4
372147,3721.47
372250,3722.5
372349,3723.49
372455,3724.55
372567,3725.67
372677,3726.77
372778,3727.78
372879,3728.79
372985,3729.85
373091,3730.91
373194,3731.94
373291,3732.91
373391,3733.91
373492,3734.92
373601,3736.01
373706,3737.06
373806,3738.06
373909,3739.09
374013,3740.13
374114,3741.14
374216,3742.16
374312,3743.12
374407,3744.07
374504,3745.04
374605,3746.05
374702,3747.02
374793,3747.93
374893,3748.93
374995,3749.95
375097,3750.97
375195,3751.95
375292,3752.92
375395,3753.95
375505,3755.05
375610,3756.1
375709,3757.09
375809,3758.09
375918,3759.18
376025,3760.25
376123,3761.23
376216,3762.16
376312,3763.12
376413,3764.13
376517,3765.17
376619,3766.19
376720,3767.2
376828,3768.28
376945,3769.45
377059,3770.59
377165,3771.65
377273,3772.73
377379,3773.79
377480,3774.8
377576,3775.76
377672,3776.72
377772,3777.72
377880,3778.8
377991,3779.91
378095,3780.95
378201,3782.01
378310,3783.1
378417,3784.17
378520,3785.2
378619,3786.19
378723,3787.23
378834,3788.34
378943,3789.43
379050,3790.5
379164,3791.64
379282,3792.82
379396,3793.96
379503,3795.03
379603,3796.03
379705,3797.05
379811,3798.11
379917,3799.17
380015,3800.15
380113,3801.13
380215,3802.15
380323,3803.23
380428,3804.28
380527,3805.27
380628,3806.28
380731,3807.31
380834,3808.34
380929,3809.29
381021,3810.21
381120,3811.2
381222,3812.22
381326,3813.26
381427,3814.27
381525,3815.25
381628,3816.28
381743,3817.43
381853,3818.53
381955,3819.55
382051,3820.51
382153,3821.53
382259,3822.59
382364,3823.64
382467,3824.67
382565,3825.65
382668,3826.68
382774,3827.74
382879,3828.79
382979,3829.79
383078,3830.78
383182,3831.82
383284,3832.84
383380,3833.8
383471,3834.71
383565,3835.65
383663,3836.63
383768,3837.68
383870,3838.7
383969,3839.69
384074,3840.74
384183,3841.83
384292,3842.92
384393,3843.93
384492,3844.92
384586,3845.86
384681,3846.81
384773,3847.73
384864,3848.64
384961,3849.61
385061,3850.61
385161,3851.61
385259,3852.59
385364,3853.64
385475,3854.75
385581,3855.81
385682,3856.82
385785,3857.85
385887,3858.87
385983,3859.83
386077,3860.77
386174,3861.74
386290,3862.9
386410,3864.1
386526,3865.26
386632,3866.32
386742,3867.42
386859,3868.59
386974,3869.74
387075,3870.75
387177,3871.77
387281,3872.81
387385,3873.85
387486,3874.86
387587,3875.87
387688,3876.88
387791,3877.91
387891,3878.91
387986,3879.86
388083,3880.83
388185,3881.85
388291,3882.91
388390,3883.9
388490,3884.9
388593,3885.93
388696,3886.96
388793,3887.93
388891,3888.91
388992,3889.92
389091,3890.91
389186,3891.86
389280,3892.8
389375,3893.75
389473,3894.73
389571,3895.71
389670,3896.7
389774,3897.74
389885,3898.85
389998,3899.98
390104,3901.04
390203,3902.03
390299,3902.99
390395,3903.95
390496,3904.96
390598,3905.98
390696,3906.96
390794,3907.94
390901,3909.01
391012,3910.12
391118,3911.18
391216,3912.16
391305,3913.05
391397,3913.97
391494,3914.94
391600,3916.0
391705,3917.05
391814,3918.14
391932,3919.32
392057,3920.57
392170,3921.7
392270,3922.7
392377,3923.77
392490,3924.9
392599,3925.99
392704,3927.04
392803,3928.03
392906,3929.06
393012,3930.12
393117,3931.17
393217,3932.17
393322,3933.22
393428,3934.28
393531,3935.31
393630,3936.3
393730,3937.3
393833,3938.33
393939,3939.39
394045,3940.45
394144,3941.44
394246,3942.46
394349,3943.49
394456,3944.56
394561,3945.61
394663,3946.63
394772,3947.72
394882,3948.82
394990,3949.9
395091,3950.91
395192,3951.92
395292,3952.92
395395,3953.95
395493,3954.93
395589,3955.89
395691,3956.91
395799,3957.99
395903,3959.03
396000,3960.0
396097,3960.97
396198,3961.98
396304,3963.04
396405,3964.05
396500,3965.0
396601,3966.01
396707,3967.07
396815,3968.15
396919,3969.19
397017,3970.17
397116,3971.16
397221,3972.21
397326,3973.26
397427,3974.27
397524,3975.24
397623,3976.23
397727,3977.27
397829,3978.29
397929,3979.29
398023,3980.23
398119,3981.19
398220,3982.2
398324,3983.24
398427,3984.27
398525,3985.25
398626,3986.26
398726,3987.26
398828,3988.28
398926,3989.26
399022,3990.22
399120,3991.2
399220,3992.2
399318,3993.18
399412,3994.12
399507,3995.07
399610,3996.1
399716,3997.16
399817,3998.17
399914,3999.14
400019,4000.19
400125,4001.25
400229,4002.29
400328,4003.28
400432,4004.32
400537,4005.37
400640,4006.4
400738,4007.38
400836,4008.36
400937,4009.37
401038,4010.38
401136,4011.36
401232,4012.32
401326,4013.26
401427,4014.27
401526,4015.26
401624,4016.24
401722,4017.22
401826,4018.26
401933,4019.33
402035,4020.35
402135,4021.35
402237,4022.37
402339,4023.39
402438,4024.38
402534,4025.34
402644,4026.44
402756,4027.56
402870,4028.7
402974,4029.74
403076,4030.76
403175,4031.75
403277,4032.77
403382,4033.82
403482,4034.82
403590,4035.9
403708,4037.08
403823,4038.23
403913,4039.13
403996,4039.96
404079,4040.79
404169,4041.69
404270,4042.7
404368,4043.68
404457,4044.57
404540,4045.4
404624,4046.24
404706,4047.06
404789,4047.89
404868,4048.68
404958,4049.58
405044,4050.44
405119,4051.19
405193,4051.93
405270,4052.7
405347,4053.47
405432,4054.32
405513,4055.13
405594,4055.94
405672,4056.72
405745,4057.45
405815,4058.15
405885,4058.85
405953,4059.53
406045,4060.45
406131,4061.31
406217,4062.17
406280,4062.8
406343,4063.43
406406,4064.06
406468,4064.68
406530,4065.3
406585,4065.85
406641,4066.41
406717,4067.17
406780,4067.8
406845,4068.45
406912,4069.12
406981,4069.81
407052,4070.52
407121,4071.21
407168,4071.68
407215,4072.15
407267,4072.67
407319,4073.19
407382,4073.82
407446,4074.46
407509,4075.09
407573,4075.73
407638,4076.38
407704,4077.04
407771,4077.71
407837,4078.37
407904,4079.04
407972,4079.72
408038,4080.38
408105,4081.05
408175,4081.75
408247,4082.47
408325,4083.25
408415,4084.15
408514,4085.14
408615,4086.15
408715,4087.15
408811,4088.11
408903,4089.03
408991,4089.91
409075,4090.75
409160,4091.6
409248,4092.48
409349,4093.49
409463,4094.63
409580,4095.8
409696,4096.96
409806,4098.06
409907,4099.07
410017,4100.17
410141,4101.41
410271,4102.71
410383,4103.83
410484,4104.84
410592,4105.92
410690,4106.9
410787,4107.87
410881,4108.81
410992,4109.92
411141,4111.41
411270,4112.7
411380,4113.8
411480,4114.8
411584,4115.84
411692,4116.92
411797,4117.97
411895,4118.95
411992,4119.92
412098,4120.98
412209,4122.09
412319,4123.19
412422,4124.22
412519,4125.19
412625,4126.25
412730,4127.3
412827,4128.27
412920,4129.2
413017,4130.17
413127,4131.27
413264,4132.64
413402,4134.02
413531,4135.31
413655,4136.55
413768,4137.68
413871,4138.71
413976,4139.76
414091,4140.91
414204,4142.04
414309,4143.09
414409,4144.09
414510,4145.1
414609,4146.09
414709,4147.09
414807,4148.07
414926,4149.26
415046,4150.46
415180,4151.8
415293,4152.93
415412,4154.12
415526,4155.26
415639,4156.39
415743,4157.43
415843,4158.43
415940,4159.4
416039,4160.39
416136,4161.36
416234,4162.34
416355,4163.55
416475,4164.75
416594,4165.94
416700,4167.0
416807,4168.07
416916,4169.16
417023,4170.23
417123,4171.23
417217,4172.17
417320,4173.2
417435,4174.35
417556,4175.56
417674,4176.74
417797,4177.97
417915,4179.15
418032,4180.32
418139,4181.39
418247,4182.47
418358,4183.58
418461,4184.61
418556,4185.56
418651,4186.51
418758,4187.58
418878,4188.78
418988,4189.88
419094,4190.94
419200,4192.0
419319,4193.19
419434,4194.34
419539,4195.39
419636,4196.36
419744,4197.44
419861,4198.61
419970,4199.7
420074,4200.74
420186,4201.86
420302,4203.02
420418,4204.18
420525,4205.25
420627,4206.27
420740,4207.4
420858,4208.58
420970,4209.7
421075,4210.75
421171,4211.71
421268,4212.68
421369,4213.69
421476,4214.76
421608,4216.08
421741,4217.41
421870,4218.7
421987,4219.87
422104,4221.04
422217,4222.17
422325,4223.25
422426,4224.26
422532,4225.32
422641,4226.41
422745,4227.45
422846,4228.46
422938,4229.38
423027,4230.27
423120,4231.2
423220,4232.2
423334,4233.34
423471,4234.71
423609,4236.09
423721,4237.21
423823,4238.23
423933,4239.33
424046,4240.46
424149,4241.49
424245,4242.45
424337,4243.37
424435,4244.35
424558,4245.58
424675,4246.75
424785,4247.85
424893,4248.93
425013,4250.13
425128,4251.28
425239,4252.39
425344,4253.44
425452,4254.52
425564,4255.64
425671,4256.71
425771,4257.71
425876,4258.76
425993,4259.93
426111,4261.11
426217,4262.17
426316,4263.16
426424,4264.24
426537,4265.37
426642,4266.42
426739,4267.39
426840,4268.4
426952,4269.52
427057,4270.57
427165,4271.65
427311,4273.11
427457,4274.57
427574,4275.74
427680,4276.8
427794,4277.94
427908,4279.08
428016,4280.16
428116,4281.16
428217,4282.17
428328,4283.28
428440,4284.4
428553,4285.53
428654,4286.54
428757,4287.57
428874,4288.74
428988,4289.88
429096,4290.96
429210,4292.1
429327,4293.27
429439,4294.39
429543,4295.43
429649,4296.49
429763,4297.63
429875,4298.75
429979,4299.79
430075,4300.75
430176,4301.76
430279,4302.79
430384,4303.84
430485,4304.85
430585,4305.85
430697,4306.97
430805,4308.05
430907,4309.07
431007,4310.07
431113,4311.13
431218,4312.18
431320,4313.2
431418,4314.18
431519,4315.19
431622,4316.22
431721,4317.21
431818,4318.18
431922,4319.22
432030,4320.3
432147,4321.47
432249,4322.49
432355,4323.55
432476,4324.76
432591,4325.91
432701,4327.01
432818,4328.18
432933,4329.33
433046,4330.46
433154,4331.54
433256,4332.56
433371,4333.71
433491,4334.91
433605,4336.05
433713,4337.13
433816,4338.16
433916,4339.16
434014,4340.14
434124,4341.24
434249,4342.49
434375,4343.75
434480,4344.8
434589,4345.89
434702,4347.02
434807,4348.07
434909,4349.09
435015,4350.15
435121,4351.21
435225,4352.25
435323,4353.23
435423,4354.23
435519,4355.19
435613,4356.13
435706,4357.06
435815,4358.15
435949,4359.49
436074,4360.74
436187,4361.87
436302,4363.02
436424,4364.24
436536,4365.36
436639,4366.39
436743,4367.43
436851,4368.51
436962,4369.62
437069,4370.69
437174,4371.74
437284,4372.84
437398,4373.98
437507,4375.07
437610,4376.1
437720,4377.2
437830,4378.3
437937,4379.37
438045,4380.45
438175,4381.75
438305,4383.05
438410,4384.1
438511,4385.11
438615,4386.15
438723,4387.23
438824,4388.24
438924,4389.24
439032,4390.32
439146,4391.46
439253,4392.53
439350,4393.5
439442,4394.42
439539,4395.39
439635,4396.35
439731,4397.31
439826,4398.26
439936,4399.36
440070,4400.7
440197,4401.97
440311,4403.11
440432,4404.32
440554,4405.54
440652,4406.52
440745,4407.45
440847,4408.47
440961,4409.61
441081,4410.81
441193,4411.93
441323,4413.23
441433,4414.33
441538,4415.38
441636,4416.36
441743,4417.43
441847,4418.47
441947,4419.47
442049,4420.49
442183,4421.83
442308,4423.08
442419,4424.19
442518,4425.18
442618,4426.18
442722,4427.22
442822,4428.22
442928,4429.28
443031,4430.31
443162,4431.62
443294,4432.94
443407,4434.07
443513,4435.13
443619,4436.19
443734,4437.34
443844,4438.44
443946,4439.46
444043,4440.43
444145,4441.45
444250,4442.5
444354,4443.54
444457,4444.57
444569,4445.69
444693,4446.93
444808,4448.08
444911,4449.11
445012,4450.12
445113,4451.13
445216,4452.16
445318,4453.18
445436,4454.36
445553,4455.53
445672,4456.72
445781,4457.81
445888,4458.88
445990,4459.9
446091,4460.91
446189,4461.89
446297,4462.97
446412,4464.12
446521,4465.21
446625,4466.25
446726,4467.26
446832,4468.32
446940,4469.4
447049,4470.49
447152,4471.52
447255,4472.55
447367,4473.67
447480,4474.8
447589,4475.89
447690,4476.9
447793,4477.93
447898,4478.98
448004,4480.04
448108,4481.08
448208,4482.08
448311,4483.11
448415,4484.15
448516,4485.16
448613,4486.13
448713,4487.13
448815,4488.15
448918,4489.18
449019,4490.19
449115,4491.15
449215,4492.15
449315,4493.15
449416,4494.16
449525,4495.25
449656,4496.56
449788,4497.88
449897,4498.97
449996,4499.96
450095,4500.95
450198,4501.98
450324,4503.24
450450,4504.5
450567,4505.67
450689,4506.89
450806,4508.06
450915,4509.15
451030,4510.3
451148,4511.48
451260,4512.6
451364,4513.64
451469,4514.69
451577,4515.77
451687,4516.87
451794,4517.94
451894,4518.94
451997,4519.97
452108,4521.08
452222,4522.22
452326,4523.26
452426,4524.26
452528,4525.28
452641,4526.41
452751,4527.51
452856,4528.56
452969,4529.69
453090,4530.9
453208,4532.08
453305,4533.05
453396,4533.96
453489,4534.89
453595,4535.95
453730,4537.3
453866,4538.66
453988,4539.88
454115,4541.15
454232,4542.32
454339,4543.39
454450,4544.5
454563,4545.63
454673,4546.73
454777,4547.77
454886,4548.86
454999,4549.99
455108,4551.08
455212,4552.12
455320,4553.2
455430,4554.3
455539,4555.39
455644,4556.44
455744,4557.44
455848,4558.48
455949,4559.49
456047,4560.47
456148,4561.48
456263,4562.63
456382,4563.82
456496,4564.96
456605,4566.05
456719,4567.19
456832,4568.32
456940,4569.4
457041,4570.41
457142,4571.42
457247,4572.47
457355,4573.55
457462,4574.62
457567,4575.67
457683,4576.83
457797,4577.97
457908,4579.08
458015,4580.15
458124,4581.24
458235,4582.35
458346,4583.46
458451,4584.51
458554,4585.54
458662,4586.62
458767,4587.67
458868,4588.68
458966,4589.66
459069,4590.69
459181,4591.81
459292,4592.92
459396,4593.96
459505,4595.05
459617,4596.17
459730,4597.3
459838,4598.38
459939,4599.39
460044,4600.44
460155,4601.55
460264,4602.64
460370,4603.7
460477,4604.77
460594,4605.94
460710,4607.1
460817,4608.17
460923,4609.23
461043,4610.43
461166,4611.66
461284,4612.84
461383,4613.83
461480,4614.8
461584,4615.84
461689,4616.89
461803,4618.03
461944,4619.44
462086,4620.86
462200,4622.0
462308,4623.08
462424,4624.24
462541,4625.41
462636,4626.36
462725,4627.25
462820,4628.2
462922,4629.22
463028,4630.28
463149,4631.49
463288,4632.88
463417,4634.17
463537,4635.37
463645,4636.45
463749,4637.49
463857,4638.57
463964,4639.64
464065,4640.65
464163,4641.63
464262,4642.62
464366,4643.66
464473,4644.73
464576,4645.76
464674,4646.74
464775,4647.75
464881,4648.81
464984,4649.84
465084,4650.84
465182,4651.82
465282,4652.82
465388,4653.88
465495,4654.95
465597,4655.97
465694,4656.94
465794,4657.94
465897,4658.97
465998,4659.98
466093,4660.93
466189,4661.89
466289,4662.89
466391,4663.91
466493,4664.93
466588,4665.88
466683,4666.83
466782,4667.82
466888,4668.88
466997,4669.97
467106,4671.06
467235,4672.35
467364,4673.64
467472,4674.72
467572,4675.72
467672,4676.72
467781,4677.81
467880,4678.8
467971,4679.71
468061,4680.61
468158,4681.58
468261,4682.61
468380,4683.8
468498,4684.98
468627,4686.27
468757,4687.57
468863,4688.63
468964,4689.64
469066,4690.66
469169,4691.69
469270,4692.7
469366,4693.66
469466,4694.66
469571,4695.71
469675,4696.75
469772,4697.72
469867,4698.67
469967,4699.67
470068,4700.68
470163,4701.63
470257,4702.57
470349,4703.49
470443,4704.43
470540,4705.4
470639,4706.39
470739,4707.39
470855,4708.55
470985,4709.85
471102,4711.02
471208,4712.08
471319,4713.19
471435,4714.35
471546,4715.46
471652,4716.52
471750,4717.5
471850,4718.5
471952,4719.52
472055,4720.55
472160,4721.6
472264,4722.64
472375,4723.75
472485,4724.85
472597,4725.97
472701,4727.01
472804,4728.04
472905,4729.05
473007,4730.07
473105,4731.05
473201,4732.01
473301,4733.01
473403,4734.03
473500,4735.0
473593,4735.93
473692,4736.92
473791,4737.91
473892,4738.92
473988,4739.88
474091,4740.91
474197,4741.97
474306,4743.06
474408,4744.08
474513,4745.13
474618,4746.18
474718,4747.18
474813,4748.13
474907,4749.07
475004,4750.04
475102,4751.02
475201,4752.01
475298,4752.98
475396,4753.96
475494,4754.94
475590,4755.9
475686,4756.86
475780,4757.8
475873,4758.73
475973,4759.73
476076,4760.76
476177,4761.77
476274,4762.74
476373,4763.73
476473,4764.73
476573,4765.73
476671,4766.71
476767,4767.67
476867,4768.67
476970,4769.7
477072,4770.72
477168,4771.68
477267,4772.67
477366,4773.66
477466,4774.66
477561,4775.61
477656,4776.56
477754,4777.54
477851,4778.51
477947,4779.47
478040,4780.4
478132,4781.32
478229,4782.29
478327,4783.27
478423,4784.23
478518,4785.18
478620,4786.2
478726,4787.26
478828,4788.28
478924,4789.24
479018,4790.18
479116,4791.16
479211,4792.11
479304,4793.04
479398,4793.98
479496,4794.96
479597,4795.97
479703,4797.03
479806,4798.06
479909,4799.09
480027,4800.27
480141,4801.41
480249,4802.49
480353,4803.53
480456,4804.56
480562,4805.62
480671,4806.71
480784,4807.84
480907,4809.07
481022,4810.22
481138,4811.38
481242,4812.42
481339,4813.39
481435,4814.35
481529,4815.29
481627,4816.27
481722,4817.22
481818,4818.18
481923,4819.23
482033,4820.33
482147,4821.47
482251,4822.51
482345,4823.45
482437,4824.37
482535,4825.35
482638,4826.38
482739,4827.39
482880,4828.8
483021,4830.21
483137,4831.37
483242,4832.42
483354,4833.54
483463,4834.63
483574,4835.74
483684,4836.84
483788,4837.88
483894,4838.94
484009,4840.09
484123,4841.23
484232,4842.32
484337,4843.37
484452,4844.52
484569,4845.69
484676,4846.76
484776,4847.76
484871,4848.71
484971,4849.71
485073,4850.73
485176,4851.76
485279,4852.79
485378,4853.78
485486,4854.86
485593,4855.93
485697,4856.97
485796,4857.96
485894,4858.94
486000,4860.0
486112,4861.12
486223,4862.23
486323,4863.23
486419,4864.19
486516,4865.16
486614,4866.14
486714,4867.14
486812,4868.12
486907,4869.07
487005,4870.05
487107,4871.07
487210,4872.1
487311,4873.11
487416,4874.16
487526,4875.26
487642,4876.42
487754,4877.54
487861,4878.61
487978,4879.78
488087,4880.87
488190,4881.9
488287,4882.87
488386,4883.86
488495,4884.95
488610,4886.1
488720,4887.2
488824,4888.24
488932,4889.32
489044,4890.44
489156,4891.56
489257,4892.57
489358,4893.58
489470,4894.7
489587,4895.87
489695,4896.95
489797,4897.97
489903,4899.03
490010,4900.1
490116,4901.16
490219,4902.19
490319,4903.19
490418,4904.18
490523,4905.23
490632,4906.32
490736,4907.36
490835,4908.35
490938,4909.38
491044,4910.44
491150,4911.5
491253,4912.53
491351,4913.51
491449,4914.49
491548,4915.48
491647,4916.47
491743,4917.43
491837,4918.37
491934,4919.34
492035,4920.35
492133,4921.33
492228,4922.28
492324,4923.24
492424,4924.24
492524,4925.24
492619,4926.19
492715,4927.15
492813,4928.13
492912,4929.12
493009,4930.09
493104,4931.04
493204,4932.04
493304,4933.04
493400,4934.0
493494,4934.94
493590,4935.9
493684,4936.84
493779,4937.79
493874,4938.74
493968,4939.68
494076,4940.76
494196,4941.96
494317,4943.17
494422,4944.22
494527,4945.27
494634,4946.34
494743,4947.43
494846,4948.46
494951,4949.51
495072,4950.72
495186,4951.86
495290,4952.9
495388,4953.88
495489,4954.89
495596,4955.96
495700,4957.0
495800,4958.0
495898,4958.98
495995,4959.95
496092,4960.92
496189,4961.89
496285,4962.85
496387,4963.87
496495,4964.95
496605,4966.05
496712,4967.12
496815,4968.15
496922,4969.22
497027,4970.27
497128,4971.28
497223,4972.23
497317,4973.17
497408,4974.08
497500,4975.0
497594,4975.94
497692,4976.92
497826,4978.26
497961,4979.61
498067,4980.67
498173,4981.73
498283,4982.83
498393,4983.93
498496,4984.96
498596,4985.96
498695,4986.95
498792,4987.92
498891,4988.91
498988,4989.88
499087,4990.87
499195,4991.95
499312,4993.12
499426,4994.26
499531,4995.31
499635,4996.35
499738,4997.38
499842,4998.42
499944,4999.44
500047,5000.47
500150,5001.5
500254,5002.54
500357,5003.57
500463,5004.63
500573,5005.73
500682,5006.82
500787,5007.87
500887,5008.87
500985,5009.85
501083,5010.83
501180,5011.8
501278,5012.78
501377,5013.77
501480,5014.8
501588,5015.88
501704,5017.04
501814,5018.14
501928,5019.28
502038,5020.38
502139,5021.39
502234,5022.34
502330,5023.3
502429,5024.29
502530,5025.3
502628,5026.28
502726,5027.26
502833,5028.33
502945,5029.45
503052,5030.52
503154,5031.54
503259,5032.59
503361,5033.61
503463,5034.63
503564,5035.64
503668,5036.68
503777,5037.77
503887,5038.87
503993,5039.93
504093,5040.93
504195,5041.95
504295,5042.95
504393,5043.93
504489,5044.89
504588,5045.88
504688,5046.88
504786,5047.86
504881,5048.81
504982,5049.82
505085,5050.85
505188,5051.88
505284,5052.84
505379,5053.79
505480,5054.8
505579,5055.79
505676,5056.76
505772,5057.72
505871,5058.71
505972,5059.72
506077,5060.77
506173,5061.73
506267,5062.67
506367,5063.67
506470,5064.7
506569,5065.69
506670,5066.7
506770,5067.7
506877,5068.77
506990,5069.9
507100,5071.0
507214,5072.14
507318,5073.18
507416,5074.16
507512,5075.12
507613,5076.13
507742,5077.42
507871,5078.71
507979,5079.79
508086,5080.86
508199,5081.99
508312,5083.12
508419,5084.19
508525,5085.25
508643,5086.43
508761,5087.61
508874,5088.74
508980,5089.8
509087,5090.87
509195,5091.95
509300,5093.0
509401,5094.01
509499,5094.99
509603,5096.03
509709,5097.09
509817,5098.17
509922,5099.22
510024,5100.24
510128,5101.28
510229,5102.29
510326,5103.26
510417,5104.17
510509,5105.09
510604,5106.04
510699,5106.99
510792,5107.92
510886,5108.86
510983,5109.83
511079,5110.79
511172,5111.72
511263,5112.63
511358,5113.58
511458,5114.58
511562,5115.62
511660,5116.6
511753,5117.53
511846,5118.46
511942,5119.42
512040,5120.4
512135,5121.35
512238,5122.38
512356,5123.56
512474,5124.74
512574,5125.74
512664,5126.64
512752,5127.52
512845,5128.45
512943,5129.43
513044,5130.44
513148,5131.48
513285,5132.85
513423,5134.23
513539,5135.39
513651,5136.51
513766,5137.66
513873,5138.73
513976,5139.76
514078,5140.78
514199,5141.99
514317,5143.17
514425,5144.25
514528,5145.28
514641,5146.41
514752,5147.52
514860,5148.6
514961,5149.61
515053,5150.53
515137,5151.37
515228,5152.28
515321,5153.21
515417,5154.17
515516,5155.16
515645,5156.45
515775,5157.75
515894,5158.94
516002,5160.02
516109,5161.09
516222,5162.22
516335,5163.35
516442,5164.42
516542,5165.42
516646,5166.46
516751,5167.51
516856,5168.56
516956,5169.56
517055,5170.55
517154,5171.54
517253,5172.53
517347,5173.47
517446,5174.46
517547,5175.47
517648,5176.48
517748,5177.48
517845,5178.45
517949,5179.49
518054,5180.54
518157,5181.57
518253,5182.53
518348,5183.48
518447,5184.47
518548,5185.48
518646,5186.46
518744,5187.44
518850,5188.5
518957,5189.57
519058,5190.58
519154,5191.54
519251,5192.51
519351,5193.51
519450,5194.5
519547,5195.47
519642,5196.42
519738,5197.38
519836,5198.36
519931,5199.31
520021,5200.21
520113,5201.13
520211,5202.11
520313,5203.13
520417,5204.17
520518,5205.18
520616,5206.16
520717,5207.17
520817,5208.17
520914,5209.14
521009,5210.09
521102,5211.02
521202,5212.02
521301,5213.01
521394,5213.94
521484,5214.84
521578,5215.78
521672,5216.72
521765,5217.65
521858,5218.58
521953,5219.53
522060,5220.6
522169,5221.69
522275,5222.75
522377,5223.77
522483,5224.83
522588,5225.88
522692,5226.92
522794,5227.94
522891,5228.91
522990,5229.9
523089,5230.89
523190,5231.9
523289,5232.89
523388,5233.88
523496,5234.96
523606,5236.06
523715,5237.15
523817,5238.17
523911,5239.11
524008,5240.08
524105,5241.05
524204,5242.04
524304,5243.04
524412,5244.12
524529,5245.29
524646,5246.46
524758,5247.58
524870,5248.7
524984,5249.84
525094,5250.94
525194,5251.94
525295,5252.95
525401,5254.01
525509,5255.09
525614,5256.14
525713,5257.13
525816,5258.16
525921,5259.21
526027,5260.27
526130,5261.3
526230,5262.3
526334,5263.34
526434,5264.34
526531,5265.31
526625,5266.25
526719,5267.19
526816,5268.16
526916,5269.16
527016,5270.16
527115,5271.15
527210,5272.1
527307,5273.07
527406,5274.06
527504,5275.04
527599,5275.99
527691,5276.91
527786,5277.86
527885,5278.85
527982,5279.82
528077,5280.77
528170,5281.7
528263,5282.63
528364,5283.64
528467,5284.67
528565,5285.65
528659,5286.59
528755,5287.55
528856,5288.56
528955,5289.55
529051,5290.51
529145,5291.45
529242,5292.42
529346,5293.46
529449,5294.49
529548,5295.48
529651,5296.51
529755,5297.55
529854,5298.54
529950,5299.5
530046,5300.46
530151,5301.51
530254,5302.54
530353,5303.53
530448,5304.48
530542,5305.42
530642,5306.42
530743,5307.43
530841,5308.41
530936,5309.36
531029,5310.29
531124,5311.24
531222,5312.22
531320,5313.2
531418,5314.18
531513,5315.13
531608,5316.08
531704,5317.04
531801,5318.01
531897,5318.97
531992,5319.92
532091,5320.91
532190,5321.9
532289,5322.89
532384,5323.84
532479,5324.79
532578,5325.78
532677,5326.77
532781,5327.81
532881,5328.81
532978,5329.78
533076,5330.76
533180,5331.8
533285,5332.85
533388,5333.88
533486,5334.86
533588,5335.88
533691,5336.91
533792,5337.92
533889,5338.89
533982,5339.82
534075,5340.75
534174,5341.74
534274,5342.74
534376,5343.76
534476,5344.76
534583,5345.83
534696,5346.96
534813,5348.13
534919,5349.19
535018,5350.18
535116,5351.16
535215,5352.15
535313,5353.13
535406,5354.06
535502,5355.02
535604,5356.04
535706,5357.06
535809,5358.09
535908,5359.08
536005,5360.05
536104,5361.04
536203,5362.03
536302,5363.02
536400,5364.0
536496,5364.96
536591,5365.91
536695,5366.95
536798,5367.98
536897,5368.97
536993,5369.93
537084,5370.84
537178,5371.78
537275,5372.75
537369,5373.69
537461,5374.61
537555,5375.55
537652,5376.52
537750,5377.5
537847,5378.47
537956,5379.56
538069,5380.69
538182,5381.82
538286,5382.86
538383,5383.83
538483,5384.83
538585,5385.85
538687,5386.87
538789,5387.89
538882,5388.82
538975,5389.75
539064,5390.64
539155,5391.55
539249,5392.49
539351,5393.51
539483,5394.83
539615,5396.15
539722,5397.22
539832,5398.32
539939,5399.39
540044,5400.44
540144,5401.44
540241,5402.41
540347,5403.47
540458,5404.58
540567,5405.67
540673,5406.73
540774,5407.74
540879,5408.79
540987,5409.87
541091,5410.91
541193,5411.93
541293,5412.93
541398,5413.98
541502,5415.02
541605,5416.05
541707,5417.07
541805,5418.05
541907,5419.07
542012,5420.12
542117,5421.17
542217,5422.17
542317,5423.17
542421,5424.21
542526,5425.26
542629,5426.29
542729,5427.29
542832,5428.32
542936,5429.36
543039,5430.39
543139,5431.39
543232,5432.32
543329,5433.29
543429,5434.29
543531,5435.31
543630,5436.3
543725,5437.25
543826,5438.26
543929,5439.29
544031,5440.31
544131,5441.31
544229,5442.29
544338,5443.38
544449,5444.49
544558,5445.58
544659,5446.59
544755,5447.55
544852,5448.52
544951,5449.51
545046,5450.46
545137,5451.37
545232,5452.32
545333,5453.33
545437,5454.37
545543,5455.43
545647,5456.47
545746,5457.46
545845,5458.45
545949,5459.49
546052,5460.52
546152,5461.52
546256,5462.56
546363,5463.63
546469,5464.69
546569,5465.69
546664,5466.64
546765,5467.65
546864,5468.64
546963,5469.63
547059,5470.59
547153,5471.53
547242,5472.42
547331,5473.31
547421,5474.21
547511,5475.11
547601,5476.01
547701,5477.01
547806,5478.06
547915,5479.15
548019,5480.19
548135,5481.35
548251,5482.51
548366,5483.66
548481,5484.81
548582,5485.82
548684,5486.84
548792,5487.92
548898,5488.98
549002,5490.02
549105,5491.05
549214,5492.14
549325,5493.25
549430,5494.3
549529,5495.29
549631,5496.31
549733,5497.33
549836,5498.36
549936,5499.36
550038,5500.38
550131,5501.31
550222,5502.22
550310,5503.1
550400,5504.0
550491,5504.91
550578,5505.78
550664,5506.64
550744,5507.44
550826,5508.26
550905,5509.05
550989,5509.89
551070,5510.7
551149,5511.49
551235,5512.35
551317,5513.17
551395,5513.95
551475,5514.75
551559,5515.59
551641,5516.41
551720,5517.2
551798,5517.98
551878,5518.78
551955,5519.55
552033,5520.33
552110,5521.1
552186,5521.86
552261,5522.61
552336,5523.36
552415,5524.15
552493,5524.93
552571,5525.71
552649,5526.49
552727,5527.27
552802,5528.02
552878,5528.78
552954,5529.54
553029,5530.29
553104,5531.04
553179,5531.79
553254,5532.54
553328,5533.28
553402,5534.02
553479,5534.79
553561,5535.61
553648,5536.48
553739,5537.39
553836,5538.36
553937,5539.37
554038,5540.38
554133,5541.33
554228,5542.28
554323,5543.23
554414,5544.14
554502,5545.02
554590,5545.9
554677,5546.77
554774,5547.74
554876,5548.76
554979,5549.79
555079,5550.79
555179,5551.79
555281,5552.81
555385,5553.85
555485,5554.85
555583,5555.83
555676,5556.76
555769,5557.69
555865,5558.65
555967,5559.67
556070,5560.7
556173,5561.73
556275,5562.75
556380,5563.8
556486,5564.86
556590,5565.9
556691,5566.91
556788,5567.88
556882,5568.82
556980,5569.8
557080,5570.8
557182,5571.82
557284,5572.84
557381,5573.81
557480,5574.8
557585,5575.85
557690,5576.9
557794,5577.94
557891,5578.91
557992,5579.92
558101,5581.01
558207,5582.07
558306,5583.06
558406,5584.06
558511,5585.11
558636,5586.36
558762,5587.62
558867,5588.67
558967,5589.67
559070,5590.7
559174,5591.74
559278,5592.78
559381,5593.81
559489,5594.89
559600,5596.0
559707,5597.07
559809,5598.09
559910,5599.1
560014,5600.14
560119,5601.19
560223,5602.23
560324,5603.24
560425,5604.25
560526,5605.26
560628,5606.28
560728,5607.28
560827,5608.27
560929,5609.29
561036,5610.36
561139,5611.39
561241,5612.41
561345,5613.45
561451,5614.51
561555,5615.55
561657,5616.57
561762,5617.62
561868,5618.68
561969,5619.69
562067,5620.67
562164,5621.64
562263,5622.63
562363,5623.63
562460,5624.6
562557,5625.57
562657,5626.57
562758,5627.58
562856,5628.56
562953,5629.53
563054,5630.54
563153,5631.53
563250,5632.5
563347,5633.47
563448,5634.48
563544,5635.44
563636,5636.36
563728,5637.28
563823,5638.23
563924,5639.24
564026,5640.26
564125,5641.25
564225,5642.25
564328,5643.28
564429,5644.29
564526,5645.26
564621,5646.21
564722,5647.22
564825,5648.25
564923,5649.23
565018,5650.18
565113,5651.13
565207,5652.07
565304,5653.04
565401,5654.01
565495,5654.95
565592,5655.92
565695,5656.95
565798,5657.98
565901,5659.01
565998,5659.98
566093,5660.93
566202,5662.02
566316,5663.16
566429,5664.29
566535,5665.35
566640,5666.4
566745,5667.45
566846,5668.46
566943,5669.43
567041,5670.41
567139,5671.39
567236,5672.36
567334,5673.34
567432,5674.32
567535,5675.35
567643,5676.43
567753,5677.53
567859,5678.59
567964,5679.64
568072,5680.72
568176,5681.76
568276,5682.76
568374,5683.74
568476,5684.76
568580,5685.8
568682,5686.82
568776,5687.76
568872,5688.72
568971,5689.71
569067,5690.67
569166,5691.66
569286,5692.86
569406,5694.06
569518,5695.18
569631,5696.31
569754,5697.54
569872,5698.72
569981,5699.81
570081,5700.81
570181,5701.81
570284,5702.84
570390,5703.9
570495,5704.95
570596,5705.96
570700,5707.0
570810,5708.1
570919,5709.19
571023,5710.23
571126,5711.26
571224,5712.24
571322,5713.22
571424,5714.24
571529,5715.29
571632,5716.32
571731,5717.31
571828,5718.28
571927,5719.27
572030,5720.3
572134,5721.34
572237,5722.37
572353,5723.53
572471,5724.71
572581,5725.81
572679,5726.79
572773,5727.73
572869,5728.69
572973,5729.73
573077,5730.77
573177,5731.77
573279,5732.79
573380,5733.8
573480,5734.8
573579,5735.79
573674,5736.74
573775,5737.75
573877,5738.77
573976,5739.76
574073,5740.73
574167,5741.67
574263,5742.63
574361,5743.61
574463,5744.63
574563,5745.63
574660,5746.6
574764,5747.64
574871,5748.71
574974,5749.74
575071,5750.71
575167,5751.67
575271,5752.71
575383,5753.83
575490,5754.9
575588,5755.88
575688,5756.88
575789,5757.89
575889,5758.89
575987,5759.87
576083,5760.83
576180,5761.8
576281,5762.81
576384,5763.84
576484,5764.84
576581,5765.81
576678,5766.78
576774,5767.74
576869,5768.69
576964,5769.64
577057,5770.57
577153,5771.53
577253,5772.53
577354,5773.54
577450,5774.5
577545,5775.45
577640,5776.4
577736,5777.36
577833,5778.33
577928,5779.28
578025,5780.25
578133,5781.33
578247,5782.47
578360,5783.6
578464,5784.64
578560,5785.6
578660,5786.6
578768,5787.68
578877,5788.77
578985,5789.85
579099,5790.99
579220,5792.2
579332,5793.32
579436,5794.36
579534,5795.34
579632,5796.32
579730,5797.3
579829,5798.29
579929,5799.29
580027,5800.27
580132,5801.32
580241,5802.41
580352,5803.52
580463,5804.63
580569,5805.69
580676,5806.76
580787,5807.87
580890,5808.9
580988,5809.88
581085,5810.85
581180,5811.8
581275,5812.75
581371,5813.71
581466,5814.66
581565,5815.65
581661,5816.61
581757,5817.57
581852,5818.52
581947,5819.47
582048,5820.48
582151,5821.51
582254,5822.54
582352,5823.52
582449,5824.49
582550,5825.5
582651,5826.51
582750,5827.5
582846,5828.46
582941,5829.41
583038,5830.38
583132,5831.32
583228,5832.28
583323,5833.23
583419,5834.19
583522,5835.22
583623,5836.23
583727,5837.27
583825,5838.25
583924,5839.24
584024,5840.24
584125,5841.25
584221,5842.21
584316,5843.16
584412,5844.12
584532,5845.32
584647,5846.47
584768,5847.68
584873,5848.73
584969,5849.69
585066,5850.66
585166,5851.66
585271,5852.71
585377,5853.77
585480,5854.8
585592,5855.92
585710,5857.1
585820,5858.2
585920,5859.2
586021,5860.21
586123,5861.23
586225,5862.25
586319,5863.19
586412,5864.12
586508,5865.08
586606,5866.06
586705,5867.05
586803,5868.03
586900,5869.0
587000,5870.0
587103,5871.03
587204,5872.04
587300,5873.0
587397,5873.97
587495,5874.95
587596,5875.96
587693,5876.93
587788,5877.88
587887,5878.87
587991,5879.91
588090,5880.9
588189,5881.89
588287,5882.87
588387,5883.87
588485,5884.85
588582,5885.82
588683,5886.83
588782,5887.82
588882,5888.82
588986,5889.86
589085,5890.85
589183,5891.83
589281,5892.81
589379,5893.79
589480,5894.8
589576,5895.76
589671,5896.71
589773,5897.73
589875,5898.75
589977,5899.77
590074,5900.74
590171,5901.71
590274,5902.74
590376,5903.76
590473,5904.73
590566,5905.66
590662,5906.62
590763,5907.63
590862,5908.62
590958,5909.58
591052,5910.52
591151,5911.51
591252,5912.52
591353,5913.53
591451,5914.51
591546,5915.46
591644,5916.44
591742,5917.42
591843,5918.43
591940,5919.4
592037,5920.37
592135,5921.35
592236,5922.36
592337,5923.37
592436,5924.36
592532,5925.32
592630,5926.3
592730,5927.3
592832,5928.32
592932,5929.32
593029,5930.29
593133,5931.33
593243,5932.43
593355,5933.55
593464,5934.64
593566,5935.66
593669,5936.69
593774,5937.74
593875,5938.75
593970,5939.7
594066,5940.66
594165,5941.65
594266,5942.66
594369,5943.69
594470,5944.7
594569,5945.69
594680,5946.8
594791,5947.91
594900,5949.0
595002,5950.02
595101,5951.01
595199,5951.99
595295,5952.95
595390,5953.9
595488,5954.88
595588,5955.88
595690,5956.9
595790,5957.9
595886,5958.86
595983,5959.83
596083,5960.83
596181,5961.81
596276,5962.76
596371,5963.71
596469,5964.69
596566,5965.66
596663,5966.63
596757,5967.57
596853,5968.53
596950,5969.5
597051,5970.51
597148,5971.48
597246,5972.46
597346,5973.46
597442,5974.42
597541,5975.41
597640,5976.4
597737,5977.37
597833,5978.33
597932,5979.32
598033,5980.33
598131,5981.31
598226,5982.26
598324,5983.24
598423,5984.23
598523,5985.23
598619,5986.19
598713,5987.13
598813,5988.13
598917,5989.17
599017,5990.17
599114,5991.14
599213,5992.13
599311,5993.11
599411,5994.11
599510,5995.1
599605,5996.05
599703,5997.03
599799,5997.99
599902,5999.02
600005,6000.05
600106,6001.06
600207,6002.07
600314,6003.14
600421,6004.21
600523,6005.23
600631,6006.31
600744,6007.44
600858,6008.58
600964,6009.64
601063,6010.63
601163,6011.63
601266,6012.66
601368,6013.68
601464,6014.64
601557,6015.57
601656,6016.56
601755,6017.55
601853,6018.53
601949,6019.49
602046,6020.46
602149,6021.49
602248,6022.48
602345,6023.45
602438,6024.38
602533,6025.33
602632,6026.32
602732,6027.32
602836,6028.36
602937,6029.37
603034,6030.34
603135,6031.35
603235,6032.35
603334,6033.34
603437,6034.37
603548,6035.48
603662,6036.62
603769,6037.69
603870,6038.7
603975,6039.75
604078,6040.78
604177,6041.77
604275,6042.75
604375,6043.75
604476,6044.76
604577,6045.77
604675,6046.75
604775,6047.75
604879,6048.79
604984,6049.84
605090,6050.9
605193,6051.93
605291,6052.91
605394,6053.94
605495,6054.95
605594,6055.94
605695,6056.95
605793,6057.93
605891,6058.91
605996,6059.96
606101,6061.01
606206,6062.06
606300,6063.0
606395,6063.95
606494,6064.94
606596,6065.96
606696,6066.96
606796,6067.96
606900,6069.0
607007,6070.07
607114,6071.14
607217,6072.17
607312,6073.12
607410,6074.1
607506,6075.06
607603,6076.03
607699,6076.99
607794,6077.94
607895,6078.95
607993,6079.93
608089,6080.89
608181,6081.81
608277,6082.77
608373,6083.73
608470,6084.7
608566,6085.66
608663,6086.63
608762,6087.62
608857,6088.57
608953,6089.53
609047,6090.47
609142,6091.42
609241,6092.41
609341,6093.41
609440,6094.4
609537,6095.37
609634,6096.34
609736,6097.36
609839,6098.39
609942,6099.42
610040,6100.4
610136,6101.36
610236,6102.36
610338,6103.38
610441,6104.41
610541,6105.41
610637,6106.37
610735,6107.35
610829,6108.29
610923,6109.23
611018,6110.18
611123,6111.23
611238,6112.38
611354,6113.54
611463,6114.63
611567,6115.67
611676,6116.76
611792,6117.92
611902,6119.02
612004,6120.04
612109,6121.09
612210,6122.1
612313,6123.13
612413,6124.13
612512,6125.12
612618,6126.18
612724,6127.24
612825,6128.25
612922,6129.22
613020,6130.2
613118,6131.18
613216,6132.16
613311,6133.11
613406,6134.06
613500,6135.0
613596,6135.96
613694,6136.94
613790,6137.9
613885,6138.85
613981,6139.81
614085,6140.85
614188,6141.88
614292,6142.92
614391,6143.91
614489,6144.89
614588,6145.88
614689,6146.89
614788,6147.88
614885,6148.85
614980,6149.8
615080,6150.8
615179,6151.79
615280,6152.8
615380,6153.8
615478,6154.78
615581,6155.81
615687,6156.87
615780,6157.8
615872,6158.72
615967,6159.67
616068,6160.68
616172,6161.72
616272,6162.72
616377,6163.77
616500,6165.0
616624,6166.24
616727,6167.27
616832,6168.32
616938,6169.38
617049,6170.49
617154,6171.54
617255,6172.55
617351,6173.51
617455,6174.55
617562,6175.62
617668,6176.68
617773,6177.73
617873,6178.73
617975,6179.75
618079,6180.79
618181,6181.81
618285,6182.85
618406,6184.06
618523,6185.23
618634,6186.34
618736,6187.36
618839,6188.39
618944,6189.44
619044,6190.44
619140,6191.4
619242,6192.42
619346,6193.46
619452,6194.52
619550,6195.5
619647,6196.47
619751,6197.51
619854,6198.54
619951,6199.51
620044,6200.44
620138,6201.38
620235,6202.35
620334,6203.34
620429,6204.29
620522,6205.22
620615,6206.15
620715,6207.15
620820,6208.2
620926,6209.26
621027,6210.27
621128,6211.28
621233,6212.33
621334,6213.34
621429,6214.29
621524,6215.24
621641,6216.41
621754,6217.54
621866,6218.66
621972,6219.72
622074,6220.74
622182,6221.82
622287,6222.87
622390,6223.9
622489,6224.89
622592,6225.92
622700,6227.0
622808,6228.08
622912,6229.12
623013,6230.13
623118,6231.18
623226,6232.26
623330,6233.3
623432,6234.32
623537,6235.37
623644,6236.44
623753,6237.53
623856,6238.56
623958,6239.58
624061,6240.61
624166,6241.66
624264,6242.64
624360,6243.6
624465,6244.65
624569,6245.69
624669,6246.69
624766,6247.66
624866,6248.66
624967,6249.67
625068,6250.68
625165,6251.65
625263,6252.63
625363,6253.63
625470,6254.7
625570,6255.7
625669,6256.69
625763,6257.63
625861,6258.61
625960,6259.6
626061,6260.61
626160,6261.6
626256,6262.56
626355,6263.55
626456,6264.56
626553,6265.53
626650,6266.5
626746,6267.46
626845,6268.45
626947,6269.47
627048,6270.48
627149,6271.49
627249,6272.49
627366,6273.66
627476,6274.76
627593,6275.93
627693,6276.93
627793,6277.93
627896,6278.96
628003,6280.03
628107,6281.07
628206,6282.06
628313,6283.13
628422,6284.22
628528,6285.28
628629,6286.29
628728,6287.28
628830,6288.3
628926,6289.26
629026,6290.26
629126,6291.26
629226,6292.26
629329,6293.29
629439,6294.39
629547,6295.47
629651,6296.51
629750,6297.5
629852,6298.52
629951,6299.51
630055,6300.55
630156,6301.56
630257,6302.57
630360,6303.6
630460,6304.6
630559,6305.59
630660,6306.6
630762,6307.62
630873,6308.73
630978,6309.78
631082,6310.82
631186,6311.86
631292,6312.92
631393,6313.93
631491,6314.91
631587,6315.87
631686,6316.86
631783,6317.83
631878,6318.78
631973,6319.73
632065,6320.65
632159,6321.59
632258,6322.58
632358,6323.58
632454,6324.54
632545,6325.45
632636,6326.36
632731,6327.31
632826,6328.26
632923,6329.23
633021,6330.21
633118,6331.18
633229,6332.29
633340,6333.4
633442,6334.42
633549,6335.49
633658,6336.58
633763,6337.63
633867,6338.67
633968,6339.68
634072,6340.72
634175,6341.75
634279,6342.79
634378,6343.78
634483,6344.83
634590,6345.9
634700,6347.0
634804,6348.04
634907,6349.07
635010,6350.1
635112,6351.12
635215,6352.15
635313,6353.13
635414,6354.14
635517,6355.17
635622,6356.22
635723,6357.23
635822,6358.22
635925,6359.25
636028,6360.28
636127,6361.27
636223,6362.23
636325,6363.25
636427,6364.27
636527,6365.27
636624,6366.24
636722,6367.22
636827,6368.27
636936,6369.36
637046,6370.46
637149,6371.49
637249,6372.49
637356,6373.56
637465,6374.65
637571,6375.71
637670,6376.7
637770,6377.7
637878,6378.78
637984,6379.84
638085,6380.85
638186,6381.86
638289,6382.89
638393,6383.93
638496,6384.96
638596,6385.96
638698,6386.98
638802,6388.02
638906,6389.06
639008,6390.08
639105,6391.05
639206,6392.06
639306,6393.06
639408,6394.08
639509,6395.09
639610,6396.1
639715,6397.15
639824,6398.24
639928,6399.28
640027,6400.27
640128,6401.28
640234,6402.34
640343,6403.43
640448,6404.48
640550,6405.5
640651,6406.51
640755,6407.55
640865,6408.65
640969,6409.69
641071,6410.71
641168,6411.68
641269,6412.69
641368,6413.68
641466,6414.66
641561,6415.61
641658,6416.58
641761,6417.61
641866,6418.66
641967,6419.67
642067,6420.67
642164,6421.64
642264,6422.64
642363,6423.63
642457,6424.57
642550,6425.5
642647,6426.47
642746,6427.46
642846,6428.46
642948,6429.48
643046,6430.46
643158,6431.58
643270,6432.7
643372,6433.72
643468,6434.68
643561,6435.61
643658,6436.58
643759,6437.59
643861,6438.61
643966,6439.66
644067,6440.67
644172,6441.72
644278,6442.78
644388,6443.88
644495,6444.95
644597,6445.97
644699,6446.99
644800,6448.0
644899,6448.99
644994,6449.94
645088,6450.88
645187,6451.87
645286,6452.86
645388,6453.88
645486,6454.86
645579,6455.79
645674,6456.74
645770,6457.7
645867,6458.67
645965,6459.65
646063,6460.63
646165,6461.65
646268,6462.68
646373,6463.73
646474,6464.74
646578,6465.78
646678,6466.78
646777,6467.77
646871,6468.71
646965,6469.65
647064,6470.64
647160,6471.6
647256,6472.56
647351,6473.51
647445,6474.45
647546,6475.46
647649,6476.49
647751,6477.51
647849,6478.49
647949,6479.49
648051,6480.51
648151,6481.51
648249,6482.49
648343,6483.43
648441,6484.41
648534,6485.34
648628,6486.28
648720,6487.2
648818,6488.18
648923,6489.23
649028,6490.28
649121,6491.21
649214,6492.14
649312,6493.12
649411,6494.11
649505,6495.05
649602,6496.02
649702,6497.02
649802,6498.02
649905,6499.05
650003,6500.03
650101,6501.01
650201,6502.01
650299,6502.99
650397,6503.97
650492,6504.92
650591,6505.91
650697,6506.97
650801,6508.01
650900,6509.0
651002,6510.02
651104,6511.04
651205,6512.05
651303,6513.03
651399,6513.99
651497,6514.97
651597,6515.97
651694,6516.94
651791,6517.91
651886,6518.86
651981,6519.81
652078,6520.78
652178,6521.78
652278,6522.78
652374,6523.74
652469,6524.69
652564,6525.64
652663,6526.63
652762,6527.62
652859,6528.59
652952,6529.52
653045,6530.45
653140,6531.4
653236,6532.36
653332,6533.32
653425,6534.25
653520,6535.2
653618,6536.18
653714,6537.14
653808,6538.08
653902,6539.02
653999,6539.99
654097,6540.97
654192,6541.92
654287,6542.87
654382,6543.82
654479,6544.79
654579,6545.79
654676,6546.76
654772,6547.72
654871,6548.71
654970,6549.7
655066,6550.66
655161,6551.61
655262,6552.62
655362,6553.62
655462,6554.62
655555,6555.55
655648,6556.48
655746,6557.46
655846,6558.46
655947,6559.47
656046,6560.46
656144,6561.44
656246,6562.46
656351,6563.51
656453,6564.53
656552,6565.52
656646,6566.46
656743,6567.43
656842,6568.42
656942,6569.42
657040,6570.4
657140,6571.4
657243,6572.43
657346,6573.46
657445,6574.45
657547,6575.47
657654,6576.54
657756,6577.56
657856,6578.56
657954,6579.54
658057,6580.57
658158,6581.58
658257,6582.57
658353,6583.53
658447,6584.47
658541,6585.41
658639,6586.39
658736,6587.36
658834,6588.34
658931,6589.31
659027,6590.27
659126,6591.26
659226,6592.26
659329,6593.29
659428,6594.28
659537,6595.37
659649,6596.49
659762,6597.62
659866,6598.66
659962,6599.62
660057,6600.57
660149,6601.49
660242,6602.42
660336,6603.36
660432,6604.32
660531,6605.31
660630,6606.3
660725,6607.25
660825,6608.25
660923,6609.23
661019,6610.19
661114,6611.14
661210,6612.1
661311,6613.11
661407,6614.07
661504,6615.04
661600,6616.0
661698,6616.98
661797,6617.97
661894,6618.94
661991,6619.91
662088,6620.88
662182,6621.82
662277,6622.77
662375,6623.75
662473,6624.73
662582,6625.82
662692,6626.92
662802,6628.02
662908,6629.08
663010,6630.1
663113,6631.13
663216,6632.16
663316,6633.16
663415,6634.15
663514,6635.14
663613,6636.13
663712,6637.12
663805,6638.05
663897,6638.97
663996,6639.96
664095,6640.95
664193,6641.93
664287,6642.87
664381,6643.81
664480,6644.8
664581,6645.81
664682,6646.82
664783,6647.83
664899,6648.99
665011,6650.11
665128,6651.28
665230,6652.3
665331,6653.31
665431,6654.31
665532,6655.32
665630,6656.3
665730,6657.3
665846,6658.46
665963,6659.63
666068,6660.68
666167,6661.67
666267,6662.67
666366,6663.66
666460,6664.6
666552,6665.52
666643,6666.43
666736,6667.36
666830,6668.3
666921,6669.21
667016,6670.16
667108,6671.08
667202,6672.02
667297,6672.97
667390,6673.9
667492,6674.92
667598,6675.98
667711,6677.11
667818,6678.18
667924,6679.24
668031,6680.31
668135,6681.35
668235,6682.35
668333,6683.33
668439,6684.39
668544,6685.44
668648,6686.48
668748,6687.48
668854,6688.54
668957,6689.57
669059,6690.59
669155,6691.55
669254,6692.54
669358,6693.58
669458,6694.58
669557,6695.57
669653,6696.53
669743,6697.43
669832,6698.32
669922,6699.22
670013,6700.13
670105,6701.05
670205,6702.05
670315,6703.15
670425,6704.25
670520,6705.2
670608,6706.08
670690,6706.9
670775,6707.75
670861,6708.61
670945,6709.45
671025,6710.25
671105,6711.05
671185,6711.85
671262,6712.62
671338,6713.38
671414,6714.14
671490,6714.9
671566,6715.66
671642,6716.42
671717,6717.17
671792,6717.92
671866,6718.66
671941,6719.41
672014,6720.14
672085,6720.85
672156,6721.56
672225,6722.25
672293,6722.93
672359,6723.59
672425,6724.25
672491,6724.91
672555,6725.55
672618,6726.18
672681,6726.81
672743,6727.43
672805,6728.05
672867,6728.67
672928,6729.28
672989,6729.89
673050,6730.5
673112,6731.12
673174,6731.74
673239,6732.39
673308,6733.08
673384,6733.84
673466,6734.66
673554,6735.54
673646,6736.46
673732,6737.32
673812,6738.12
673889,6738.89
673967,6739.67
674049,6740.49
674135,6741.35
674222,6742.22
674308,6743.08
674398,6743.98
674485,6744.85
674568,6745.68
674649,6746.49
674737,6747.37
674835,6748.35
674937,6749.37
675043,6750.43
675151,6751.51
675257,6752.57
675364,6753.64
675469,6754.69
675572,6755.72
675679,6756.79
675789,6757.89
675897,6758.97
676004,6760.04
676106,6761.06
676207,6762.07
676304,6763.04
676401,6764.01
676498,6764.98
676605,6766.05
676728,6767.28
676844,6768.44
676959,6769.59
677074,6770.74
677189,6771.89
677305,6773.05
677401,6774.01
677497,6774.97
677599,6775.99
677712,6777.12
677829,6778.29
677948,6779.48
678063,6780.63
678182,6781.82
678302,6783.02
678414,6784.14
678524,6785.24
678628,6786.28
678730,6787.3
678834,6788.34
678940,6789.4
679040,6790.4
679138,6791.38
679238,6792.38
679341,6793.41
679447,6794.47
679553,6795.53
679656,6796.56
679762,6797.62
679871,6798.71
679976,6799.76
680075,6800.75
680172,6801.72
680271,6802.71
680370,6803.7
680469,6804.69
680564,6805.64
680661,6806.61
680757,6807.57
680854,6808.54
680950,6809.5
681040,6810.4
681138,6811.38
681239,6812.39
681338,6813.38
681434,6814.34
681529,6815.29
681624,6816.24
681717,6817.17
681809,6818.09
681901,6819.01
681997,6819.97
682096,6820.96
682194,6821.94
682291,6822.91
682393,6823.93
682488,6824.88
682580,6825.8
682669,6826.69
682757,6827.57
682845,6828.45
682936,6829.36
683029,6830.29
683122,6831.22
683215,6832.15
683313,6833.13
683414,6834.14
683514,6835.14
683612,6836.12
683707,6837.07
683804,6838.04
683897,6838.97
683989,6839.89
684080,6840.8
684171,6841.71
684263,6842.63
684356,6843.56
684451,6844.51
684547,6845.47
684642,6846.42
684739,6847.39
684840,6848.4
684943,6849.43
685044,6850.44
685142,6851.42
685241,6852.41
685343,6853.43
685440,6854.4
685532,6855.32
685625,6856.25
685727,6857.27
685827,6858.27
685926,6859.26
686026,6860.26
686128,6861.28
686231,6862.31
686332,6863.32
686428,6864.28
686518,6865.18
686608,6866.08
686702,6867.02
686808,6868.08
686921,6869.21
687033,6870.33
687156,6871.56
687280,6872.8
687387,6873.87
687491,6874.91
687597,6875.97
687698,6876.98
687796,6877.96
687895,6878.95
687993,6879.93
688088,6880.88
688182,6881.82
688278,6882.78
688380,6883.8
688479,6884.79
688576,6885.76
688676,6886.76
688776,6887.76
688875,6888.75
688969,6889.69
689067,6890.67
689163,6891.63
689258,6892.58
689350,6893.5
689441,6894.41
689530,6895.3
689624,6896.24
689712,6897.12
689799,6897.99
689884,6898.84
689969,6899.69
690054,6900.54
690143,6901.43
690230,6902.3
690320,6903.2
690412,6904.12
690503,6905.03
690595,6905.95
690692,6906.92
690787,6907.87
690881,6908.81
690974,6909.74
691068,6910.68
691163,6911.63
691260,6912.6
691356,6913.56
691449,6914.49
691545,6915.45
691645,6916.45
691744,6917.44
691848,6918.48
691949,6919.49
692054,6920.54
692158,6921.58
692258,6922.58
692352,6923.52
692444,6924.44
692537,6925.37
692629,6926.29
692722,6927.22
692815,6928.15
692910,6929.1
693007,6930.07
693103,6931.03
693197,6931.97
693290,6932.9
693386,6933.86
693484,6934.84
693582,6935.82
693677,6936.77
693771,6937.71
693866,6938.66
693964,6939.64
694061,6940.61
694154,6941.54
694248,6942.48
694346,6943.46
694444,6944.44
694542,6945.42
694636,6946.36
694729,6947.29
694827,6948.27
694925,6949.25
695020,6950.2
695113,6951.13
695210,6952.1
695304,6953.04
695398,6953.98
695493,6954.93
695586,6955.86
695678,6956.78
695767,6957.67
695859,6958.59
695953,6959.53
696045,6960.45
696134,6961.34
696224,6962.24
696313,6963.13
696401,6964.01
696490,6964.9
696579,6965.79
696666,6966.66
696753,6967.53
696844,6968.44
696939,6969.39
697038,6970.38
697132,6971.32
697225,6972.25
697318,6973.18
697408,6974.08
697498,6974.98
697586,6975.86
697676,6976.76
697764,6977.64
697853,6978.53
697942,6979.42
698032,6980.32
698122,6981.22
698214,6982.14
698303,6983.03
698393,6983.93
698485,6984.85
698579,6985.79
698671,6986.71
698760,6987.6
698852,6988.52
698944,6989.44
699037,6990.37
699128,6991.28
699219,6992.19
699313,6993.13
699407,6994.07
699501,6995.01
699597,6995.97
699686,6996.86
699775,6997.75
699866,6998.66
699958,6999.58
700049,7000.49
700138,7001.38
700226,7002.26
700317,7003.17
700411,7004.11
700504,7005.04
700597,7005.97
700692,7006.92
700787,7007.87
700881,7008.81
700975,7009.75
701067,7010.67
701156,7011.56
701244,7012.44
701333,7013.33
701421,7014.21
701509,7015.09
701596,7015.96
701684,7016.84
701773,7017.73
701860,7018.6
701946,7019.46
702032,7020.32
702119,7021.19
702212,7022.12
702307,7023.07
702405,7024.05
702502,7025.02
702600,7026.0
702700,7027.0
702802,7028.02
702901,7029.01
702996,7029.96
703087,7030.87
703177,7031.77
703268,7032.68
703360,7033.6
703452,7034.52
703543,7035.43
703635,7036.35
703728,7037.28
703822,7038.22
703916,7039.16
704010,7040.1
704102,7041.02
704191,7041.91
704279,7042.79
704366,7043.66
704454,7044.54
704545,7045.45
704639,7046.39
704735,7047.35
704832,7048.32
704934,7049.34
705036,7050.36
705140,7051.4
705245,7052.45
705346,7053.46
705448,7054.48
705550,7055.5
705648,7056.48
705744,7057.44
705842,7058.42
705940,7059.4
706038,7060.38
706133,7061.33
706232,7062.32
706332,7063.32
706431,7064.31
706528,7065.28
706625,7066.25
706721,7067.21
706817,7068.17
706913,7069.13
707005,7070.05
707099,7070.99
707193,7071.93
707288,7072.88
707383,7073.83
707479,7074.79
707580,7075.8
707683,7076.83
707785,7077.85
707887,7078.87
707985,7079.85
708081,7080.81
708176,7081.76
708268,7082.68
708358,7083.58
708448,7084.48
708545,7085.45
708650,7086.5
708759,7087.59
708865,7088.65
708971,7089.71
709084,7090.84
709197,7091.97
709299,7092.99
709395,7093.95
709490,7094.9
709586,7095.86
709683,7096.83
709781,7097.81
709879,7098.79
709979,7099.79
710082,7100.82
710185,7101.85
710286,7102.86
710384,7103.84
710478,7104.78
710572,7105.72
710667,7106.67
710762,7107.62
710856,7108.56
710952,7109.52
711055,7110.55
711158,7111.58
711260,7112.6
711358,7113.58
711458,7114.58
711558,7115.58
711654,7116.54
711748,7117.48
711839,7118.39
711933,7119.33
712026,7120.26
712118,7121.18
712208,7122.08
712301,7123.01
712399,7123.99
712497,7124.97
712594,7125.94
712691,7126.91
712785,7127.85
712878,7128.78
712970,7129.7
713067,7130.67
713165,7131.65
713261,7132.61
713356,7133.56
713450,7134.5
713544,7135.44
713636,7136.36
713726,7137.26
713816,7138.16
713912,7139.12
714009,7140.09
714103,7141.03
714195,7141.95
714288,7142.88
714381,7143.81
714475,7144.75
714565,7145.65
714655,7146.55
714745,7147.45
714836,7148.36
714925,7149.25
715010,7150.1
715096,7150.96
715186,7151.86
715284,7152.84
715383,7153.83
715481,7154.81
715589,7155.89
715698,7156.98
715803,7158.03
715898,7158.98
715988,7159.88
716078,7160.78
716167,7161.67
716253,7162.53
716339,7163.39
716430,7164.3
716522,7165.22
716617,7166.17
716711,7167.11
716805,7168.05
716904,7169.04
717006,7170.06
717105,7171.05
717202,7172.02
717299,7172.99
717394,7173.94
717488,7174.88
717584,7175.84
717680,7176.8
717773,7177.73
717865,7178.65
717958,7179.58
718053,7180.53
718150,7181.5
718242,7182.42
718331,7183.31
718427,7184.27
718526,7185.26
718625,7186.25
718720,7187.2
718817,7188.17
718920,7189.2
719020,7190.2
719115,7191.15
719207,7192.07
719301,7193.01
719395,7193.95
719492,7194.92
719587,7195.87
719681,7196.81
719779,7197.79
719876,7198.76
719974,7199.74
720068,7200.68
720164,7201.64
720263,7202.63
720360,7203.6
720457,7204.57
720552,7205.52
720650,7206.5
720749,7207.49
720848,7208.48
720945,7209.45
721036,7210.36
721126,7211.26
721218,7212.18
721311,7213.11
721407,7214.07
721504,7215.04
721601,7216.01
721699,7216.99
721807,7218.07
721916,7219.16
722023,7220.23
722122,7221.22
722218,7222.18
722312,7223.12
722404,7224.04
722497,7224.97
722591,7225.91
722692,7226.92
722801,7228.01
722908,7229.08
723012,7230.12
723114,7231.14
723219,7232.19
723324,7233.24
723424,7234.24
723520,7235.2
723615,7236.15
723713,7237.13
723809,7238.09
723906,7239.06
724002,7240.02
724097,7240.97
724196,7241.96
724294,7242.94
724388,7243.88
724478,7244.78
724570,7245.7
724663,7246.63
724758,7247.58
724853,7248.53
724945,7249.45
725038,7250.38
725133,7251.33
725228,7252.28
725323,7253.23
725415,7254.15
725513,7255.13
725612,7256.12
725709,7257.09
725803,7258.03
725896,7258.96
725995,7259.95
726090,7260.9
726185,7261.85
726276,7262.76
726367,7263.67
726464,7264.64
726561,7265.61
726656,7266.56
726748,7267.48
726839,7268.39
726931,7269.31
727027,7270.27
727121,7271.21
727218,7272.18
727317,7273.17
727415,7274.15
727510,7275.1
727605,7276.05
727703,7277.03
727800,7278.0
727894,7278.94
727983,7279.83
728076,7280.76
728165,7281.65
728259,7282.59
728357,7283.57
728457,7284.57
728552,7285.52
728643,7286.43
728740,7287.4
728838,7288.38
728938,7289.38
729034,7290.34
729127,7291.27
729222,7292.22
729316,7293.16
729406,7294.06
729494,7294.94
729585,7295.85
729682,7296.82
729784,7297.84
729890,7298.9
729994,7299.94
730102,7301.02
730211,7302.11
730318,7303.18
730418,7304.18
730513,7305.13
730609,7306.09
730705,7307.05
730801,7308.01
730896,7308.96
730989,7309.89
731084,7310.84
731181,7311.81
731282,7312.82
731381,7313.81
731479,7314.79
731573,7315.73
731667,7316.67
731762,7317.62
731858,7318.58
731953,7319.53
732052,7320.52
732150,7321.5
732246,7322.46
732339,7323.39
732437,7324.37
732533,7325.33
732634,7326.34
732735,7327.35
732830,7328.3
732924,7329.24
733016,7330.16
733108,7331.08
733200,7332.0
733295,7332.95
733396,7333.96
733497,7334.97
733592,7335.92
733684,7336.84
733778,7337.78
733871,7338.71
733963,7339.63
734052,7340.52
734142,7341.42
734234,7342.34
734327,7343.27
734419,7344.19
734509,7345.09
734601,7346.01
734694,7346.94
734787,7347.87
734881,7348.81
734976,7349.76
735074,7350.74
735172,7351.72
735266,7352.66
735360,7353.6
735456,7354.56
735549,7355.49
735643,7356.43
735739,7357.39
735835,7358.35
735927,7359.27
736020,7360.2
736115,7361.15
736208,7362.08
736300,7363.0
736390,7363.9
736478,7364.78
736568,7365.68
736657,7366.57
736746,7367.46
736833,7368.33
736921,7369.21
737008,7370.08
737097,7370.97
737187,7371.87
737274,7372.74
737361,7373.61
737450,7374.5
737539,7375.39
737628,7376.28
737716,7377.16
737802,7378.02
737889,7378.89
737976,7379.76
738068,7380.68
738164,7381.64
738264,7382.64
738364,7383.64
738462,7384.62
738556,7385.56
738647,7386.47
738738,7387.38
738829,7388.29
738918,7389.18
739005,7390.05
739091,7390.91
739179,7391.79
739266,7392.66
739355,7393.55
739444,7394.44
739534,7395.34
739626,7396.26
739718,7397.18
739810,7398.1
739900,7399.0
739992,7399.92
740084,7400.84
740175,7401.75
740267,7402.67
740355,7403.55
740442,7404.42
740525,7405.25
740605,7406.05
740683,7406.83
740761,7407.61
740842,7408.42
740927,7409.27
741034,7410.34
741143,7411.43
741251,7412.51
741353,7413.53
741458,7414.58
741563,7415.63
741663,7416.63
741760,7417.6
741852,7418.52
741944,7419.44
742037,7420.37
742131,7421.31
742227,7422.27
742323,7423.23
742419,7424.19
742518,7425.18
742619,7426.19
742719,7427.19
742814,7428.14
742907,7429.07
743000,7430.0
743094,7430.94
743190,7431.9
743285,7432.85
743380,7433.8
743474,7434.74
743570,7435.7
743668,7436.68
743764,7437.64
743858,7438.58
743949,7439.49
744042,7440.42
744135,7441.35
744228,7442.28
744319,7443.19
744408,7444.08
744501,7445.01
744594,7445.94
744687,7446.87
744780,7447.8
744874,7448.74
744971,7449.71
745071,7450.71
745168,7451.68
745263,7452.63
745355,7453.55
745443,7454.43
745533,7455.33
745623,7456.23
745713,7457.13
745801,7458.01
745890,7458.9
745981,7459.81
746075,7460.75
746169,7461.69
746262,7462.62
746355,7463.55
746445,7464.45
746534,7465.34
746622,7466.22
746712,7467.12
746804,7468.04
746893,7468.93
746979,7469.79
747064,7470.64
747151,7471.51
747239,7472.39
747327,7473.27
747415,7474.15
747504,7475.04
747595,7475.95
747687,7476.87
747778,7477.78
747866,7478.66
747952,7479.52
748039,7480.39
748125,7481.25
748212,7482.12
748298,7482.98
748384,7483.84
748473,7484.73
748562,7485.62
748651,7486.51
748739,7487.39
748827,7488.27
748917,7489.17
749008,7490.08
749099,7490.99
749189,7491.89
749279,7492.79
749370,7493.7
749463,7494.63
749555,7495.55
749646,7496.46
749734,7497.34
749823,7498.23
749911,7499.11
749998,7499.98
750086,7500.86
750175,7501.75
750270,7502.7
750370,7503.7
750470,7504.7
750567,7505.67
750663,7506.63
750759,7507.59
750853,7508.53
750946,7509.46
751038,7510.38
751130,7511.3
751222,7512.22
751315,7513.15
751406,7514.06
751498,7514.98
751590,7515.9
751683,7516.83
751776,7517.76
751871,7518.71
751966,7519.66
752059,7520.59
752153,7521.53
752247,7522.47
752338,7523.38
752427,7524.27
752516,7525.16
752606,7526.06
752697,7526.97
752787,7527.87
752876,7528.76
752964,7529.64
753054,7530.54
753146,7531.46
753239,7532.39
753331,7533.31
753421,7534.21
753510,7535.1
753602,7536.02
753694,7536.94
753786,7537.86
753875,7538.75
753964,7539.64
754054,7540.54
754148,7541.48
754243,7542.43
754336,7543.36
754428,7544.28
754522,7545.22
754616,7546.16
754709,7547.09
754801,7548.01
754890,7548.9
754979,7549.79
755065,7550.65
755151,7551.51
755236,7552.36
755320,7553.2
755406,7554.06
755494,7554.94
755583,7555.83
755673,7556.73
755762,7557.62
755851,7558.51
755942,7559.42
756034,7560.34
756124,7561.24
756212,7562.12
756298,7562.98
756384,7563.84
756475,7564.75
756567,7565.67
756660,7566.6
756753,7567.53
756845,7568.45
756937,7569.37
757028,7570.28
757117,7571.17
757202,7572.02
757287,7572.87
757376,7573.76
757469,7574.69
757566,7575.66
757660,7576.6
757756,7577.56
757854,7578.54
757952,7579.52
758045,7580.45
758137,7581.37
758229,7582.29
758321,7583.21
758411,7584.11
758502,7585.02
758593,7585.93
758683,7586.83
758769,7587.69
758855,7588.55
758938,7589.38
759022,7590.22
759105,7591.05
759194,7591.94
759296,7592.96
759400,7594.0
759502,7595.02
759602,7596.02
759707,7597.07
759811,7598.11
759908,7599.08
759999,7599.99
760088,7600.88
760179,7601.79
760271,7602.71
760362,7603.62
760451,7604.51
760542,7605.42
760638,7606.38
760733,7607.33
760829,7608.29
760920,7609.2
761012,7610.12
761105,7611.05
761198,7611.98
761290,7612.9
761384,7613.84
761474,7614.74
761565,7615.65
761656,7616.56
761752,7617.52
761852,7618.52
761958,7619.58
762062,7620.62
762166,7621.66
762272,7622.72
762377,7623.77
762478,7624.78
762574,7625.74
762664,7626.64
762752,7627.52
762841,7628.41
762936,7629.36
763034,7630.34
763132,7631.32
763235,7632.35
763340,7633.4
763443,7634.43
763542,7635.42
763637,7636.37
763733,7637.33
763830,7638.3
763927,7639.27
764027,7640.27
764127,7641.27
764229,7642.29
764333,7643.33
764434,7644.34
764529,7645.29
764617,7646.17
764699,7646.99
764777,7647.77
764855,7648.55
764932,7649.32
765009,7650.09
765084,7650.84
765162,7651.62
765250,7652.5
765352,7653.52
765459,7654.59
765568,7655.68
765672,7656.72
765776,7657.76
765881,7658.81
765979,7659.79
766075,7660.75
766169,7661.69
766261,7662.61
766356,7663.56
766452,7664.52
766549,7665.49
766646,7666.46
766739,7667.39
766834,7668.34
766931,7669.31
767028,7670.28
767122,7671.22
767216,7672.16
767309,7673.09
767402,7674.02
767492,7674.92
767588,7675.88
767682,7676.82
767773,7677.73
767865,7678.65
767954,7679.54
768044,7680.44
768133,7681.33
768224,7682.24
768317,7683.17
768411,7684.11
768512,7685.12
768616,7686.16
768725,7687.25
768832,7688.32
768937,7689.37
769049,7690.49
769154,7691.54
769254,7692.54
769355,7693.55
769458,7694.58
769558,7695.58
769661,7696.61
769766,7697.66
769871,7698.71
769972,7699.72
770069,7700.69
770165,7701.65
770260,7702.6
770357,7703.57
770454,7704.54
770555,7705.55
770659,7706.59
770763,7707.63
770862,7708.62
770962,7709.62
771065,7710.65
771166,7711.66
771263,7712.63
771358,7713.58
771454,7714.54
771542,7715.42
771628,7716.28
771712,7717.12
771798,7717.98
771898,7718.98
772015,7720.15
772128,7721.28
772237,7722.37
772350,7723.5
772461,7724.61
772567,7725.67
772667,7726.67
772765,7727.65
772864,7728.64
772963,7729.63
773060,7730.6
773157,7731.57
773253,7732.53
773350,7733.5
773447,7734.47
773542,7735.42
773634,7736.34
773725,7737.25
773817,7738.17
773910,7739.1
774006,7740.06
774102,7741.02
774197,7741.97
774296,7742.96
774398,7743.98
774501,7745.01
774603,7746.03
774702,7747.02
774802,7748.02
774899,7748.99
774996,7749.96
775093,7750.93
775188,7751.88
775286,7752.86
775383,7753.83
775479,7754.79
775574,7755.74
775667,7756.67
775764,7757.64
775860,7758.6
775958,7759.58
776053,7760.53
776148,7761.48
776245,7762.45
776341,7763.41
776436,7764.36
776530,7765.3
776624,7766.24
776718,7767.18
776812,7768.12
776906,7769.06
777000,7770.0
777097,7770.97
777196,7771.96
777293,7772.93
777386,7773.86
777477,7774.77
777567,7775.67
777659,7776.59
777750,7777.5
777840,7778.4
777931,7779.31
778026,7780.26
778123,7781.23
778220,7782.2
778319,7783.19
778424,7784.24
778529,7785.29
778627,7786.27
778721,7787.21
778813,7788.13
778904,7789.04
779001,7790.01
779101,7791.01
779202,7792.02
779301,7793.01
779398,7793.98
779497,7794.97
779599,7795.99
779701,7797.01
779801,7798.01
779896,7798.96
779993,7799.93
780089,7800.89
780185,7801.85
780279,7802.79
780372,7803.72
780469,7804.69
780565,7805.65
780659,7806.59
780750,7807.5
780840,7808.4
780930,7809.3
781024,7810.24
781121,7811.21
781218,7812.18
781315,7813.15
781416,7814.16
781518,7815.18
781617,7816.17
781711,7817.11
781805,7818.05
781902,7819.02
782000,7820.0
782096,7820.96
782189,7821.89
782284,7822.84
782379,7823.79
782474,7824.74
782567,7825.67
782658,7826.58
782752,7827.52
782849,7828.49
782945,7829.45
783041,7830.41
783139,7831.39
783243,7832.43
783348,7833.48
783452,7834.52
783551,7835.51
783653,7836.53
783752,7837.52
783849,7838.49
783944,7839.44
784038,7840.38
784133,7841.33
784226,7842.26
784317,7843.17
784405,7844.05
784494,7844.94
784591,7845.91
784691,7846.91
784791,7847.91
784888,7848.88
784988,7849.88
785089,7850.89
785191,7851.91
785289,7852.89
785384,7853.84
785478,7854.78
785571,7855.71
785663,7856.63
785754,7857.54
785847,7858.47
785945,7859.45
786044,7860.44
786141,7861.41
786235,7862.35
786329,7863.29
786424,7864.24
786517,7865.17
786608,7866.08
786697,7866.97
786786,7867.86
786877,7868.77
786968,7869.68
787061,7870.61
787154,7871.54
787249,7872.49
787351,7873.51
787454,7874.54
787554,7875.54
787654,7876.54
787755,7877.55
787856,7878.56
787957,7879.57
788057,7880.57
788155,7881.55
788255,7882.55
788355,7883.55
788455,7884.55
788552,7885.52
788652,7886.52
788752,7887.52
788853,7888.53
788947,7889.47
789039,7890.39
789136,7891.36
789236,7892.36
789338,7893.38
789434,7894.34
789530,7895.3
789634,7896.34
789746,7897.46
789855,7898.55
789964,7899.64
790069,7900.69
790176,7901.76
790282,7902.82
790385,7903.85
790484,7904.84
790586,7905.86
790690,7906.9
790792,7907.92
790890,7908.9
790986,7909.86
791086,7910.86
791185,7911.85
791283,7912.83
791379,7913.79
791477,7914.77
791576,7915.76
791675,7916.75
791772,7917.72
791870,7918.7
791973,7919.73
792073,7920.73
792173,7921.73
792268,7922.68
792360,7923.6
792453,7924.53
792547,7925.47
792639,7926.39
792728,7927.28
792820,7928.2
792914,7929.14
793006,7930.06
793098,7930.98
793189,7931.89
793285,7932.85
793380,7933.8
793473,7934.73
793565,7935.65
793658,7936.58
793753,7937.53
793848,7938.48
793940,7939.4
794033,7940.33
794125,7941.25
794216,7942.16
794307,7943.07
794399,7943.99
794495,7944.95
794591,7945.91
794687,7946.87
794781,7947.81
794874,7948.74
794970,7949.7
795066,7950.66
795161,7951.61
795254,7952.54
795348,7953.48
795445,7954.45
795542,7955.42
795636,7956.36
795729,7957.29
795827,7958.27
795925,7959.25
796021,7960.21
796115,7961.15
796206,7962.06
796301,7963.01
796394,7963.94
796485,7964.85
796573,7965.73
796659,7966.59
796747,7967.47
796836,7968.36
796923,7969.23
797009,7970.09
797100,7971.0
797196,7971.96
797288,7972.88
797381,7973.81
797475,7974.75
797574,7975.74
797675,7976.75
797774,7977.74
797869,7978.69
797963,7979.63
798060,7980.6
798158,7981.58
798256,7982.56
798354,7983.54
798458,7984.58
798565,7985.65
798670,7986.7
798773,7987.73
798878,7988.78
798980,7989.8
799081,7990.81
799182,7991.82
799281,7992.81
799383,7993.83
799486,7994.86
799585,7995.85
799682,7996.82
799779,7997.79
799875,7998.75
799970,7999.7
800065,8000.65
800160,8001.6
800261,8002.61
800364,8003.64
800468,8004.68
800571,8005.71
800671,8006.71
800776,8007.76
800881,8008.81
800984,8009.84
801080,8010.8
801175,8011.75
801270,8012.7
801366,8013.66
801461,8014.61
801552,8015.52
801645,8016.45
801741,8017.41
801842,8018.42
801943,8019.43
802040,8020.4
802138,8021.38
802238,8022.38
802338,8023.38
802438,8024.38
802535,8025.35
802635,8026.35
802736,8027.36
802837,8028.37
802936,8029.36
803034,8030.34
803134,8031.34
803234,8032.34
803334,8033.34
803432,8034.32
803525,8035.25
803618,8036.18
803714,8037.14
803814,8038.14
803920,8039.2
804025,8040.25
804136,8041.36
804251,8042.51
804361,8043.61
804465,8044.65
804564,8045.64
804667,8046.67
804767,8047.67
804867,8048.67
804962,8049.62
805060,8050.6
805162,8051.62
805264,8052.64
805366,8053.66
805463,8054.63
805561,8055.61
805662,8056.62
805764,8057.64
805865,8058.65
805963,8059.63
806063,8060.63
