sample,time_sec
41,0.41
102,1.02
163,1.63
224,2.24
287,2.87
351,3.51
414,4.14
476,4.76
543,5.43
613,6.13
688,6.88
766,7.66
839,8.39
911,9.11
983,9.83
1057,10.57
1132,11.32
1207,12.07
1283,12.83
1357,13.57
1439,14.39
1524,15.24
1609,16.09
1689,16.89
1767,17.67
1841,18.41
1916,19.16
1988,19.88
2062,20.62
2135,21.35
2206,22.06
2277,22.77
2346,23.46
2415,24.15
2487,24.87
2556,25.56
2621,26.21
2687,26.87
2753,27.53
2819,28.19
2882,28.82
2941,29.41
3001,30.01
3070,30.7
3133,31.33
3196,31.96
3258,32.58
3321,33.21
3382,33.82
3443,34.43
3511,35.11
3579,35.79
3645,36.45
3709,37.09
3773,37.73
3837,38.37
3903,39.03
3972,39.72
4043,40.43
4110,41.1
4177,41.77
4245,42.45
4318,43.18
4394,43.94
4469,44.69
4539,45.39
4609,46.09
4677,46.77
4749,47.49
4818,48.18
4874,48.74
4930,49.3
5003,50.03
5076,50.76
5136,51.36
5203,52.03
5267,52.67
5334,53.34
5401,54.01
5468,54.68
5538,55.38
5610,56.1
5687,56.87
5759,57.59
5830,58.3
5906,59.06
5981,59.81
6059,60.59
6132,61.32
6203,62.03
6276,62.76
6348,63.48
6420,64.2
6491,64.91
6558,65.58
6625,66.25
6706,67.06
6782,67.82
6854,68.54
6926,69.26
6998,69.98
7074,70.74
7151,71.51
7226,72.26
7288,72.88
7351,73.51
7426,74.26
7501,75.01
7571,75.71
7641,76.41
7709,77.09
7775,77.75
7839,78.39
7906,79.06
7972,79.72
8037,80.37
8103,81.03
8169,81.69
8237,82.37
8305,83.05
8374,83.74
8451,84.51
8527,85.27
8601,86.01
8674,86.74
8749,87.49
8820,88.2
8888,88.88
8952,89.52
9017,90.17
9088,90.88
9159,91.59
9227,92.27
9295,92.95
9365,93.65
9441,94.41
9515,95.15
9584,95.84
9656,96.56
9728,97.28
9802,98.02
9873,98.73
9943,99.43
10014,100.14
10086,100.86
10160,101.6
10231,102.31
10301,103.01
10373,103.73
10445,104.45
10518,105.18
10589,105.89
10657,106.57
10728,107.28
10801,108.01
10875,108.75
10947,109.47
11014,110.14
11081,110.81
11148,111.48
11214,112.14
11284,112.84
11354,113.54
11420,114.2
11489,114.89
11558,115.58
11630,116.3
11704,117.04
11772,117.72
11838,118.38
11905,119.05
11975,119.75
12044,120.44
12111,121.11
12176,121.76
12241,122.41
12306,123.06
12371,123.71
12437,124.37
12501,125.01
12566,125.66
12630,126.3
12696,126.96
12759,127.59
12820,128.2
12882,128.82
12944,129.44
13007,130.07
13072,130.72
13139,131.39
13206,132.06
13277,132.77
13350,133.5
13425,134.25
13498,134.98
13572,135.72
13642,136.42
13712,137.12
13781,137.81
13848,138.48
13914,139.14
13982,139.82
14050,140.5
14124,141.24
14196,141.96
14265,142.65
14332,143.32
14429,144.29
14526,145.26
14617,146.17
14707,147.07
14794,147.94
14879,148.79
14962,149.62
15044,150.44
15125,151.25
15205,152.05
15282,152.82
15354,153.54
15426,154.26
15507,155.07
15592,155.92
15672,156.72
15749,157.49
15819,158.19
15887,158.87
15955,159.55
16022,160.22
16087,160.87
16151,161.51
16208,162.08
16266,162.66
16328,163.28
16397,163.97
16467,164.67
16532,165.32
16587,165.87
16657,166.57
16727,167.27
16798,167.98
16867,168.67
16933,169.33
17006,170.06
17079,170.79
17137,171.37
17188,171.88
17245,172.45
17294,172.94
17347,173.47
17392,173.92
17456,174.56
17521,175.21
17578,175.78
17635,176.35
17707,177.07
17780,177.8
17851,178.51
17915,179.15
17985,179.85
18055,180.55
18120,181.2
18186,181.86
18255,182.55
18325,183.25
18394,183.94
18467,184.67
18539,185.39
18610,186.1
18681,186.81
18752,187.52
18823,188.23
18896,188.96
18968,189.68
19040,190.4
19111,191.11
19183,191.83
19257,192.57
19331,193.31
19406,194.06
19479,194.79
19551,195.51
19621,196.21
19692,196.92
19761,197.61
19834,198.34
19909,199.09
19984,199.84
20059,200.59
20131,201.31
20202,202.02
20272,202.72
20343,203.43
20412,204.12
20479,204.79
20544,205.44
20608,206.08
20673,206.73
20740,207.4
20811,208.11
20880,208.8
20947,209.47
21017,210.17
21091,210.91
21160,211.6
21229,212.29
21299,212.99
21367,213.67
21432,214.32
21499,214.99
21566,215.66
21633,216.33
21699,216.99
21769,217.69
21843,218.43
21923,219.23
22000,220.0
22077,220.77
22158,221.58
22240,222.4
22321,223.21
22398,223.98
22474,224.74
22550,225.5
22629,226.29
22707,227.07
22787,227.87
22863,228.63
22940,229.4
23019,230.19
23097,230.97
23176,231.76
23254,232.54
23325,233.25
23395,233.95
23467,234.67
23541,235.41
23612,236.12
23683,236.83
23760,237.6
23837,238.37
23914,239.14
23986,239.86
24059,240.59
24133,241.33
24210,242.1
24286,242.86
24362,243.62
24435,244.35
24510,245.1
24587,245.87
24660,246.6
24732,247.32
24808,248.08
24878,248.78
24947,249.47
25015,250.15
25086,250.86
25162,251.62
25238,252.38
25314,253.14
25386,253.86
25461,254.61
25535,255.35
25607,256.07
25676,256.76
25743,257.43
25813,258.13
25885,258.85
25955,259.55
26029,260.29
26105,261.05
26184,261.84
26263,262.63
26342,263.42
26423,264.23
26507,265.07
26586,265.86
26662,266.62
26740,267.4
26820,268.2
26905,269.05
26984,269.84
27061,270.61
27139,271.39
27216,272.16
27291,272.91
27365,273.65
27443,274.43
27524,275.24
27603,276.03
27676,276.76
27751,277.51
27830,278.3
27910,279.1
27993,279.93
28068,280.68
28141,281.41
28214,282.14
28289,282.89
28364,283.64
28439,284.39
28521,285.21
28603,286.03
28683,286.83
28757,287.57
28832,288.32
28912,289.12
28992,289.92
29072,290.72
29147,291.47
29222,292.22
29299,292.99
29375,293.75
29452,294.52
29526,295.26
29601,296.01
29676,296.76
29754,297.54
29830,298.3
29904,299.04
29977,299.77
30055,300.55
30137,301.37
30221,302.21
30302,303.02
30380,303.8
30454,304.54
30527,305.27
30601,306.01
30681,306.81
30763,307.63
30845,308.45
30923,309.23
30997,309.97
31074,310.74
31150,311.5
31230,312.3
31304,313.04
31375,313.75
31448,314.48
31525,315.25
31603,316.03
31683,316.83
31762,317.62
31836,318.36
31912,319.12
31994,319.94
32074,320.74
32154,321.54
32236,322.36
32311,323.11
32386,323.86
32462,324.62
32539,325.39
32617,326.17
32695,326.95
32778,327.78
32860,328.6
32942,329.42
33022,330.22
33096,330.96
33170,331.7
33250,332.5
33333,333.33
33414,334.14
33492,334.92
33566,335.66
33641,336.41
33718,337.18
33795,337.95
33875,338.75
33948,339.48
34020,340.2
34090,340.9
34160,341.6
34230,342.3
34300,343.0
34372,343.72
34444,344.44
34520,345.2
34594,345.94
34666,346.66
34739,347.39
34813,348.13
34892,348.92
34976,349.76
35057,350.57
35132,351.32
35207,352.07
35279,352.79
35354,353.54
35433,354.33
35509,355.09
35585,355.85
35664,356.64
35742,357.42
35817,358.17
35892,358.92
35970,359.7
36049,360.49
36125,361.25
36198,361.98
36267,362.67
36339,363.39
36407,364.07
36472,364.72
36540,365.4
36614,366.14
36698,366.98
36775,367.75
36851,368.51
36934,369.34
37011,370.11
37084,370.84
37160,371.6
37242,372.42
37328,373.28
37403,374.03
37475,374.75
37551,375.51
37631,376.31
37713,377.13
37795,377.95
37876,378.76
37955,379.55
38033,380.33
38108,381.08
38181,381.81
38252,382.52
38322,383.22
38391,383.91
38460,384.6
38529,385.29
38596,385.96
38664,386.64
38737,387.37
38810,388.1
38885,388.85
38958,389.58
39031,390.31
39106,391.06
39180,391.8
39255,392.55
39333,393.33
39406,394.06
39476,394.76
39544,395.44
39614,396.14
39689,396.89
39764,397.64
39841,398.41
39914,399.14
39989,399.89
40061,400.61
40137,401.37
40213,402.13
40289,402.89
40366,403.66
40445,404.45
40523,405.23
40602,406.02
40683,406.83
40761,407.61
40837,408.37
40914,409.14
40988,409.88
41064,410.64
41140,411.4
41218,412.18
41297,412.97
41376,413.76
41456,414.56
41539,415.39
41624,416.24
41706,417.06
41784,417.84
41856,418.56
41923,419.23
41982,419.82
42042,420.42
42105,421.05
42171,421.71
42238,422.38
42300,423.0
42360,423.6
42422,424.22
42484,424.84
42545,425.45
42608,426.08
42672,426.72
42735,427.35
42798,427.98
42863,428.63
42927,429.27
42990,429.9
43056,430.56
43118,431.18
43181,431.81
43243,432.43
43303,433.03
43364,433.64
43424,434.24
43485,434.85
43548,435.48
43615,436.15
43685,436.85
43755,437.55
43827,438.27
43900,439.0
43974,439.74
44050,440.5
44125,441.25
44198,441.98
44268,442.68
44338,443.38
44409,444.09
44484,444.84
44555,445.55
44628,446.28
44705,447.05
44790,447.9
44878,448.78
44959,449.59
45040,450.4
45117,451.17
45189,451.89
45258,452.58
45321,453.21
45385,453.85
45457,454.57
45530,455.3
45599,455.99
45675,456.75
45750,457.5
45825,458.25
45904,459.04
45984,459.84
46064,460.64
46139,461.39
46213,462.13
46291,462.91
46369,463.69
46446,464.46
46521,465.21
46591,465.91
46657,466.57
46724,467.24
46791,467.91
46861,468.61
46937,469.37
47016,470.16
47097,470.97
47178,471.78
47255,472.55
47328,473.28
47400,474.0
47474,474.74
47550,475.5
47629,476.29
47705,477.05
47778,477.78
47856,478.56
47936,479.36
48021,480.21
48108,481.08
48193,481.93
48273,482.73
48351,483.51
48427,484.27
48504,485.04
48580,485.8
48656,486.56
48731,487.31
48812,488.12
48894,488.94
48978,489.78
49061,490.61
49139,491.39
49215,492.15
49293,492.93
49375,493.75
49456,494.56
49538,495.38
49618,496.18
49694,496.94
49771,497.71
49848,498.48
49930,499.3
50010,500.1
50087,500.87
50166,501.66
50245,502.45
50326,503.26
50406,504.06
50484,504.84
50558,505.58
50632,506.32
50706,507.06
50776,507.76
50844,508.44
50907,509.07
50970,509.7
51040,510.4
51105,511.05
51174,511.74
51244,512.44
51312,513.12
51377,513.77
51443,514.43
51511,515.11
51578,515.78
51647,516.47
51718,517.18
51793,517.93
51860,518.6
51928,519.28
52002,520.02
52077,520.77
52148,521.48
52219,522.19
52283,522.83
52348,523.48
52445,524.45
52542,525.42
52605,526.05
52666,526.66
52727,527.27
52788,527.88
52847,528.47
52905,529.05
52963,529.63
53020,530.2
53081,530.81
53151,531.51
53219,532.19
53286,532.86
53354,533.54
53420,534.2
53485,534.85
53547,535.47
53608,536.08
53670,536.7
53733,537.33
53797,537.97
53864,538.64
53931,539.31
54001,540.01
54071,540.71
54140,541.4
54210,542.1
54281,542.81
54350,543.5
54421,544.21
54488,544.88
54555,545.55
54625,546.25
54698,546.98
54770,547.7
54843,548.43
54918,549.18
54988,549.88
55058,550.58
55130,551.3
55206,552.06
55284,552.84
55365,553.65
55442,554.42
55517,555.17
55589,555.89
55663,556.63
55739,557.39
55813,558.13
55889,558.89
55965,559.65
56038,560.38
56110,561.1
56182,561.82
56257,562.57
56333,563.33
56409,564.09
56484,564.84
56556,565.56
56627,566.27
56697,566.97
56770,567.7
56843,568.43
56920,569.2
56994,569.94
57065,570.65
57136,571.36
57208,572.08
57285,572.85
57365,573.65
57448,574.48
57528,575.28
57603,576.03
57675,576.75
57749,577.49
57824,578.24
57904,579.04
57984,579.84
58062,580.62
58137,581.37
58210,582.1
58284,582.84
58359,583.59
58435,584.35
58510,585.1
58583,585.83
58655,586.55
58729,587.29
58805,588.05
58880,588.8
58957,589.57
59031,590.31
59103,591.03
59175,591.75
59249,592.49
59324,593.24
59396,593.96
59468,594.68
59538,595.38
59611,596.11
59690,596.9
59770,597.7
59852,598.52
59929,599.29
60004,600.04
60079,600.79
60156,601.56
60232,602.32
60306,603.06
60377,603.77
60446,604.46
60519,605.19
60595,605.95
60672,606.72
60751,607.51
60828,608.28
60904,609.04
60983,609.83
61061,610.61
61138,611.38
61215,612.15
61289,612.89
61361,613.61
61436,614.36
61514,615.14
61596,615.96
61678,616.78
61759,617.59
61837,618.37
61911,619.11
61985,619.85
62059,620.59
62136,621.36
62209,622.09
62281,622.81
62355,623.55
62430,624.3
62509,625.09
62589,625.89
62664,626.64
62736,627.36
62806,628.06
62880,628.8
62957,629.57
63037,630.37
63117,631.17
63194,631.94
63269,632.69
63348,633.48
63426,634.26
63506,635.06
63586,635.86
63663,636.63
63736,637.36
63808,638.08
63881,638.81
63955,639.55
64029,640.29
64103,641.03
64174,641.74
64245,642.45
64315,643.15
64386,643.86
64461,644.61
64537,645.37
64610,646.1
64680,646.8
64746,647.46
64812,648.12
64877,648.77
64941,649.41
65018,650.18
65096,650.96
65158,651.58
65220,652.2
65329,653.29
65438,654.38
65498,654.98
65558,655.58
65618,656.18
65676,656.76
65735,657.35
65794,657.94
65851,658.51
65907,659.07
65963,659.63
66019,660.19
66074,660.74
66129,661.29
66185,661.85
66241,662.41
66307,663.07
66374,663.74
66452,664.52
66531,665.31
66593,665.93
66651,666.51
66705,667.05
66766,667.66
66828,668.28
66887,668.87
66946,669.46
67007,670.07
67069,670.69
67127,671.27
67186,671.86
67249,672.49
67309,673.09
67369,673.69
67430,674.3
67490,674.9
67549,675.49
67606,676.06
67663,676.63
67719,677.19
67776,677.76
67834,678.34
67895,678.95
67958,679.58
68025,680.25
68095,680.95
68165,681.65
68239,682.39
68312,683.12
68384,683.84
68458,684.58
68527,685.27
68595,685.95
68664,686.64
68736,687.36
68812,688.12
68888,688.88
68959,689.59
69028,690.28
69097,690.97
69168,691.68
69241,692.41
69311,693.11
69380,693.8
69448,694.48
69514,695.14
69584,695.84
69655,696.55
69727,697.27
69799,697.99
69873,698.73
69943,699.43
70013,700.13
70083,700.83
70155,701.55
70232,702.32
70312,703.12
70391,703.91
70468,704.68
70541,705.41
70612,706.12
70683,706.83
70755,707.55
70827,708.27
70900,709.0
70972,709.72
71043,710.43
71112,711.12
71182,711.82
71253,712.53
71328,713.28
71405,714.05
71482,714.82
71554,715.54
71626,716.26
71700,717.0
71774,717.74
71848,718.48
71920,719.2
71990,719.9
72058,720.58
72125,721.25
72193,721.93
72261,722.61
72328,723.28
72395,723.95
72461,724.61
72528,725.28
72597,725.97
72664,726.64
72731,727.31
72796,727.96
72860,728.6
72925,729.25
72993,729.93
73060,730.6
73126,731.26
73193,731.93
73260,732.6
73329,733.29
73399,733.99
73466,734.66
73532,735.32
73599,735.99
73668,736.68
73741,737.41
73815,738.15
73883,738.83
73951,739.51
74019,740.19
74088,740.88
74156,741.56
74222,742.22
74289,742.89
74355,743.55
74422,744.22
74489,744.89
74559,745.59
74629,746.29
74697,746.97
74765,747.65
74834,748.34
74903,749.03
74971,749.71
75040,750.4
75106,751.06
75173,751.73
75240,752.4
75308,753.08
75377,753.77
75443,754.43
75507,755.07
75572,755.72
75637,756.37
75704,757.04
75774,757.74
75845,758.45
75915,759.15
75986,759.86
76059,760.59
76132,761.32
76204,762.04
76275,762.75
76341,763.41
76405,764.05
76470,764.7
76536,765.36
76605,766.05
76677,766.77
76747,767.47
76816,768.16
76885,768.85
76953,769.53
77022,770.22
77092,770.92
77161,771.61
77228,772.28
77294,772.94
77363,773.63
77436,774.36
77515,775.15
77595,775.95
77667,776.67
77736,777.36
77804,778.04
77873,778.73
77943,779.43
78016,780.16
78090,780.9
78160,781.6
78229,782.29
78296,782.96
78364,783.64
78434,784.34
78506,785.06
78580,785.8
78652,786.52
78722,787.22
78794,787.94
78865,788.65
78936,789.36
79005,790.05
79072,790.72
79138,791.38
79206,792.06
79275,792.75
79345,793.45
79411,794.11
79476,794.76
79541,795.41
79605,796.05
79667,796.67
79729,797.29
79794,797.94
79861,798.61
79928,799.28
79996,799.96
80063,800.63
80133,801.33
80204,802.04
80271,802.71
80337,803.37
80405,804.05
80473,804.73
80542,805.42
80609,806.09
80677,806.77
80743,807.43
80809,808.09
80876,808.76
80945,809.45
81014,810.14
81080,810.8
81147,811.47
81213,812.13
81284,812.84
81354,813.54
81424,814.24
81496,814.96
81567,815.67
81641,816.41
81716,817.16
81788,817.88
81860,818.6
81932,819.32
82004,820.04
82076,820.76
82145,821.45
82213,822.13
82281,822.81
82349,823.49
82418,824.18
82489,824.89
82559,825.59
82627,826.27
82694,826.94
82762,827.62
82829,828.29
82897,828.97
82962,829.62
83024,830.24
83086,830.86
83145,831.45
83205,832.05
83268,832.68
83325,833.25
83389,833.89
83459,834.59
83523,835.23
83581,835.81
83645,836.45
83710,837.1
83769,837.69
83826,838.26
83883,838.83
83936,839.36
83989,839.89
84056,840.56
84114,841.14
84174,841.74
84234,842.34
84293,842.93
84354,843.54
84414,844.14
84474,844.74
84548,845.48
84613,846.13
84675,846.75
84738,847.38
84794,847.94
84850,848.5
84916,849.16
84982,849.82
85044,850.44
85095,850.95
85147,851.47
85204,852.04
85261,852.61
85310,853.1
85359,853.59
85408,854.08
85474,854.74
85542,855.42
85603,856.03
85665,856.65
85739,857.39
85805,858.05
85868,858.68
85933,859.33
85999,859.99
86063,860.63
86128,861.28
86194,861.94
86259,862.59
86324,863.24
86387,863.87
86453,864.53
86521,865.21
86595,865.95
86668,866.68
86736,867.36
86804,868.04
86872,868.72
86943,869.43
87016,870.16
87090,870.9
87161,871.61
87233,872.33
87308,873.08
87382,873.82
87460,874.6
87535,875.35
87607,876.07
87675,876.75
87739,877.39
87805,878.05
87869,878.69
87933,879.33
88008,880.08
88084,880.84
88164,881.64
88244,882.44
88307,883.07
88366,883.66
88426,884.26
88492,884.92
88559,885.59
88621,886.21
88681,886.81
88740,887.4
88808,888.08
88872,888.72
88941,889.41
89008,890.08
89077,890.77
89147,891.47
89215,892.15
89281,892.81
89346,893.46
89407,894.07
89466,894.66
89526,895.26
89585,895.85
89644,896.44
89705,897.05
89767,897.67
89831,898.31
89895,898.95
89959,899.59
90023,900.23
90085,900.85
90147,901.47
90208,902.08
90271,902.71
90336,903.36
90402,904.02
90470,904.7
90538,905.38
90606,906.06
90673,906.73
90742,907.42
90810,908.1
90879,908.79
90948,909.48
91016,910.16
91081,910.81
91144,911.44
91207,912.07
91269,912.69
91332,913.32
91409,914.09
91486,914.86
91559,915.59
91633,916.33
91692,916.92
91753,917.53
91812,918.12
91872,918.72
91944,919.44
92016,920.16
92087,920.87
92149,921.49
92212,922.12
92268,922.68
92324,923.24
92379,923.79
92435,924.35
92491,924.91
92542,925.42
92592,925.92
92653,926.53
92714,927.14
92769,927.69
92824,928.24
92882,928.82
92936,929.36
92991,929.91
93046,930.46
93087,930.87
93128,931.28
93169,931.69
93211,932.11
93267,932.67
93322,933.22
93379,933.79
93436,934.36
93491,934.91
93547,935.47
93603,936.03
93658,936.58
93719,937.19
93780,937.8
93829,938.29
93879,938.79
93934,939.34
93989,939.89
94045,940.45
94102,941.02
94158,941.58
94214,942.14
94270,942.7
94325,943.25
94380,943.8
94434,944.34
94488,944.88
94542,945.42
94595,945.95
94648,946.48
94702,947.02
94756,947.56
94811,948.11
94868,948.68
94927,949.27
94989,949.89
95052,950.52
95113,951.13
95173,951.73
95237,952.37
95307,953.07
95373,953.73
95440,954.4
95504,955.04
95567,955.67
95632,956.32
95696,956.96
95758,957.58
95820,958.2
95883,958.83
95947,959.47
96011,960.11
96078,960.78
96148,961.48
96219,962.19
96289,962.89
96359,963.59
96429,964.29
96498,964.98
96565,965.65
96632,966.32
96696,966.96
96758,967.58
96819,968.19
96884,968.84
96954,969.54
97024,970.24
97095,970.95
97166,971.66
97236,972.36
97306,973.06
97377,973.77
97449,974.49
97521,975.21
97595,975.95
97668,976.68
97739,977.39
97805,978.05
97870,978.7
97937,979.37
98003,980.03
98071,980.71
98139,981.39
98205,982.05
98271,982.71
98337,983.37
98403,984.03
98467,984.67
98529,985.29
98590,985.9
98649,986.49
98707,987.07
98766,987.66
98825,988.25
98885,988.85
98944,989.44
99004,990.04
99064,990.64
99123,991.23
99183,991.83
99246,992.46
99312,993.12
99380,993.8
99445,994.45
99510,995.1
99574,995.74
99640,996.4
99706,997.06
99771,997.71
99835,998.35
99901,999.01
99967,999.67
100035,1000.35
100102,1001.02
100169,1001.69
100235,1002.35
100300,1003.0
100367,1003.67
100434,1004.34
100500,1005.0
100565,1005.65
100629,1006.29
100693,1006.93
100757,1007.57
100822,1008.22
100890,1008.9
100957,1009.57
101025,1010.25
101093,1010.93
101161,1011.61
101229,1012.29
101299,1012.99
101371,1013.71
101442,1014.42
101512,1015.12
101578,1015.78
101642,1016.42
101707,1017.07
101774,1017.74
101843,1018.43
101918,1019.18
101991,1019.91
102064,1020.64
102138,1021.38
102209,1022.09
102280,1022.8
102352,1023.52
102424,1024.24
102497,1024.97
102569,1025.69
102637,1026.37
102705,1027.05
102775,1027.75
102845,1028.45
102919,1029.19
102993,1029.93
103068,1030.68
103142,1031.42
103215,1032.15
103287,1032.87
103363,1033.63
103439,1034.39
103515,1035.15
103590,1035.9
103660,1036.6
103730,1037.3
103799,1037.99
103871,1038.71
103944,1039.44
104018,1040.18
104093,1040.93
104169,1041.69
104240,1042.4
104309,1043.09
104380,1043.8
104450,1044.5
104522,1045.22
104593,1045.93
104659,1046.59
104721,1047.21
104783,1047.83
104846,1048.46
104912,1049.12
104985,1049.85
105058,1050.58
105131,1051.31
105202,1052.02
105271,1052.71
105339,1053.39
105405,1054.05
105472,1054.72
105541,1055.41
105613,1056.13
105684,1056.84
105757,1057.57
105828,1058.28
105895,1058.95
105962,1059.62
106029,1060.29
106097,1060.97
106166,1061.66
106239,1062.39
106311,1063.11
106384,1063.84
106443,1064.43
106503,1065.03
106570,1065.7
106635,1066.35
106699,1066.99
106764,1067.64
106830,1068.3
106898,1068.98
106965,1069.65
107033,1070.33
107099,1070.99
107166,1071.66
107231,1072.31
107297,1072.97
107361,1073.61
107425,1074.25
107490,1074.9
107554,1075.54
107622,1076.22
107694,1076.94
107770,1077.7
107847,1078.47
107918,1079.18
107988,1079.88
108056,1080.56
108127,1081.27
108198,1081.98
108267,1082.67
108335,1083.35
108401,1084.01
108467,1084.67
108536,1085.36
108606,1086.06
108680,1086.8
108758,1087.58
108835,1088.35
108911,1089.11
108986,1089.86
109062,1090.62
109135,1091.35
109206,1092.06
109273,1092.73
109340,1093.4
109408,1094.08
109478,1094.78
109550,1095.5
109624,1096.24
109696,1096.96
109765,1097.65
109833,1098.33
109902,1099.02
109972,1099.72
110043,1100.43
110116,1101.16
110187,1101.87
110255,1102.55
110323,1103.23
110393,1103.93
110465,1104.65
110539,1105.39
110616,1106.16
110691,1106.91
110765,1107.65
110836,1108.36
110907,1109.07
110979,1109.79
111053,1110.53
111127,1111.27
111199,1111.99
111271,1112.71
111341,1113.41
111412,1114.12
111485,1114.85
111557,1115.57
111629,1116.29
111701,1117.01
111771,1117.71
111839,1118.39
111909,1119.09
111981,1119.81
112055,1120.55
112131,1121.31
112208,1122.08
112280,1122.8
112352,1123.52
112422,1124.22
112494,1124.94
112567,1125.67
112644,1126.44
112722,1127.22
112796,1127.96
112871,1128.71
112947,1129.47
113024,1130.24
113098,1130.98
113172,1131.72
113243,1132.43
113312,1133.12
113383,1133.83
113457,1134.57
113533,1135.33
113613,1136.13
113693,1136.93
113767,1137.67
113840,1138.4
113912,1139.12
113985,1139.85
114059,1140.59
114137,1141.37
114211,1142.11
114285,1142.85
114357,1143.57
114427,1144.27
114496,1144.96
114565,1145.65
114634,1146.34
114703,1147.03
114774,1147.74
114852,1148.52
114939,1149.39
115025,1150.25
115109,1151.09
115194,1151.94
115276,1152.76
115357,1153.57
115435,1154.35
115513,1155.13
115586,1155.86
115658,1156.58
115732,1157.32
115807,1158.07
115886,1158.86
115966,1159.66
116036,1160.36
116103,1161.03
116168,1161.68
116234,1162.34
116301,1163.01
116370,1163.7
116443,1164.43
116515,1165.15
116588,1165.88
116658,1166.58
116728,1167.28
116799,1167.99
116873,1168.73
116946,1169.46
117021,1170.21
117094,1170.94
117167,1171.67
117239,1172.39
117312,1173.12
117388,1173.88
117468,1174.68
117548,1175.48
117622,1176.22
117692,1176.92
117759,1177.59
117828,1178.28
117897,1178.97
117967,1179.67
118036,1180.36
118105,1181.05
118176,1181.76
118249,1182.49
118323,1183.23
118396,1183.96
118468,1184.68
118538,1185.38
118609,1186.09
118681,1186.81
118755,1187.55
118827,1188.27
118897,1188.97
118966,1189.66
119037,1190.37
119108,1191.08
119183,1191.83
119258,1192.58
119331,1193.31
119402,1194.02
119474,1194.74
119545,1195.45
119616,1196.16
119687,1196.87
119756,1197.56
119825,1198.25
119892,1198.92
119961,1199.61
120034,1200.34
120106,1201.06
120181,1201.81
120257,1202.57
120331,1203.31
120402,1204.02
120474,1204.74
120546,1205.46
120619,1206.19
120690,1206.9
120759,1207.59
120827,1208.27
120896,1208.96
120965,1209.65
121038,1210.38
121116,1211.16
121194,1211.94
121269,1212.69
121344,1213.44
121418,1214.18
121491,1214.91
121564,1215.64
121638,1216.38
121712,1217.12
121785,1217.85
121859,1218.59
121934,1219.34
122013,1220.13
122092,1220.92
122167,1221.67
122241,1222.41
122312,1223.12
122381,1223.81
122450,1224.5
122518,1225.18
122588,1225.88
122659,1226.59
122731,1227.31
122802,1228.02
122872,1228.72
122943,1229.43
123015,1230.15
123088,1230.88
123161,1231.61
123233,1232.33
123304,1233.04
123375,1233.75
123447,1234.47
123520,1235.2
123594,1235.94
123665,1236.65
123733,1237.33
123799,1237.99
123866,1238.66
123933,1239.33
124003,1240.03
124073,1240.73
124142,1241.42
124212,1242.12
124283,1242.83
124357,1243.57
124433,1244.33
124511,1245.11
124588,1245.88
124662,1246.62
124733,1247.33
124802,1248.02
124872,1248.72
124946,1249.46
125019,1250.19
125094,1250.94
125169,1251.69
125241,1252.41
125313,1253.13
125388,1253.88
125463,1254.63
125540,1255.4
125615,1256.15
125688,1256.88
125759,1257.59
125830,1258.3
125901,1259.01
125972,1259.72
126045,1260.45
126119,1261.19
126189,1261.89
126257,1262.57
126326,1263.26
126397,1263.97
126473,1264.73
126549,1265.49
126623,1266.23
126695,1266.95
126766,1267.66
126838,1268.38
126910,1269.1
126981,1269.81
127054,1270.54
127127,1271.27
127197,1271.97
127265,1272.65
127334,1273.34
127405,1274.05
127477,1274.77
127550,1275.5
127620,1276.2
127688,1276.88
127756,1277.56
127825,1278.25
127898,1278.98
127975,1279.75
128050,1280.5
128126,1281.26
128199,1281.99
128271,1282.71
128345,1283.45
128421,1284.21
128499,1284.99
128577,1285.77
128650,1286.5
128720,1287.2
128790,1287.9
128862,1288.62
128935,1289.35
129007,1290.07
129081,1290.81
129153,1291.53
129224,1292.24
129296,1292.96
129371,1293.71
129446,1294.46
129523,1295.23
129599,1295.99
129674,1296.74
129748,1297.48
129825,1298.25
129905,1299.05
129984,1299.84
130062,1300.62
130138,1301.38
130211,1302.11
130282,1302.82
130353,1303.53
130426,1304.26
130501,1305.01
130577,1305.77
130654,1306.54
130728,1307.28
130800,1308.0
130875,1308.75
130951,1309.51
131023,1310.23
131095,1310.95
131165,1311.65
131234,1312.34
131303,1313.03
131375,1313.75
131451,1314.51
131532,1315.32
131616,1316.16
131703,1317.03
131787,1317.87
131868,1318.68
131948,1319.48
132025,1320.25
132099,1320.99
132171,1321.71
132240,1322.4
132309,1323.09
132377,1323.77
132447,1324.47
132521,1325.21
132596,1325.96
132673,1326.73
132745,1327.45
132816,1328.16
132889,1328.89
132962,1329.62
133034,1330.34
133106,1331.06
133176,1331.76
133246,1332.46
133316,1333.16
133386,1333.86
133457,1334.57
133528,1335.28
133600,1336.0
133672,1336.72
133742,1337.42
133814,1338.14
133888,1338.88
133963,1339.63
134037,1340.37
134107,1341.07
134179,1341.79
134251,1342.51
134322,1343.22
134395,1343.95
134471,1344.71
134544,1345.44
134617,1346.17
134688,1346.88
134762,1347.62
134836,1348.36
134911,1349.11
134985,1349.85
135056,1350.56
135125,1351.25
135195,1351.95
135267,1352.67
135339,1353.39
135411,1354.11
135484,1354.84
135556,1355.56
135626,1356.26
135697,1356.97
135770,1357.7
135844,1358.44
135917,1359.17
135988,1359.88
136057,1360.57
136125,1361.25
136196,1361.96
136273,1362.73
136356,1363.56
136436,1364.36
136514,1365.14
136596,1365.96
136676,1366.76
136757,1367.57
136837,1368.37
136912,1369.12
136986,1369.86
137058,1370.58
137128,1371.28
137193,1371.93
137258,1372.58
137321,1373.21
137387,1373.87
137457,1374.57
137524,1375.24
137591,1375.91
137660,1376.6
137734,1377.34
137805,1378.05
137879,1378.79
137949,1379.49
138017,1380.17
138085,1380.85
138158,1381.58
138229,1382.29
138303,1383.03
138379,1383.79
138456,1384.56
138525,1385.25
138594,1385.94
138662,1386.62
138732,1387.32
138806,1388.06
138882,1388.82
138957,1389.57
139027,1390.27
139096,1390.96
139163,1391.63
139230,1392.3
139301,1393.01
139369,1393.69
139441,1394.41
139513,1395.13
139583,1395.83
139652,1396.52
139725,1397.25
139796,1397.96
139865,1398.65
139933,1399.33
140002,1400.02
140069,1400.69
140137,1401.37
140205,1402.05
140275,1402.75
140348,1403.48
140421,1404.21
140492,1404.92
140561,1405.61
140632,1406.32
140704,1407.04
140777,1407.77
140849,1408.49
140921,1409.21
140991,1409.91
141060,1410.6
141130,1411.3
141199,1411.99
141271,1412.71
141342,1413.42
141409,1414.09
141476,1414.76
141544,1415.44
141614,1416.14
141686,1416.86
141759,1417.59
141837,1418.37
141911,1419.11
141984,1419.84
142054,1420.54
142124,1421.24
142193,1421.93
142264,1422.64
142335,1423.35
142409,1424.09
142483,1424.83
142554,1425.54
142622,1426.22
142691,1426.91
142761,1427.61
142835,1428.35
142910,1429.1
142985,1429.85
143063,1430.63
143141,1431.41
143216,1432.16
143289,1432.89
143359,1433.59
143433,1434.33
143510,1435.1
143586,1435.86
143663,1436.63
143737,1437.37
143809,1438.09
143879,1438.79
143949,1439.49
144023,1440.23
144098,1440.98
144176,1441.76
144253,1442.53
144331,1443.31
144404,1444.04
144477,1444.77
144549,1445.49
144621,1446.21
144697,1446.97
144774,1447.74
144857,1448.57
144936,1449.36
145014,1450.14
145101,1451.01
145188,1451.88
145272,1452.72
145353,1453.53
145431,1454.31
145508,1455.08
145584,1455.84
145660,1456.6
145736,1457.36
145812,1458.12
145888,1458.88
145963,1459.63
146038,1460.38
146114,1461.14
146192,1461.92
146270,1462.7
146350,1463.5
146429,1464.29
146506,1465.06
146581,1465.81
146658,1466.58
146735,1467.35
146814,1468.14
146891,1468.91
146967,1469.67
147042,1470.42
147119,1471.19
147197,1471.97
147276,1472.76
147357,1473.57
147436,1474.36
147514,1475.14
147590,1475.9
147667,1476.67
147745,1477.45
147824,1478.24
147905,1479.05
147986,1479.86
148064,1480.64
148143,1481.43
148223,1482.23
148304,1483.04
148384,1483.84
148461,1484.61
148535,1485.35
148609,1486.09
148684,1486.84
148761,1487.61
148838,1488.38
148917,1489.17
148995,1489.95
149077,1490.77
149160,1491.6
149245,1492.45
149328,1493.28
149407,1494.07
149484,1494.84
149563,1495.63
149642,1496.42
149721,1497.21
149800,1498.0
149875,1498.75
149951,1499.51
150028,1500.28
150107,1501.07
150188,1501.88
150267,1502.67
150345,1503.45
150424,1504.24
150506,1505.06
150590,1505.9
150675,1506.75
150757,1507.57
150836,1508.36
150915,1509.15
150994,1509.94
151073,1510.73
151152,1511.52
151229,1512.29
151305,1513.05
151383,1513.83
151462,1514.62
151543,1515.43
151625,1516.25
151706,1517.06
151786,1517.86
151869,1518.69
151954,1519.54
152041,1520.41
152125,1521.25
152204,1522.04
152283,1522.83
152361,1523.61
152440,1524.4
152519,1525.19
152596,1525.96
152673,1526.73
152748,1527.48
152824,1528.24
152903,1529.03
152982,1529.82
153062,1530.62
153141,1531.41
153220,1532.2
153302,1533.02
153386,1533.86
153468,1534.68
153548,1535.48
153626,1536.26
153701,1537.01
153775,1537.75
153851,1538.51
153931,1539.31
154016,1540.16
154101,1541.01
154182,1541.82
154261,1542.61
154342,1543.42
154423,1544.23
154504,1545.04
154584,1545.84
154660,1546.6
154735,1547.35
154809,1548.09
154883,1548.83
154956,1549.56
155033,1550.33
155111,1551.11
155185,1551.85
155260,1552.6
155337,1553.37
155420,1554.2
155502,1555.02
155583,1555.83
155662,1556.62
155739,1557.39
155817,1558.17
155894,1558.94
155970,1559.7
156047,1560.47
156122,1561.22
156194,1561.94
156268,1562.68
156343,1563.43
156420,1564.2
156497,1564.97
156573,1565.73
156647,1566.47
156721,1567.21
156798,1567.98
156876,1568.76
156954,1569.54
157034,1570.34
157110,1571.1
157186,1571.86
157261,1572.61
157338,1573.38
157415,1574.15
157492,1574.92
157568,1575.68
157644,1576.44
157728,1577.28
157817,1578.17
157906,1579.06
157989,1579.89
158073,1580.73
158156,1581.56
158241,1582.41
158324,1583.24
158406,1584.06
158484,1584.84
158563,1585.63
158643,1586.43
158721,1587.21
158799,1587.99
158877,1588.77
158954,1589.54
159032,1590.32
159111,1591.11
159187,1591.87
159262,1592.62
159335,1593.35
159408,1594.08
159483,1594.83
159563,1595.63
159646,1596.46
159728,1597.28
159810,1598.1
159892,1598.92
159979,1599.79
160066,1600.66
160150,1601.5
160231,1602.31
160310,1603.1
160389,1603.89
160467,1604.67
160544,1605.44
160620,1606.2
160695,1606.95
160770,1607.7
160844,1608.44
160920,1609.2
161001,1610.01
161080,1610.8
161158,1611.58
161241,1612.41
161323,1613.23
161408,1614.08
161492,1614.92
161569,1615.69
161643,1616.43
161720,1617.2
161796,1617.96
161874,1618.74
161951,1619.51
162025,1620.25
162098,1620.98
162171,1621.71
162245,1622.45
162322,1623.22
162400,1624.0
162477,1624.77
162553,1625.53
162629,1626.29
162708,1627.08
162786,1627.86
162864,1628.64
162939,1629.39
163011,1630.11
163083,1630.83
163156,1631.56
163231,1632.31
163308,1633.08
163385,1633.85
163458,1634.58
163531,1635.31
163605,1636.05
163681,1636.81
163759,1637.59
163837,1638.37
163912,1639.12
163986,1639.86
164058,1640.58
164133,1641.33
164210,1642.1
164289,1642.89
164367,1643.67
164443,1644.43
164516,1645.16
164592,1645.92
164667,1646.67
164744,1647.44
164820,1648.2
164895,1648.95
164969,1649.69
165042,1650.42
165117,1651.17
165192,1651.92
165268,1652.68
165344,1653.44
165418,1654.18
165491,1654.91
165566,1655.66
165643,1656.43
165721,1657.21
165796,1657.96
165871,1658.71
165947,1659.47
166023,1660.23
166099,1660.99
166176,1661.76
166250,1662.5
166321,1663.21
166391,1663.91
166462,1664.62
166534,1665.34
166611,1666.11
166686,1666.86
166764,1667.64
166845,1668.45
166928,1669.28
167012,1670.12
167096,1670.96
167173,1671.73
167247,1672.47
167321,1673.21
167397,1673.97
167473,1674.73
167549,1675.49
167625,1676.25
167699,1676.99
167771,1677.71
167844,1678.44
167921,1679.21
167997,1679.97
168076,1680.76
168153,1681.53
168226,1682.26
168301,1683.01
168377,1683.77
168457,1684.57
168536,1685.36
168616,1686.16
168691,1686.91
168765,1687.65
168840,1688.4
168916,1689.16
168991,1689.91
169066,1690.66
169142,1691.42
169216,1692.16
169290,1692.9
169364,1693.64
169444,1694.44
169527,1695.27
169617,1696.17
169702,1697.02
169782,1697.82
169860,1698.6
169939,1699.39
170020,1700.2
170102,1701.02
170181,1701.81
170257,1702.57
170333,1703.33
170408,1704.08
170484,1704.84
170562,1705.62
170636,1706.36
170709,1707.09
170783,1707.83
170861,1708.61
170939,1709.39
171018,1710.18
171094,1710.94
171168,1711.68
171243,1712.43
171320,1713.2
171401,1714.01
171482,1714.82
171562,1715.62
171637,1716.37
171712,1717.12
171790,1717.9
171870,1718.7
171949,1719.49
172028,1720.28
172105,1721.05
172182,1721.82
172263,1722.63
172344,1723.44
172428,1724.28
172508,1725.08
172586,1725.86
172659,1726.59
172731,1727.31
172805,1728.05
172885,1728.85
172972,1729.72
173058,1730.58
173139,1731.39
173220,1732.2
173299,1732.99
173377,1733.77
173456,1734.56
173532,1735.32
173606,1736.06
173679,1736.79
173754,1737.54
173829,1738.29
173902,1739.02
173975,1739.75
174047,1740.47
174117,1741.17
174188,1741.88
174261,1742.61
174338,1743.38
174416,1744.16
174494,1744.94
174568,1745.68
174642,1746.42
174719,1747.19
174797,1747.97
174874,1748.74
174948,1749.48
175022,1750.22
175097,1750.97
175174,1751.74
175252,1752.52
175332,1753.32
175410,1754.1
175485,1754.85
175561,1755.61
175638,1756.38
175716,1757.16
175794,1757.94
175872,1758.72
175951,1759.51
176028,1760.28
176107,1761.07
176186,1761.86
176267,1762.67
176347,1763.47
176426,1764.26
176502,1765.02
176576,1765.76
176648,1766.48
176721,1767.21
176797,1767.97
176874,1768.74
176952,1769.52
177030,1770.3
177104,1771.04
177178,1771.78
177256,1772.56
177335,1773.35
177415,1774.15
177495,1774.95
177574,1775.74
177648,1776.48
177721,1777.21
177795,1777.95
177869,1778.69
177946,1779.46
178023,1780.23
178099,1780.99
178176,1781.76
178255,1782.55
178335,1783.35
178416,1784.16
178496,1784.96
178573,1785.73
178650,1786.5
178729,1787.29
178810,1788.1
178891,1788.91
178968,1789.68
179043,1790.43
179119,1791.19
179195,1791.95
179273,1792.73
179347,1793.47
179421,1794.21
179498,1794.98
179579,1795.79
179662,1796.62
179745,1797.45
179825,1798.25
179901,1799.01
179981,1799.81
180062,1800.62
180141,1801.41
180218,1802.18
180294,1802.94
180372,1803.72
180453,1804.53
180534,1805.34
180613,1806.13
180689,1806.89
180764,1807.64
180840,1808.4
180916,1809.16
180991,1809.91
181065,1810.65
181139,1811.39
181214,1812.14
181291,1812.91
181370,1813.7
181448,1814.48
181524,1815.24
181599,1815.99
181675,1816.75
181756,1817.56
181842,1818.42
181926,1819.26
182003,1820.03
182077,1820.77
182150,1821.5
182222,1822.22
182297,1822.97
182373,1823.73
182448,1824.48
182526,1825.26
182605,1826.05
182687,1826.87
182770,1827.7
182853,1828.53
182930,1829.3
183005,1830.05
183083,1830.83
183160,1831.6
183237,1832.37
183313,1833.13
183391,1833.91
183468,1834.68
183542,1835.42
183616,1836.16
183692,1836.92
183769,1837.69
183845,1838.45
183920,1839.2
183991,1839.91
184063,1840.63
184139,1841.39
184217,1842.17
184293,1842.93
184366,1843.66
184438,1844.38
184509,1845.09
184577,1845.77
184647,1846.47
184718,1847.18
184789,1847.89
184855,1848.55
184922,1849.22
184988,1849.88
185053,1850.53
185118,1851.18
185182,1851.82
185246,1852.46
185309,1853.09
185372,1853.72
185432,1854.32
185493,1854.93
185556,1855.56
185618,1856.18
185680,1856.8
185745,1857.45
185811,1858.11
185879,1858.79
185947,1859.47
186015,1860.15
186081,1860.81
186147,1861.47
186213,1862.13
186280,1862.8
186346,1863.46
186417,1864.17
186486,1864.86
186555,1865.55
186626,1866.26
186699,1866.99
186770,1867.7
186841,1868.41
186914,1869.14
186983,1869.83
187049,1870.49
187116,1871.16
187182,1871.82
187250,1872.5
187316,1873.16
187382,1873.82
187446,1874.46
187508,1875.08
187568,1875.68
187626,1876.26
187683,1876.83
187740,1877.4
187797,1877.97
187854,1878.54
187912,1879.12
187970,1879.7
188027,1880.27
188083,1880.83
188138,1881.38
188193,1881.93
188248,1882.48
188302,1883.02
188354,1883.54
188407,1884.07
188459,1884.59
188512,1885.12
188562,1885.62
188613,1886.13
188664,1886.64
188713,1887.13
188763,1887.63
188812,1888.12
188859,1888.59
188907,1889.07
188959,1889.59
189007,1890.07
189054,1890.54
189102,1891.02
189149,1891.49
189197,1891.97
189245,1892.45
189293,1892.93
189356,1893.56
189420,1894.2
189482,1894.82
189530,1895.3
189579,1895.79
189628,1896.28
189677,1896.77
189726,1897.26
189777,1897.77
189828,1898.28
189880,1898.8
189930,1899.3
189981,1899.81
190032,1900.32
190082,1900.82
190133,1901.33
190183,1901.83
190233,1902.33
190284,1902.84
190334,1903.34
190386,1903.86
190436,1904.36
190486,1904.86
190537,1905.37
190587,1905.87
190637,1906.37
190686,1906.86
190735,1907.35
190785,1907.85
190834,1908.34
190883,1908.83
190933,1909.33
190983,1909.83
191034,1910.34
191085,1910.85
191139,1911.39
191193,1911.93
191248,1912.48
191303,1913.03
191358,1913.58
191415,1914.15
191473,1914.73
191533,1915.33
191592,1915.92
191650,1916.5
191708,1917.08
191766,1917.66
191825,1918.25
191884,1918.84
191943,1919.43
192002,1920.02
192060,1920.6
192120,1921.2
192181,1921.81
192242,1922.42
192303,1923.03
192365,1923.65
192425,1924.25
192486,1924.86
192547,1925.47
192609,1926.09
192671,1926.71
192732,1927.32
192793,1927.93
192855,1928.55
192917,1929.17
192980,1929.8
193045,1930.45
193111,1931.11
193176,1931.76
193240,1932.4
193306,1933.06
193373,1933.73
193439,1934.39
193507,1935.07
193573,1935.73
193638,1936.38
193702,1937.02
193765,1937.65
193828,1938.28
193894,1938.94
193964,1939.64
194033,1940.33
194100,1941.0
194167,1941.67
194233,1942.33
194299,1942.99
194368,1943.68
194437,1944.37
194507,1945.07
194575,1945.75
194641,1946.41
194708,1947.08
194774,1947.74
194841,1948.41
194908,1949.08
194976,1949.76
195043,1950.43
195109,1951.09
195175,1951.75
195243,1952.43
195313,1953.13
195385,1953.85
195456,1954.56
195524,1955.24
195591,1955.91
195660,1956.6
195728,1957.28
195798,1957.98
195866,1958.66
195933,1959.33
195999,1959.99
196065,1960.65
196133,1961.33
196201,1962.01
196267,1962.67
196333,1963.33
196397,1963.97
196460,1964.6
196525,1965.25
196594,1965.94
196668,1966.68
196741,1967.41
196812,1968.12
196883,1968.83
196956,1969.56
197029,1970.29
197105,1971.05
197181,1971.81
197253,1972.53
197323,1973.23
197395,1973.95
197467,1974.67
197539,1975.39
197609,1976.09
197677,1976.77
197745,1977.45
197812,1978.12
197880,1978.8
197949,1979.49
198017,1980.17
198083,1980.83
198149,1981.49
198214,1982.14
198276,1982.76
198339,1983.39
198405,1984.05
198476,1984.76
198547,1985.47
198616,1986.16
198683,1986.83
198751,1987.51
198821,1988.21
198895,1988.95
198969,1989.69
199038,1990.38
199106,1991.06
199173,1991.73
199243,1992.43
199317,1993.17
199391,1993.91
199466,1994.66
199538,1995.38
199605,1996.05
199673,1996.73
199738,1997.38
199804,1998.04
199867,1998.67
199928,1999.28
199988,1999.88
200048,2000.48
200108,2001.08
200166,2001.66
200225,2002.25
200283,2002.83
200341,2003.41
200398,2003.98
200453,2004.53
200509,2005.09
200563,2005.63
200617,2006.17
200671,2006.71
200726,2007.26
200780,2007.8
200834,2008.34
200888,2008.88
200942,2009.42
200998,2009.98
201055,2010.55
201112,2011.12
201167,2011.67
201222,2012.22
201278,2012.78
201336,2013.36
201396,2013.96
201460,2014.6
201526,2015.26
201591,2015.91
201656,2016.56
201718,2017.18
201781,2017.81
201845,2018.45
201908,2019.08
201971,2019.71
202031,2020.31
202092,2020.92
202153,2021.53
202215,2022.15
202276,2022.76
202336,2023.36
202397,2023.97
202458,2024.58
202523,2025.23
202586,2025.86
202650,2026.5
202715,2027.15
202785,2027.85
202854,2028.54
202922,2029.22
202991,2029.91
203057,2030.57
203121,2031.21
203185,2031.85
203248,2032.48
203315,2033.15
203383,2033.83
203453,2034.53
203523,2035.23
203590,2035.9
203658,2036.58
203723,2037.23
203791,2037.91
203858,2038.58
203926,2039.26
203997,2039.97
204065,2040.65
204131,2041.31
204195,2041.95
204260,2042.6
204325,2043.25
204396,2043.96
204467,2044.67
204541,2045.41
204611,2046.11
204678,2046.78
204744,2047.44
204812,2048.12
204883,2048.83
204952,2049.52
205021,2050.21
205088,2050.88
205153,2051.53
205217,2052.17
205284,2052.84
205355,2053.55
205432,2054.32
205504,2055.04
205574,2055.74
205640,2056.4
205704,2057.04
205768,2057.68
205833,2058.33
205902,2059.02
205972,2059.72
206040,2060.4
206104,2061.04
206165,2061.65
206226,2062.26
206284,2062.84
206342,2063.42
206400,2064.0
206459,2064.59
206518,2065.18
206577,2065.77
206638,2066.38
206701,2067.01
206768,2067.68
206834,2068.34
206899,2068.99
206965,2069.65
207034,2070.34
207106,2071.06
207181,2071.81
207253,2072.53
207326,2073.26
207398,2073.98
207465,2074.65
207532,2075.32
207599,2075.99
207670,2076.7
207748,2077.48
207824,2078.24
207897,2078.97
207969,2079.69
208039,2080.39
208112,2081.12
208190,2081.9
208266,2082.66
208341,2083.41
208415,2084.15
208487,2084.87
208556,2085.56
208622,2086.22
208689,2086.89
208755,2087.55
208823,2088.23
208893,2088.93
208965,2089.65
209036,2090.36
209105,2091.05
209175,2091.75
209246,2092.46
209317,2093.17
209390,2093.9
209462,2094.62
209531,2095.31
209598,2095.98
209667,2096.67
209736,2097.36
209805,2098.05
209873,2098.73
209940,2099.4
210005,2100.05
210069,2100.69
210133,2101.33
210199,2101.99
210265,2102.65
210331,2103.31
210397,2103.97
210462,2104.62
210529,2105.29
210597,2105.97
210666,2106.66
210737,2107.37
210810,2108.1
210880,2108.8
210948,2109.48
211016,2110.16
211088,2110.88
211160,2111.6
211235,2112.35
211309,2113.09
211381,2113.81
211450,2114.5
211517,2115.17
211586,2115.86
211654,2116.54
211725,2117.25
211796,2117.96
211871,2118.71
211947,2119.47
212019,2120.19
212089,2120.89
212159,2121.59
212231,2122.31
212305,2123.05
212379,2123.79
212453,2124.53
212525,2125.25
212594,2125.94
212662,2126.62
212731,2127.31
212798,2127.98
212865,2128.65
212933,2129.33
212998,2129.98
213061,2130.61
213122,2131.22
213183,2131.83
213246,2132.46
213310,2133.1
213373,2133.73
213435,2134.35
213498,2134.98
213565,2135.65
213636,2136.36
213708,2137.08
213781,2137.81
213855,2138.55
213930,2139.3
214001,2140.01
214071,2140.71
214142,2141.42
214211,2142.11
214275,2142.75
214339,2143.39
214404,2144.04
214470,2144.7
214537,2145.37
214603,2146.03
214672,2146.72
214745,2147.45
214818,2148.18
214892,2148.92
214965,2149.65
215037,2150.37
215107,2151.07
215175,2151.75
215242,2152.42
215310,2153.1
215379,2153.79
215453,2154.53
215528,2155.28
215602,2156.02
215674,2156.74
215744,2157.44
215815,2158.15
215889,2158.89
215963,2159.63
216036,2160.36
216105,2161.05
216173,2161.73
216240,2162.4
216308,2163.08
216376,2163.76
216447,2164.47
216520,2165.2
216591,2165.91
216661,2166.61
216731,2167.31
216799,2167.99
216869,2168.69
216937,2169.37
217006,2170.06
217076,2170.76
217147,2171.47
217218,2172.18
217288,2172.88
217356,2173.56
217422,2174.22
217490,2174.9
217560,2175.6
217633,2176.33
217707,2177.07
217780,2177.8
217852,2178.52
217924,2179.24
217993,2179.93
218059,2180.59
218126,2181.26
218192,2181.92
218263,2182.63
218335,2183.35
218409,2184.09
218480,2184.8
218552,2185.52
218622,2186.22
218691,2186.91
218760,2187.6
218827,2188.27
218894,2188.94
218961,2189.61
219029,2190.29
219096,2190.96
219164,2191.64
219233,2192.33
219307,2193.07
219381,2193.81
219456,2194.56
219527,2195.27
219596,2195.96
219662,2196.62
219728,2197.28
219794,2197.94
219861,2198.61
219926,2199.26
219988,2199.88
220050,2200.5
220111,2201.11
220172,2201.72
220233,2202.33
220294,2202.94
220357,2203.57
220423,2204.23
220489,2204.89
220554,2205.54
220619,2206.19
220687,2206.87
220757,2207.57
220828,2208.28
220899,2208.99
220967,2209.67
221035,2210.35
221103,2211.03
221173,2211.73
221244,2212.44
221313,2213.13
221379,2213.79
221444,2214.44
221507,2215.07
221569,2215.69
221631,2216.31
221692,2216.92
221752,2217.52
221812,2218.12
221871,2218.71
221929,2219.29
221987,2219.87
222046,2220.46
222105,2221.05
222166,2221.66
222229,2222.29
222293,2222.93
222357,2223.57
222420,2224.2
222483,2224.83
222548,2225.48
222615,2226.15
222684,2226.84
222750,2227.5
222814,2228.14
222876,2228.76
222938,2229.38
222998,2229.98
223058,2230.58
223118,2231.18
223178,2231.78
223238,2232.38
223299,2232.99
223363,2233.63
223428,2234.28
223499,2234.99
223574,2235.74
223650,2236.5
223726,2237.26
223798,2237.98
223867,2238.67
223937,2239.37
224007,2240.07
224076,2240.76
224143,2241.43
224208,2242.08
224272,2242.72
224335,2243.35
224398,2243.98
224462,2244.62
224529,2245.29
224598,2245.98
224670,2246.7
224741,2247.41
224812,2248.12
224882,2248.82
224952,2249.52
225022,2250.22
225093,2250.93
225164,2251.64
225236,2252.36
225307,2253.07
225376,2253.76
225442,2254.42
225507,2255.07
225574,2255.74
225643,2256.43
225712,2257.12
225781,2257.81
225848,2258.48
225915,2259.15
225980,2259.8
226044,2260.44
226110,2261.1
226175,2261.75
226242,2262.42
226311,2263.11
226379,2263.79
226449,2264.49
226517,2265.17
226587,2265.87
226658,2266.58
226730,2267.3
226801,2268.01
226870,2268.7
226937,2269.37
227001,2270.01
227065,2270.65
227129,2271.29
227195,2271.95
227262,2272.62
227330,2273.3
227399,2273.99
227470,2274.7
227542,2275.42
227618,2276.18
227697,2276.97
227780,2277.8
227864,2278.64
227943,2279.43
228014,2280.14
228085,2280.85
228144,2281.44
228203,2282.03
228268,2282.68
228326,2283.26
228388,2283.88
228446,2284.46
228505,2285.05
228569,2285.69
228636,2286.36
228708,2287.08
228782,2287.82
228857,2288.57
228934,2289.34
229006,2290.06
229076,2290.76
229146,2291.46
229215,2292.15
229284,2292.84
229356,2293.56
229430,2294.3
229505,2295.05
229579,2295.79
229652,2296.52
229723,2297.23
229796,2297.96
229870,2298.7
229945,2299.45
230018,2300.18
230091,2300.91
230162,2301.62
230232,2302.32
230303,2303.03
230375,2303.75
230449,2304.49
230521,2305.21
230593,2305.93
230664,2306.64
230733,2307.33
230802,2308.02
230872,2308.72
230944,2309.44
231017,2310.17
231090,2310.9
231160,2311.6
231227,2312.27
231294,2312.94
231362,2313.62
231432,2314.32
231508,2315.08
231585,2315.85
231653,2316.53
231722,2317.22
231791,2317.91
231861,2318.61
231928,2319.28
231993,2319.93
232057,2320.57
232120,2321.2
232182,2321.82
232243,2322.43
232304,2323.04
232365,2323.65
232427,2324.27
232491,2324.91
232555,2325.55
232619,2326.19
232685,2326.85
232755,2327.55
232825,2328.25
232896,2328.96
232964,2329.64
233030,2330.3
233092,2330.92
233153,2331.53
233213,2332.13
233274,2332.74
233335,2333.35
233395,2333.95
233454,2334.54
233513,2335.13
233571,2335.71
233630,2336.3
233690,2336.9
233752,2337.52
233815,2338.15
233880,2338.8
233945,2339.45
234009,2340.09
234075,2340.75
234141,2341.41
234208,2342.08
234276,2342.76
234342,2343.42
234408,2344.08
234475,2344.75
234541,2345.41
234608,2346.08
234676,2346.76
234743,2347.43
234807,2348.07
234873,2348.73
234939,2349.39
235005,2350.05
235074,2350.74
235144,2351.44
235214,2352.14
235283,2352.83
235351,2353.51
235417,2354.17
235483,2354.83
235548,2355.48
235615,2356.15
235682,2356.82
235751,2357.51
235818,2358.18
235882,2358.82
235945,2359.45
236006,2360.06
236068,2360.68
236140,2361.4
236214,2362.14
236289,2362.89
236365,2363.65
236441,2364.41
236513,2365.13
236581,2365.81
236646,2366.46
236710,2367.1
236773,2367.73
236835,2368.35
236896,2368.96
236960,2369.6
237027,2370.27
237096,2370.96
237166,2371.66
237239,2372.39
237315,2373.15
237390,2373.9
237466,2374.66
237543,2375.43
237617,2376.17
237691,2376.91
237761,2377.61
237831,2378.31
237900,2379.0
237970,2379.7
238040,2380.4
238112,2381.12
238185,2381.85
238259,2382.59
238333,2383.33
238405,2384.05
238476,2384.76
238546,2385.46
238615,2386.15
238684,2386.84
238754,2387.54
238826,2388.26
238896,2388.96
238965,2389.65
239035,2390.35
239107,2391.07
239180,2391.8
239255,2392.55
239328,2393.28
239400,2394.0
239471,2394.71
239539,2395.39
239608,2396.08
239679,2396.79
239752,2397.52
239825,2398.25
239898,2398.98
239972,2399.72
240044,2400.44
240114,2401.14
240183,2401.83
240253,2402.53
240322,2403.22
240395,2403.95
240469,2404.69
240543,2405.43
240614,2406.14
240683,2406.83
240753,2407.53
240823,2408.23
240892,2408.92
240962,2409.62
241030,2410.3
241098,2410.98
241165,2411.65
241234,2412.34
241303,2413.03
241370,2413.7
241439,2414.39
241507,2415.07
241574,2415.74
241641,2416.41
241710,2417.1
241782,2417.82
241852,2418.52
241924,2419.24
241997,2419.97
242066,2420.66
242134,2421.34
242204,2422.04
242274,2422.74
242345,2423.45
242416,2424.16
242485,2424.85
242553,2425.53
242620,2426.2
242688,2426.88
242756,2427.56
242825,2428.25
242894,2428.94
242963,2429.63
243032,2430.32
243101,2431.01
243168,2431.68
243238,2432.38
243309,2433.09
243379,2433.79
243449,2434.49
243516,2435.16
243583,2435.83
243649,2436.49
243715,2437.15
243782,2437.82
243851,2438.51
243922,2439.22
243993,2439.93
244064,2440.64
244134,2441.34
244208,2442.08
244286,2442.86
244363,2443.63
244438,2444.38
244509,2445.09
244577,2445.77
244645,2446.45
244712,2447.12
244780,2447.8
244848,2448.48
244917,2449.17
244988,2449.88
245060,2450.6
245130,2451.3
245200,2452.0
245268,2452.68
245336,2453.36
245408,2454.08
245481,2454.81
245555,2455.55
245627,2456.27
245697,2456.97
245765,2457.65
245832,2458.32
245900,2459.0
245969,2459.69
246042,2460.42
246115,2461.15
246188,2461.88
246260,2462.6
246330,2463.3
246400,2464.0
246470,2464.7
246541,2465.41
246612,2466.12
246681,2466.81
246748,2467.48
246815,2468.15
246882,2468.82
246953,2469.53
247025,2470.25
247098,2470.98
247172,2471.72
247244,2472.44
247314,2473.14
247385,2473.85
247458,2474.58
247532,2475.32
247603,2476.03
247674,2476.74
247742,2477.42
247808,2478.08
247874,2478.74
247939,2479.39
248007,2480.07
248079,2480.79
248159,2481.59
248237,2482.37
248313,2483.13
248387,2483.87
248458,2484.58
248526,2485.26
248593,2485.93
248658,2486.58
248721,2487.21
248784,2487.84
248848,2488.48
248914,2489.14
248984,2489.84
249053,2490.53
249121,2491.21
249188,2491.88
249253,2492.53
249317,2493.17
249381,2493.81
249446,2494.46
249512,2495.12
249577,2495.77
249645,2496.45
249717,2497.17
249789,2497.89
249862,2498.62
249936,2499.36
250008,2500.08
250077,2500.77
250144,2501.44
250213,2502.13
250284,2502.84
250356,2503.56
250429,2504.29
250500,2505.0
250569,2505.69
250637,2506.37
250705,2507.05
250774,2507.74
250845,2508.45
250917,2509.17
250987,2509.87
251057,2510.57
251125,2511.25
251193,2511.93
251262,2512.62
251331,2513.31
251403,2514.03
251476,2514.76
251550,2515.5
251624,2516.24
251694,2516.94
251764,2517.64
251832,2518.32
251902,2519.02
251972,2519.72
252046,2520.46
252120,2521.2
252194,2521.94
252267,2522.67
252338,2523.38
252410,2524.1
252486,2524.86
252563,2525.63
252642,2526.42
252718,2527.18
252791,2527.91
252862,2528.62
252932,2529.32
253001,2530.01
253071,2530.71
253145,2531.45
253220,2532.2
253296,2532.96
253369,2533.69
253442,2534.42
253516,2535.16
253590,2535.9
253662,2536.62
253734,2537.34
253804,2538.04
253873,2538.73
253941,2539.41
254011,2540.11
254083,2540.83
254155,2541.55
254231,2542.31
254306,2543.06
254380,2543.8
254452,2544.52
254524,2545.24
254596,2545.96
254668,2546.68
254738,2547.38
254807,2548.07
254876,2548.76
254943,2549.43
255009,2550.09
255075,2550.75
255142,2551.42
255213,2552.13
255288,2552.88
255364,2553.64
255436,2554.36
255507,2555.07
255577,2555.77
255648,2556.48
255719,2557.19
255790,2557.9
255859,2558.59
255927,2559.27
255994,2559.94
256060,2560.6
256126,2561.26
256194,2561.94
256263,2562.63
256334,2563.34
256405,2564.05
256475,2564.75
256542,2565.42
256610,2566.1
256679,2566.79
256749,2567.49
256821,2568.21
256894,2568.94
256967,2569.67
257040,2570.4
257113,2571.13
257184,2571.84
257256,2572.56
257331,2573.31
257406,2574.06
257480,2574.8
257556,2575.56
257631,2576.31
257703,2577.03
257774,2577.74
257845,2578.45
257916,2579.16
257989,2579.89
258063,2580.63
258137,2581.37
258209,2582.09
258279,2582.79
258348,2583.48
258415,2584.15
258485,2584.85
258555,2585.55
258628,2586.28
258703,2587.03
258777,2587.77
258850,2588.5
258921,2589.21
258993,2589.93
259067,2590.67
259140,2591.4
259212,2592.12
259283,2592.83
259352,2593.52
259419,2594.19
259487,2594.87
259558,2595.58
259630,2596.3
259704,2597.04
259778,2597.78
259853,2598.53
259927,2599.27
259998,2599.98
260071,2600.71
260146,2601.46
260220,2602.2
260292,2602.92
260362,2603.62
260431,2604.31
260497,2604.97
260564,2605.64
260631,2606.31
260703,2607.03
260776,2607.76
260848,2608.48
260920,2609.2
260994,2609.94
261070,2610.7
261144,2611.44
261219,2612.19
261292,2612.92
261361,2613.61
261429,2614.29
261497,2614.97
261567,2615.67
261639,2616.39
261711,2617.11
261786,2617.86
261861,2618.61
261935,2619.35
262012,2620.12
262090,2620.9
262165,2621.65
262238,2622.38
262308,2623.08
262376,2623.76
262443,2624.43
262513,2625.13
262587,2625.87
262661,2626.61
262735,2627.35
262808,2628.08
262880,2628.8
262952,2629.52
263029,2630.29
263109,2631.09
263188,2631.88
263268,2632.68
263343,2633.43
263415,2634.15
263486,2634.86
263557,2635.57
263630,2636.3
263704,2637.04
263779,2637.79
263853,2638.53
263924,2639.24
263994,2639.94
264065,2640.65
264136,2641.36
264210,2642.1
264286,2642.86
264360,2643.6
264432,2644.32
264500,2645.0
264568,2645.68
264634,2646.34
264701,2647.01
264772,2647.72
264847,2648.47
264920,2649.2
264995,2649.95
265076,2650.76
265160,2651.6
265243,2652.43
265326,2653.26
265403,2654.03
265475,2654.75
265545,2655.45
265613,2656.13
265683,2656.83
265753,2657.53
265823,2658.23
265893,2658.93
265962,2659.62
266031,2660.31
266101,2661.01
266173,2661.73
266245,2662.45
266316,2663.16
266386,2663.86
266455,2664.55
266524,2665.24
266595,2665.95
266667,2666.67
266739,2667.39
266809,2668.09
266878,2668.78
266947,2669.47
267016,2670.16
267086,2670.86
267156,2671.56
267224,2672.24
267291,2672.91
267357,2673.57
267422,2674.22
267487,2674.87
267555,2675.55
267625,2676.25
267695,2676.95
267766,2677.66
267836,2678.36
267906,2679.06
267976,2679.76
268049,2680.49
268120,2681.2
268189,2681.89
268257,2682.57
268323,2683.23
268389,2683.89
268453,2684.53
268518,2685.18
268586,2685.86
268654,2686.54
268724,2687.24
268795,2687.95
268865,2688.65
268934,2689.34
269004,2690.04
269073,2690.73
269143,2691.43
269214,2692.14
269285,2692.85
269354,2693.54
269423,2694.23
269491,2694.91
269560,2695.6
269629,2696.29
269698,2696.98
269770,2697.7
269840,2698.4
269910,2699.1
269977,2699.77
270045,2700.45
270114,2701.14
270187,2701.87
270260,2702.6
270332,2703.32
270403,2704.03
270473,2704.73
270544,2705.44
270619,2706.19
270695,2706.95
270771,2707.71
270846,2708.46
270919,2709.19
270990,2709.9
271063,2710.63
271137,2711.37
271210,2712.1
271282,2712.82
271354,2713.54
271424,2714.24
271493,2714.93
271562,2715.62
271633,2716.33
271707,2717.07
271783,2717.83
271861,2718.61
271936,2719.36
272009,2720.09
272081,2720.81
272154,2721.54
272230,2722.3
272307,2723.07
272382,2723.82
272453,2724.53
272523,2725.23
272593,2725.93
272663,2726.63
272738,2727.38
272814,2728.14
272891,2728.91
272967,2729.67
273042,2730.42
273118,2731.18
273193,2731.93
273269,2732.69
273345,2733.45
273420,2734.2
273491,2734.91
273562,2735.62
273633,2736.33
273705,2737.05
273778,2737.78
273850,2738.5
273921,2739.21
273991,2739.91
274062,2740.62
274132,2741.32
274204,2742.04
274278,2742.78
274352,2743.52
274424,2744.24
274494,2744.94
274565,2745.65
274639,2746.39
274717,2747.17
274796,2747.96
274876,2748.76
274951,2749.51
275023,2750.23
275095,2750.95
275168,2751.68
275241,2752.41
275314,2753.14
275386,2753.86
275457,2754.57
275525,2755.25
275595,2755.95
275667,2756.67
275742,2757.42
275815,2758.15
275890,2758.9
275961,2759.61
276032,2760.32
276104,2761.04
276177,2761.77
276248,2762.48
276318,2763.18
276388,2763.88
276455,2764.55
276523,2765.23
276589,2765.89
276660,2766.6
276737,2767.37
276822,2768.22
276910,2769.1
276999,2769.99
277080,2770.8
277163,2771.63
277247,2772.47
277331,2773.31
277412,2774.12
277490,2774.9
277567,2775.67
277645,2776.45
277721,2777.21
277797,2777.97
277872,2778.72
277946,2779.46
278019,2780.19
278094,2780.94
278168,2781.68
278242,2782.42
278317,2783.17
278392,2783.92
278466,2784.66
278538,2785.38
278609,2786.09
278680,2786.8
278751,2787.51
278823,2788.23
278895,2788.95
278966,2789.66
279036,2790.36
279105,2791.05
279175,2791.75
279247,2792.47
279322,2793.22
279398,2793.98
279471,2794.71
279543,2795.43
279611,2796.11
279679,2796.79
279747,2797.47
279816,2798.16
279887,2798.87
279961,2799.61
280036,2800.36
280110,2801.1
280190,2801.9
280270,2802.7
280350,2803.5
280428,2804.28
280507,2805.07
280580,2805.8
280652,2806.52
280721,2807.21
280792,2807.92
280866,2808.66
280944,2809.44
281025,2810.25
281107,2811.07
281183,2811.83
281256,2812.56
281330,2813.3
281406,2814.06
281484,2814.84
281560,2815.6
281636,2816.36
281709,2817.09
281782,2817.82
281856,2818.56
281932,2819.32
282007,2820.07
282085,2820.85
282158,2821.58
282230,2822.3
282298,2822.98
282366,2823.66
282436,2824.36
282506,2825.06
282577,2825.77
282650,2826.5
282721,2827.21
282793,2827.93
282865,2828.65
282942,2829.42
283022,2830.22
283098,2830.98
283172,2831.72
283246,2832.46
283320,2833.2
283398,2833.98
283476,2834.76
283554,2835.54
283631,2836.31
283704,2837.04
283776,2837.76
283846,2838.46
283917,2839.17
283989,2839.89
284060,2840.6
284132,2841.32
284205,2842.05
284277,2842.77
284346,2843.46
284414,2844.14
284483,2844.83
284552,2845.52
284620,2846.2
284690,2846.9
284758,2847.58
284828,2848.28
284899,2848.99
284971,2849.71
285046,2850.46
285124,2851.24
285202,2852.02
285276,2852.76
285347,2853.47
285419,2854.19
285493,2854.93
285568,2855.68
285643,2856.43
285716,2857.16
285788,2857.88
285858,2858.58
285929,2859.29
285998,2859.98
286068,2860.68
286137,2861.37
286206,2862.06
286273,2862.73
286341,2863.41
286411,2864.11
286482,2864.82
286554,2865.54
286625,2866.25
286695,2866.95
286764,2867.64
286832,2868.32
286901,2869.01
286970,2869.7
287042,2870.42
287113,2871.13
287182,2871.82
287251,2872.51
287322,2873.22
287395,2873.95
287468,2874.68
287544,2875.44
287619,2876.19
287693,2876.93
287765,2877.65
287838,2878.38
287911,2879.11
287987,2879.87
288063,2880.63
288134,2881.34
288202,2882.02
288268,2882.68
288335,2883.35
288404,2884.04
288477,2884.77
288555,2885.55
288634,2886.34
288711,2887.11
288787,2887.87
288864,2888.64
288945,2889.45
289024,2890.24
289104,2891.04
289184,2891.84
289260,2892.6
289331,2893.31
289401,2894.01
289470,2894.7
289540,2895.4
289610,2896.1
289682,2896.82
289756,2897.56
289830,2898.3
289906,2899.06
289987,2899.87
290077,2900.77
290168,2901.68
290254,2902.54
290335,2903.35
290415,2904.15
290495,2904.95
290574,2905.74
290653,2906.53
290733,2907.33
290812,2908.12
290888,2908.88
290962,2909.62
291033,2910.33
291101,2911.01
291169,2911.69
291243,2912.43
291325,2913.25
291409,2914.09
291488,2914.88
291569,2915.69
291654,2916.54
291740,2917.4
291827,2918.27
291911,2919.11
291994,2919.94
292075,2920.75
292157,2921.57
292239,2922.39
292322,2923.22
292402,2924.02
292479,2924.79
292554,2925.54
292628,2926.28
292700,2927.0
292769,2927.69
292841,2928.41
292912,2929.12
292983,2929.83
293055,2930.55
293129,2931.29
293209,2932.09
293289,2932.89
293369,2933.69
293444,2934.44
293517,2935.17
293591,2935.91
293664,2936.64
293739,2937.39
293813,2938.13
293885,2938.85
293955,2939.55
294024,2940.24
294093,2940.93
294166,2941.66
294242,2942.42
294318,2943.18
294394,2943.94
294470,2944.7
294547,2945.47
294627,2946.27
294706,2947.06
294787,2947.87
294866,2948.66
294948,2949.48
295024,2950.24
295096,2950.96
295166,2951.66
295234,2952.34
295303,2953.03
295375,2953.75
295449,2954.49
295528,2955.28
295605,2956.05
295680,2956.8
295760,2957.6
295844,2958.44
295930,2959.3
296012,2960.12
296091,2960.91
296166,2961.66
296240,2962.4
296315,2963.15
296390,2963.9
296464,2964.64
296537,2965.37
296609,2966.09
296679,2966.79
296751,2967.51
296825,2968.25
296900,2969.0
296977,2969.77
297051,2970.51
297123,2971.23
297193,2971.93
297264,2972.64
297336,2973.36
297409,2974.09
297482,2974.82
297555,2975.55
297627,2976.27
297696,2976.96
297765,2977.65
297834,2978.34
297903,2979.03
297976,2979.76
298050,2980.5
298123,2981.23
298193,2981.93
298264,2982.64
298336,2983.36
298412,2984.12
298488,2984.88
298566,2985.66
298639,2986.39
298713,2987.13
298787,2987.87
298861,2988.61
298936,2989.36
299009,2990.09
299083,2990.83
299155,2991.55
299224,2992.24
299295,2992.95
299370,2993.7
299445,2994.45
299520,2995.2
299595,2995.95
299667,2996.67
299738,2997.38
299806,2998.06
299874,2998.74
299944,2999.44
300019,3000.19
300097,3000.97
300172,3001.72
300247,3002.47
300323,3003.23
300404,3004.04
300489,3004.89
300572,3005.72
300653,3006.53
300729,3007.29
300804,3008.04
300880,3008.8
300955,3009.55
301031,3010.31
301106,3011.06
301182,3011.82
301255,3012.55
301326,3013.26
301397,3013.97
301469,3014.69
301542,3015.42
301615,3016.15
301689,3016.89
301761,3017.61
301830,3018.3
301898,3018.98
301965,3019.65
302033,3020.33
302105,3021.05
302185,3021.85
302266,3022.66
302347,3023.47
302425,3024.25
302503,3025.03
302584,3025.84
302662,3026.62
302740,3027.4
302814,3028.14
302884,3028.84
302955,3029.55
303027,3030.27
303102,3031.02
303179,3031.79
303255,3032.55
303328,3033.28
303401,3034.01
303475,3034.75
303549,3035.49
303624,3036.24
303700,3037.0
303773,3037.73
303845,3038.45
303917,3039.17
303990,3039.9
304063,3040.63
304138,3041.38
304212,3042.12
304285,3042.85
304358,3043.58
304428,3044.28
304497,3044.97
304568,3045.68
304640,3046.4
304713,3047.13
304785,3047.85
304858,3048.58
304937,3049.37
305017,3050.17
305096,3050.96
305171,3051.71
305243,3052.43
305314,3053.14
305383,3053.83
305453,3054.53
305528,3055.28
305608,3056.08
305691,3056.91
305774,3057.74
305852,3058.52
305926,3059.26
306001,3060.01
306075,3060.75
306148,3061.48
306220,3062.2
306291,3062.91
306361,3063.61
306430,3064.3
306500,3065.0
306573,3065.73
306654,3066.54
306738,3067.38
306825,3068.25
306908,3069.08
306986,3069.86
307059,3070.59
307130,3071.3
307201,3072.01
307272,3072.72
307345,3073.45
307416,3074.16
307488,3074.88
307562,3075.62
307638,3076.38
307716,3077.16
307794,3077.94
307871,3078.71
307951,3079.51
308026,3080.26
308097,3080.97
308167,3081.67
308239,3082.39
308316,3083.16
308393,3083.93
308471,3084.71
308549,3085.49
308627,3086.27
308710,3087.1
308798,3087.98
308888,3088.88
308974,3089.74
309055,3090.55
309129,3091.29
309201,3092.01
309274,3092.74
309350,3093.5
309427,3094.27
309505,3095.05
309583,3095.83
309658,3096.58
309734,3097.34
309813,3098.13
309891,3098.91
309969,3099.69
310046,3100.46
310124,3101.24
310197,3101.97
310268,3102.68
310338,3103.38
310409,3104.09
310481,3104.81
310555,3105.55
310628,3106.28
310701,3107.01
310774,3107.74
310848,3108.48
310922,3109.22
310998,3109.98
311074,3110.74
311149,3111.49
311222,3112.22
311295,3112.95
311370,3113.7
311445,3114.45
311521,3115.21
311598,3115.98
311672,3116.72
311745,3117.45
311818,3118.18
311893,3118.93
311968,3119.68
312043,3120.43
312117,3121.17
312190,3121.9
312264,3122.64
312339,3123.39
312415,3124.15
312491,3124.91
312568,3125.68
312641,3126.41
312715,3127.15
312790,3127.9
312867,3128.67
312944,3129.44
313018,3130.18
313091,3130.91
313165,3131.65
313240,3132.4
313320,3133.2
313400,3134.0
313478,3134.78
313555,3135.55
313634,3136.34
313715,3137.15
313797,3137.97
313876,3138.76
313952,3139.52
314027,3140.27
314102,3141.02
314179,3141.79
314258,3142.58
314335,3143.35
314412,3144.12
314487,3144.87
314564,3145.64
314642,3146.42
314720,3147.2
314796,3147.96
314874,3148.74
314950,3149.5
315027,3150.27
315108,3151.08
315189,3151.89
315269,3152.69
315347,3153.47
315422,3154.22
315492,3154.92
315560,3155.6
315625,3156.25
315689,3156.89
315750,3157.5
315810,3158.1
315870,3158.7
315930,3159.3
315991,3159.91
316053,3160.53
316115,3161.15
316176,3161.76
316236,3162.36
316296,3162.96
316356,3163.56
316417,3164.17
316478,3164.78
316539,3165.39
316602,3166.02
316667,3166.67
316733,3167.33
316801,3168.01
316870,3168.7
316937,3169.37
317004,3170.04
317069,3170.69
317135,3171.35
317201,3172.01
317269,3172.69
317337,3173.37
317405,3174.05
317472,3174.72
317538,3175.38
317606,3176.06
317676,3176.76
317749,3177.49
317822,3178.22
317892,3178.92
317963,3179.63
318032,3180.32
318102,3181.02
318170,3181.7
318241,3182.41
318313,3183.13
318384,3183.84
318453,3184.53
318521,3185.21
318589,3185.89
318656,3186.56
318724,3187.24
318792,3187.92
318861,3188.61
318930,3189.3
319000,3190.0
319071,3190.71
319144,3191.44
319217,3192.17
319292,3192.92
319367,3193.67
319439,3194.39
319509,3195.09
319579,3195.79
319648,3196.48
319718,3197.18
319789,3197.89
319861,3198.61
319931,3199.31
320002,3200.02
320072,3200.72
320145,3201.45
320220,3202.2
320295,3202.95
320369,3203.69
320440,3204.4
320509,3205.09
320579,3205.79
320651,3206.51
320729,3207.29
320813,3208.13
320896,3208.96
320980,3209.8
321063,3210.63
321138,3211.38
321208,3212.08
321279,3212.79
321350,3213.5
321436,3214.36
321528,3215.28
321618,3216.18
321707,3217.07
321797,3217.97
321881,3218.81
321964,3219.64
322045,3220.45
322124,3221.24
322200,3222.0
322276,3222.76
322352,3223.52
322430,3224.3
322508,3225.08
322585,3225.85
322659,3226.59
322733,3227.33
322806,3228.06
322880,3228.8
322954,3229.54
323031,3230.31
323109,3231.09
323184,3231.84
323259,3232.59
323337,3233.37
323415,3234.15
323494,3234.94
323574,3235.74
323654,3236.54
323731,3237.31
323807,3238.07
323882,3238.82
323956,3239.56
324032,3240.32
324108,3241.08
324185,3241.85
324261,3242.61
324335,3243.35
324408,3244.08
324481,3244.81
324553,3245.53
324627,3246.27
324701,3247.01
324774,3247.74
324848,3248.48
324920,3249.2
324993,3249.93
325068,3250.68
325149,3251.49
325229,3252.29
325309,3253.09
325385,3253.85
325459,3254.59
325530,3255.3
325602,3256.02
325675,3256.75
325747,3257.47
325818,3258.18
325888,3258.88
325957,3259.57
326027,3260.27
326096,3260.96
326167,3261.67
326239,3262.39
326312,3263.12
326383,3263.83
326453,3264.53
326523,3265.23
326593,3265.93
326663,3266.63
326732,3267.32
326804,3268.04
326877,3268.77
326949,3269.49
327020,3270.2
327095,3270.95
327174,3271.74
327251,3272.51
327326,3273.26
327399,3273.99
327469,3274.69
327539,3275.39
327613,3276.13
327692,3276.92
327773,3277.73
327852,3278.52
327930,3279.3
328010,3280.1
328092,3280.92
328173,3281.73
328252,3282.52
328328,3283.28
328400,3284.0
328472,3284.72
328546,3285.46
328619,3286.19
328693,3286.93
328767,3287.67
328839,3288.39
328911,3289.11
328984,3289.84
329058,3290.58
329132,3291.32
329207,3292.07
329281,3292.81
329354,3293.54
329426,3294.26
329501,3295.01
329580,3295.8
329658,3296.58
329737,3297.37
329814,3298.14
329888,3298.88
329962,3299.62
330035,3300.35
330110,3301.1
330185,3301.85
330262,3302.62
330343,3303.43
330421,3304.21
330496,3304.96
330569,3305.69
330644,3306.44
330719,3307.19
330794,3307.94
330870,3308.7
330945,3309.45
331018,3310.18
331091,3310.91
331166,3311.66
331241,3312.41
331316,3313.16
331390,3313.9
331464,3314.64
331535,3315.35
331607,3316.07
331680,3316.8
331756,3317.56
331833,3318.33
331912,3319.12
331988,3319.88
332060,3320.6
332129,3321.29
332198,3321.98
332268,3322.68
332341,3323.41
332420,3324.2
332504,3325.04
332585,3325.85
332667,3326.67
332752,3327.52
332844,3328.44
332936,3329.36
333025,3330.25
333107,3331.07
333182,3331.82
333257,3332.57
333334,3333.34
333413,3334.13
333494,3334.94
333571,3335.71
333648,3336.48
333724,3337.24
333800,3338.0
333877,3338.77
333954,3339.54
334033,3340.33
334111,3341.11
334186,3341.86
334259,3342.59
334331,3343.31
334402,3344.02
334476,3344.76
334554,3345.54
334632,3346.32
334709,3347.09
334783,3347.83
334854,3348.54
334923,3349.23
334991,3349.91
335061,3350.61
335131,3351.31
335207,3352.07
335287,3352.87
335369,3353.69
335448,3354.48
335530,3355.3
335614,3356.14
335695,3356.95
335777,3357.77
335856,3358.56
335933,3359.33
336010,3360.1
336087,3360.87
336166,3361.66
336244,3362.44
336319,3363.19
336395,3363.95
336469,3364.69
336542,3365.42
336616,3366.16
336692,3366.92
336768,3367.68
336846,3368.46
336922,3369.22
336996,3369.96
337069,3370.69
337141,3371.41
337214,3372.14
337288,3372.88
337364,3373.64
337439,3374.39
337516,3375.16
337591,3375.91
337667,3376.67
337746,3377.46
337829,3378.29
337913,3379.13
337992,3379.92
338069,3380.69
338146,3381.46
338224,3382.24
338304,3383.04
338384,3383.84
338463,3384.63
338539,3385.39
338612,3386.12
338686,3386.86
338759,3387.59
338833,3388.33
338908,3389.08
338981,3389.81
339054,3390.54
339127,3391.27
339202,3392.02
339279,3392.79
339357,3393.57
339437,3394.37
339514,3395.14
339588,3395.88
339663,3396.63
339741,3397.41
339819,3398.19
339896,3398.96
339971,3399.71
340046,3400.46
340119,3401.19
340193,3401.93
340267,3402.67
340342,3403.42
340416,3404.16
340489,3404.89
340562,3405.62
340634,3406.34
340706,3407.06
340779,3407.79
340854,3408.54
340928,3409.28
341000,3410.0
341071,3410.71
341142,3411.42
341213,3412.13
341287,3412.87
341360,3413.6
341434,3414.34
341507,3415.07
341582,3415.82
341658,3416.58
341733,3417.33
341810,3418.1
341885,3418.85
341958,3419.58
342031,3420.31
342104,3421.04
342177,3421.77
342250,3422.5
342323,3423.23
342394,3423.94
342465,3424.65
342536,3425.36
342608,3426.08
342682,3426.82
342756,3427.56
342832,3428.32
342906,3429.06
342977,3429.77
343050,3430.5
343124,3431.24
343199,3431.99
343274,3432.74
343346,3433.46
343417,3434.17
343489,3434.89
343564,3435.64
343645,3436.45
343725,3437.25
343805,3438.05
343880,3438.8
343953,3439.53
344028,3440.28
344104,3441.04
344181,3441.81
344259,3442.59
344339,3443.39
344421,3444.21
344499,3444.99
344577,3445.77
344656,3446.56
344738,3447.38
344820,3448.2
344898,3448.98
344975,3449.75
345052,3450.52
345130,3451.3
345209,3452.09
345288,3452.88
345366,3453.66
345442,3454.42
345516,3455.16
345592,3455.92
345671,3456.71
345751,3457.51
345832,3458.32
345909,3459.09
345985,3459.85
346060,3460.6
346136,3461.36
346214,3462.14
346292,3462.92
346369,3463.69
346442,3464.42
346513,3465.13
346581,3465.81
346650,3466.5
346723,3467.23
346809,3468.09
346902,3469.02
346993,3469.93
347083,3470.83
347176,3471.76
347264,3472.64
347352,3473.52
347437,3474.37
347517,3475.17
347597,3475.97
347667,3476.67
347739,3477.39
347818,3478.18
347899,3478.99
347976,3479.76
348053,3480.53
348140,3481.4
348227,3482.27
348308,3483.08
348394,3483.94
348478,3484.78
348554,3485.54
348627,3486.27
348699,3486.99
348771,3487.71
348845,3488.45
348922,3489.22
348997,3489.97
349074,3490.74
349152,3491.52
349243,3492.43
349327,3493.27
349418,3494.18
349495,3494.95
349570,3495.7
349646,3496.46
349723,3497.23
349800,3498.0
349880,3498.8
349955,3499.55
350030,3500.3
350107,3501.07
350185,3501.85
350266,3502.66
350345,3503.45
350420,3504.2
350496,3504.96
350573,3505.73
350649,3506.49
350723,3507.23
350797,3507.97
350867,3508.67
350935,3509.35
351007,3510.07
351088,3510.88
351174,3511.74
351255,3512.55
351331,3513.31
351405,3514.05
351484,3514.84
351570,3515.7
351650,3516.5
351730,3517.3
351810,3518.1
351888,3518.88
351963,3519.63
352041,3520.41
352119,3521.19
352205,3522.05
352286,3522.86
352364,3523.64
352438,3524.38
352511,3525.11
352587,3525.87
352662,3526.62
352740,3527.4
352818,3528.18
352889,3528.89
352960,3529.6
353030,3530.3
353102,3531.02
353188,3531.88
353274,3532.74
353355,3533.55
353433,3534.33
353508,3535.08
353584,3535.84
353677,3536.77
353771,3537.71
353856,3538.56
353937,3539.37
354018,3540.18
354099,3540.99
354181,3541.81
354263,3542.63
354344,3543.44
354424,3544.24
354503,3545.03
354584,3545.84
354666,3546.66
354748,3547.48
354830,3548.3
354910,3549.1
354989,3549.89
355068,3550.68
355147,3551.47
355227,3552.27
355308,3553.08
355386,3553.86
355463,3554.63
355539,3555.39
355616,3556.16
355695,3556.95
355777,3557.77
355858,3558.58
355937,3559.37
356015,3560.15
356096,3560.96
356177,3561.77
356259,3562.59
356339,3563.39
356418,3564.18
356499,3564.99
356580,3565.8
356660,3566.6
356740,3567.4
356819,3568.19
356896,3568.96
356971,3569.71
357048,3570.48
357129,3571.29
357211,3572.11
357295,3572.95
357375,3573.75
357455,3574.55
357534,3575.34
357616,3576.16
357699,3576.99
357783,3577.83
357865,3578.65
357946,3579.46
358024,3580.24
358102,3581.02
358181,3581.81
358260,3582.6
358340,3583.4
358418,3584.18
358495,3584.95
358576,3585.76
358658,3586.58
358742,3587.42
358826,3588.26
358909,3589.09
358990,3589.9
359072,3590.72
359154,3591.54
359235,3592.35
359316,3593.16
359395,3593.95
359475,3594.75
359554,3595.54
359634,3596.34
359714,3597.14
359792,3597.92
359873,3598.73
359954,3599.54
360036,3600.36
360118,3601.18
360199,3601.99
360279,3602.79
360360,3603.6
360443,3604.43
360525,3605.25
360609,3606.09
360693,3606.93
360771,3607.71
360848,3608.48
360921,3609.21
360996,3609.96
361075,3610.75
361151,3611.51
361230,3612.3
361311,3613.11
361393,3613.93
361477,3614.77
361560,3615.6
361639,3616.39
361716,3617.16
361796,3617.96
361876,3618.76
361956,3619.56
362037,3620.37
362114,3621.14
362189,3621.89
362265,3622.65
362341,3623.41
362419,3624.19
362500,3625.0
362580,3625.8
362659,3626.59
362738,3627.38
362821,3628.21
362909,3629.09
362999,3629.99
363083,3630.83
363163,3631.63
363241,3632.41
363319,3633.19
363395,3633.95
363472,3634.72
363548,3635.48
363624,3636.24
363703,3637.03
363793,3637.93
363893,3638.93
363994,3639.94
364091,3640.91
364179,3641.79
364263,3642.63
364343,3643.43
364424,3644.24
364503,3645.03
364579,3645.79
364655,3646.55
364730,3647.3
364805,3648.05
364878,3648.78
364949,3649.49
365019,3650.19
365090,3650.9
365164,3651.64
365245,3652.45
365333,3653.33
365418,3654.18
365499,3654.99
365585,3655.85
365671,3656.71
365759,3657.59
365839,3658.39
365915,3659.15
365992,3659.92
366071,3660.71
366152,3661.52
366230,3662.3
366307,3663.07
366382,3663.82
366454,3664.54
366529,3665.29
366610,3666.1
366694,3666.94
366776,3667.76
366855,3668.55
366933,3669.33
367011,3670.11
367090,3670.9
367169,3671.69
367243,3672.43
367312,3673.12
367378,3673.78
367444,3674.44
367514,3675.14
367593,3675.93
367676,3676.76
367760,3677.6
367842,3678.42
367928,3679.28
368012,3680.12
368094,3680.94
368174,3681.74
368251,3682.51
368327,3683.27
368404,3684.04
368480,3684.8
368554,3685.54
368626,3686.26
368698,3686.98
368774,3687.74
368852,3688.52
368932,3689.32
369010,3690.1
369084,3690.84
369157,3691.57
369232,3692.32
369308,3693.08
369384,3693.84
369464,3694.64
369545,3695.45
369623,3696.23
369700,3697.0
369780,3697.8
369860,3698.6
369944,3699.44
370029,3700.29
370108,3701.08
370184,3701.84
370262,3702.62
370340,3703.4
370420,3704.2
370502,3705.02
370583,3705.83
370664,3706.64
370738,3707.38
370808,3708.08
370875,3708.75
370939,3709.39
371006,3710.06
371081,3710.81
371165,3711.65
371255,3712.55
371345,3713.45
371437,3714.37
371532,3715.32
371625,3716.25
371716,3717.16
371803,3718.03
371886,3718.86
371966,3719.66
372046,3720.46
372120,3721.2
372195,3721.95
372272,3722.72
372348,3723.48
372423,3724.23
372496,3724.96
372573,3725.73
372658,3726.58
372743,3727.43
372822,3728.22
372902,3729.02
372977,3729.77
373050,3730.5
373126,3731.26
373200,3732.0
373279,3732.79
373362,3733.62
373444,3734.44
373524,3735.24
373610,3736.1
373704,3737.04
373800,3738.0
373891,3738.91
373974,3739.74
374056,3740.56
374138,3741.38
374221,3742.21
374302,3743.02
374384,3743.84
374463,3744.63
374541,3745.41
374621,3746.21
374701,3747.01
374782,3747.82
374863,3748.63
374946,3749.46
375027,3750.27
375108,3751.08
375189,3751.89
375271,3752.71
375354,3753.54
375437,3754.37
375520,3755.2
375600,3756.0
375678,3756.78
375755,3757.55
375824,3758.24
375894,3758.94
375968,3759.68
376041,3760.41
376116,3761.16
376191,3761.91
376276,3762.76
376365,3763.65
376458,3764.58
376550,3765.5
376638,3766.38
376723,3767.23
376806,3768.06
376889,3768.89
376972,3769.72
377054,3770.54
377134,3771.34
377213,3772.13
377291,3772.91
377367,3773.67
377443,3774.43
377520,3775.2
377594,3775.94
377668,3776.68
377743,3777.43
377820,3778.2
377902,3779.02
377978,3779.78
378054,3780.54
378132,3781.32
378213,3782.13
378295,3782.95
378372,3783.72
378448,3784.48
378523,3785.23
378603,3786.03
378688,3786.88
378770,3787.7
378848,3788.48
378924,3789.24
378998,3789.98
379074,3790.74
379158,3791.58
379237,3792.37
379319,3793.19
379394,3793.94
379470,3794.7
379548,3795.48
379630,3796.3
379713,3797.13
379794,3797.94
379877,3798.77
379954,3799.54
380029,3800.29
380103,3801.03
380183,3801.83
380262,3802.62
380344,3803.44
380419,3804.19
380494,3804.94
380574,3805.74
380660,3806.6
380749,3807.49
380829,3808.29
380908,3809.08
380989,3809.89
381073,3810.73
381154,3811.54
381240,3812.4
381318,3813.18
381391,3813.91
381461,3814.61
381526,3815.26
381588,3815.88
381651,3816.51
381718,3817.18
381795,3817.95
381876,3818.76
381956,3819.56
382040,3820.4
382129,3821.29
382218,3822.18
382308,3823.08
382394,3823.94
382475,3824.75
382560,3825.6
382644,3826.44
382727,3827.27
382804,3828.04
382877,3828.77
382949,3829.49
383022,3830.22
383096,3830.96
383175,3831.75
383253,3832.53
383327,3833.27
383401,3834.01
383475,3834.75
383555,3835.55
383635,3836.35
383720,3837.2
383801,3838.01
383877,3838.77
383950,3839.5
384021,3840.21
384094,3840.94
384171,3841.71
384258,3842.58
384342,3843.42
384422,3844.22
384502,3845.02
384585,3845.85
384665,3846.65
384748,3847.48
384832,3848.32
384914,3849.14
384994,3849.94
385073,3850.73
385154,3851.54
385237,3852.37
385321,3853.21
385398,3853.98
385476,3854.76
385555,3855.55
385636,3856.36
385719,3857.19
385798,3857.98
385874,3858.74
385950,3859.5
386026,3860.26
386104,3861.04
386182,3861.82
386260,3862.6
386336,3863.36
386411,3864.11
386487,3864.87
386563,3865.63
386642,3866.42
386719,3867.19
386793,3867.93
386864,3868.64
386933,3869.33
387006,3870.06
387086,3870.86
387171,3871.71
387256,3872.56
387334,3873.34
387410,3874.1
387483,3874.83
387556,3875.56
387629,3876.29
387701,3877.01
387772,3877.72
387843,3878.43
387919,3879.19
388006,3880.06
388093,3880.93
388175,3881.75
388250,3882.5
388323,3883.23
388395,3883.95
388469,3884.69
388546,3885.46
388623,3886.23
388700,3887.0
388774,3887.74
388846,3888.46
388919,3889.19
388994,3889.94
389073,3890.73
389152,3891.52
389232,3892.32
389308,3893.08
389382,3893.82
389457,3894.57
389534,3895.34
389612,3896.12
389692,3896.92
389771,3897.71
389848,3898.48
389923,3899.23
390000,3900.0
390075,3900.75
390152,3901.52
390227,3902.27
390305,3903.05
390385,3903.85
390466,3904.66
390548,3905.48
390626,3906.26
390701,3907.01
390774,3907.74
390845,3908.45
390916,3909.16
390986,3909.86
391059,3910.59
391132,3911.32
391206,3912.06
391282,3912.82
391363,3913.63
391450,3914.5
391537,3915.37
391620,3916.2
391699,3916.99
391780,3917.8
391861,3918.61
391941,3919.41
392019,3920.19
392094,3920.94
392167,3921.67
392238,3922.38
392309,3923.09
392379,3923.79
392451,3924.51
392522,3925.22
392590,3925.9
392658,3926.58
392724,3927.24
392795,3927.95
392873,3928.73
392954,3929.54
393037,3930.37
393122,3931.22
393209,3932.09
393300,3933.0
393392,3933.92
393479,3934.79
393563,3935.63
393644,3936.44
393725,3937.25
393806,3938.06
393888,3938.88
393969,3939.69
394048,3940.48
394126,3941.26
394202,3942.02
394278,3942.78
394356,3943.56
394434,3944.34
394515,3945.15
394597,3945.97
394677,3946.77
394756,3947.56
394836,3948.36
394916,3949.16
394996,3949.96
395074,3950.74
395153,3951.53
395233,3952.33
395314,3953.14
395393,3953.93
395471,3954.71
395549,3955.49
395629,3956.29
395709,3957.09
395786,3957.86
395863,3958.63
395937,3959.37
396011,3960.11
396085,3960.85
396164,3961.64
396249,3962.49
396339,3963.39
396430,3964.3
396513,3965.13
396595,3965.95
396679,3966.79
396765,3967.65
396852,3968.52
396936,3969.36
397015,3970.15
397095,3970.95
397174,3971.74
397251,3972.51
397329,3973.29
397408,3974.08
397485,3974.85
397562,3975.62
397638,3976.38
397712,3977.12
397784,3977.84
397854,3978.54
397924,3979.24
397994,3979.94
398066,3980.66
398150,3981.5
398237,3982.37
398326,3983.26
398412,3984.12
398494,3984.94
398578,3985.78
398662,3986.62
398746,3987.46
398830,3988.3
398909,3989.09
398985,3989.85
399061,3990.61
399136,3991.36
399209,3992.09
399280,3992.8
399349,3993.49
399419,3994.19
399489,3994.89
399562,3995.62
399635,3996.35
399706,3997.06
399777,3997.77
399850,3998.5
399925,3999.25
400000,4000.0
400075,4000.75
400148,4001.48
400221,4002.21
400295,4002.95
400369,4003.69
400444,4004.44
400518,4005.18
400594,4005.94
400671,4006.71
400748,4007.48
400828,4008.28
400907,4009.07
400985,4009.85
401062,4010.62
401140,4011.4
401218,4012.18
401295,4012.95
401372,4013.72
401450,4014.5
401526,4015.26
401601,4016.01
401674,4016.74
401746,4017.46
401820,4018.2
401895,4018.95
401973,4019.73
402050,4020.5
402127,4021.27
402199,4021.99
402269,4022.69
402336,4023.36
402404,4024.04
402475,4024.75
402547,4025.47
402620,4026.2
402693,4026.93
402770,4027.7
402856,4028.56
402942,4029.42
403029,4030.29
403109,4031.09
403182,4031.82
403254,4032.54
403325,4033.25
403396,4033.96
403467,4034.67
403539,4035.39
403608,4036.08
403676,4036.76
403745,4037.45
403814,4038.14
403884,4038.84
403956,4039.56
404027,4040.27
404097,4040.97
404167,4041.67
404238,4042.38
404309,4043.09
404381,4043.81
404453,4044.53
404525,4045.25
404595,4045.95
404664,4046.64
404732,4047.32
404802,4048.02
404874,4048.74
404948,4049.48
405023,4050.23
405093,4050.93
405164,4051.64
405237,4052.37
405310,4053.1
405386,4053.86
405462,4054.62
405540,4055.4
405615,4056.15
405691,4056.91
405768,4057.68
405846,4058.46
405926,4059.26
406005,4060.05
406081,4060.81
406158,4061.58
406234,4062.34
406311,4063.11
406389,4063.89
406467,4064.67
406545,4065.45
406620,4066.2
406693,4066.93
406764,4067.64
406835,4068.35
406905,4069.05
406976,4069.76
407048,4070.48
407120,4071.2
407191,4071.91
407265,4072.65
407344,4073.44
407426,4074.26
407509,4075.09
407588,4075.88
407666,4076.66
407743,4077.43
407822,4078.22
407903,4079.03
407982,4079.82
408058,4080.58
408134,4081.34
408209,4082.09
408285,4082.85
408363,4083.63
408442,4084.42
408520,4085.2
408598,4085.98
408673,4086.73
408749,4087.49
408825,4088.25
408901,4089.01
408979,4089.79
409058,4090.58
409135,4091.35
409209,4092.09
409282,4092.82
409355,4093.55
409432,4094.32
409505,4095.05
409575,4095.75
409644,4096.44
409713,4097.13
409782,4097.82
409858,4098.58
409942,4099.42
410032,4100.32
410122,4101.22
410206,4102.06
410288,4102.88
410373,4103.73
410456,4104.56
410536,4105.36
410611,4106.11
410684,4106.84
410757,4107.57
410835,4108.35
410916,4109.16
410998,4109.98
411074,4110.74
411149,4111.49
411221,4112.21
411292,4112.92
411367,4113.67
411447,4114.47
411532,4115.32
411616,4116.16
411696,4116.96
411777,4117.77
411857,4118.57
411937,4119.37
412018,4120.18
412102,4121.02
412187,4121.87
412268,4122.68
412346,4123.46
412424,4124.24
412503,4125.03
412578,4125.78
412651,4126.51
412724,4127.24
412795,4127.95
412866,4128.66
412939,4129.39
413013,4130.13
413088,4130.88
413165,4131.65
413245,4132.45
413321,4133.21
413396,4133.96
413471,4134.71
413550,4135.5
413628,4136.28
413705,4137.05
413784,4137.84
413861,4138.61
413936,4139.36
414010,4140.1
414087,4140.87
414163,4141.63
414238,4142.38
414315,4143.15
414389,4143.89
414462,4144.62
414537,4145.37
414613,4146.13
414689,4146.89
414764,4147.64
414837,4148.37
414912,4149.12
414988,4149.88
415064,4150.64
415141,4151.41
415220,4152.2
415296,4152.96
415371,4153.71
415448,4154.48
415526,4155.26
415604,4156.04
415684,4156.84
415763,4157.63
415841,4158.41
415917,4159.17
415988,4159.88
416056,4160.56
416123,4161.23
416193,4161.93
416272,4162.72
416356,4163.56
416440,4164.4
416526,4165.26
416618,4166.18
416715,4167.15
416809,4168.09
416898,4168.98
416982,4169.82
417059,4170.59
417135,4171.35
417215,4172.15
417296,4172.96
417373,4173.73
417448,4174.48
417522,4175.22
417597,4175.97
417672,4176.72
417750,4177.5
417828,4178.28
417904,4179.04
417980,4179.8
418057,4180.57
418134,4181.34
418213,4182.13
418290,4182.9
418365,4183.65
418440,4184.4
418513,4185.13
418586,4185.86
418662,4186.62
418736,4187.36
418807,4188.07
418877,4188.77
418946,4189.46
419021,4190.21
419104,4191.04
419190,4191.9
419281,4192.81
419370,4193.7
419452,4194.52
419533,4195.33
419615,4196.15
419698,4196.98
419779,4197.79
419858,4198.58
419935,4199.35
420010,4200.1
420084,4200.84
420159,4201.59
420235,4202.35
420312,4203.12
420391,4203.91
420472,4204.72
420554,4205.54
420632,4206.32
420710,4207.1
420788,4207.88
420867,4208.67
420952,4209.52
421040,4210.4
421131,4211.31
421223,4212.23
421310,4213.1
421394,4213.94
421480,4214.8
421565,4215.65
421649,4216.49
421734,4217.34
421817,4218.17
421900,4219.0
421978,4219.78
422051,4220.51
422117,4221.17
422183,4221.83
422248,4222.48
422316,4223.16
422391,4223.91
422483,4224.83
422575,4225.75
422670,4226.7
422761,4227.61
422851,4228.51
422942,4229.42
423032,4230.32
423119,4231.19
423204,4232.04
423286,4232.86
423368,4233.68
423451,4234.51
423531,4235.31
423611,4236.11
423690,4236.9
423766,4237.66
423840,4238.4
423914,4239.14
423989,4239.89
424068,4240.68
424147,4241.47
424224,4242.24
424300,4243.0
424377,4243.77
424456,4244.56
424537,4245.37
424617,4246.17
424695,4246.95
424776,4247.76
424860,4248.6
424944,4249.44
425028,4250.28
425111,4251.11
425195,4251.95
425280,4252.8
425367,4253.67
425455,4254.55
425540,4255.4
425624,4256.24
425706,4257.06
425789,4257.89
425870,4258.7
425950,4259.5
426028,4260.28
426106,4261.06
426184,4261.84
426264,4262.64
426346,4263.46
426428,4264.28
426509,4265.09
426589,4265.89
426669,4266.69
426750,4267.5
426833,4268.33
426915,4269.15
426993,4269.93
427072,4270.72
427153,4271.53
427234,4272.34
427315,4273.15
427396,4273.96
427475,4274.75
427554,4275.54
427630,4276.3
427705,4277.05
427780,4277.8
427858,4278.58
427935,4279.35
428014,4280.14
428097,4280.97
428186,4281.86
428279,4282.79
428373,4283.73
428458,4284.58
428538,4285.38
428619,4286.19
428701,4287.01
428783,4287.83
428866,4288.66
428944,4289.44
429021,4290.21
429098,4290.98
429178,4291.78
429260,4292.6
429340,4293.4
429419,4294.19
429500,4295.0
429582,4295.82
429663,4296.63
429743,4297.43
429820,4298.2
429895,4298.95
429970,4299.7
430044,4300.44
430120,4301.2
430197,4301.97
430273,4302.73
430350,4303.5
430432,4304.32
430518,4305.18
430607,4306.07
430697,4306.97
430784,4307.84
430870,4308.7
430957,4309.57
431042,4310.42
431128,4311.28
431213,4312.13
431294,4312.94
431374,4313.74
431453,4314.53
431534,4315.34
431616,4316.16
431699,4316.99
431780,4317.8
431860,4318.6
431943,4319.43
432027,4320.27
432109,4321.09
432193,4321.93
432274,4322.74
432354,4323.54
432432,4324.32
432513,4325.13
432594,4325.94
432675,4326.75
432753,4327.53
432832,4328.32
432912,4329.12
432993,4329.93
433074,4330.74
433154,4331.54
433234,4332.34
433315,4333.15
433397,4333.97
433481,4334.81
433562,4335.62
433641,4336.41
433720,4337.2
433801,4338.01
433884,4338.84
433968,4339.68
434048,4340.48
434126,4341.26
434204,4342.04
434282,4342.82
434362,4343.62
434439,4344.39
434516,4345.16
434593,4345.93
434672,4346.72
434753,4347.53
434835,4348.35
434915,4349.15
434993,4349.93
435072,4350.72
435153,4351.53
435236,4352.36
435319,4353.19
435399,4353.99
435476,4354.76
435551,4355.51
435627,4356.27
435704,4357.04
435784,4357.84
435866,4358.66
435946,4359.46
436028,4360.28
436109,4361.09
436190,4361.9
436275,4362.75
436361,4363.61
436441,4364.41
436520,4365.2
436600,4366.0
436681,4366.81
436766,4367.66
436851,4368.51
436932,4369.32
437013,4370.13
437092,4370.92
437173,4371.73
437256,4372.56
437339,4373.39
437421,4374.21
437499,4374.99
437575,4375.75
437652,4376.52
437729,4377.29
437807,4378.07
437886,4378.86
437963,4379.63
438041,4380.41
438123,4381.23
438205,4382.05
438288,4382.88
438371,4383.71
438454,4384.54
438533,4385.33
438613,4386.13
438692,4386.92
438772,4387.72
438852,4388.52
438931,4389.31
439009,4390.09
439092,4390.92
439177,4391.77
439263,4392.63
439347,4393.47
439427,4394.27
439505,4395.05
439585,4395.85
439665,4396.65
439745,4397.45
439825,4398.25
439902,4399.02
439978,4399.78
440055,4400.55
440133,4401.33
440215,4402.15
440298,4402.98
440383,4403.83
440463,4404.63
440544,4405.44
440628,4406.28
440713,4407.13
440798,4407.98
440883,4408.83
440968,4409.68
441046,4410.46
441125,4411.25
441204,4412.04
441284,4412.84
441364,4413.64
441445,4414.45
441527,4415.27
441607,4416.07
441689,4416.89
441776,4417.76
441863,4418.63
441946,4419.46
442028,4420.28
442107,4421.07
442186,4421.86
442263,4422.63
442342,4423.42
442419,4424.19
442495,4424.95
442572,4425.72
442648,4426.48
442725,4427.25
442802,4428.02
442880,4428.8
442957,4429.57
443033,4430.33
443110,4431.1
443187,4431.87
443265,4432.65
443342,4433.42
443417,4434.17
443493,4434.93
443570,4435.7
443652,4436.52
443734,4437.34
443814,4438.14
443892,4438.92
443971,4439.71
444051,4440.51
444131,4441.31
444210,4442.1
444287,4442.87
444361,4443.61
444436,4444.36
444513,4445.13
444590,4445.9
444667,4446.67
444743,4447.43
444817,4448.17
444894,4448.94
444971,4449.71
445049,4450.49
445125,4451.25
445200,4452.0
445275,4452.75
445349,4453.49
445424,4454.24
445501,4455.01
445578,4455.78
445655,4456.55
445731,4457.31
445805,4458.05
445881,4458.81
445958,4459.58
446035,4460.35
446109,4461.09
446183,4461.83
446257,4462.57
446333,4463.33
446413,4464.13
446493,4464.93
446572,4465.72
446648,4466.48
446722,4467.22
446798,4467.98
446876,4468.76
446954,4469.54
447032,4470.32
447109,4471.09
447183,4471.83
447257,4472.57
447333,4473.33
447410,4474.1
447488,4474.88
447564,4475.64
447639,4476.39
447714,4477.14
447791,4477.91
447869,4478.69
447946,4479.46
448021,4480.21
448095,4480.95
448171,4481.71
448249,4482.49
448326,4483.26
448403,4484.03
448476,4484.76
448548,4485.48
448620,4486.2
448693,4486.93
448765,4487.65
448839,4488.39
448913,4489.13
448987,4489.87
449062,4490.62
449140,4491.4
449220,4492.2
449299,4492.99
449376,4493.76
449452,4494.52
449528,4495.28
449605,4496.05
449683,4496.83
449762,4497.62
449840,4498.4
449915,4499.15
449992,4499.92
450069,4500.69
450149,4501.49
450228,4502.28
450305,4503.05
450382,4503.82
450458,4504.58
450534,4505.34
450612,4506.12
450691,4506.91
450768,4507.68
450844,4508.44
450920,4509.2
450999,4509.99
451079,4510.79
451162,4511.62
451240,4512.4
451315,4513.15
451393,4513.93
451470,4514.7
451548,4515.48
451627,4516.27
451705,4517.05
451782,4517.82
451856,4518.56
451931,4519.31
452010,4520.1
452089,4520.89
452164,4521.64
452237,4522.37
452310,4523.1
452383,4523.83
452459,4524.59
452541,4525.41
452622,4526.22
452704,4527.04
452785,4527.85
452868,4528.68
452952,4529.52
453035,4530.35
453116,4531.16
453194,4531.94
453269,4532.69
453346,4533.46
453425,4534.25
453505,4535.05
453584,4535.84
453663,4536.63
453738,4537.38
453812,4538.12
453886,4538.86
453963,4539.63
454043,4540.43
454122,4541.22
454200,4542.0
454277,4542.77
454351,4543.51
454425,4544.25
454502,4545.02
454580,4545.8
454658,4546.58
454735,4547.35
454810,4548.1
454887,4548.87
454964,4549.64
455042,4550.42
455120,4551.2
455196,4551.96
455270,4552.7
455344,4553.44
455419,4554.19
455494,4554.94
455569,4555.69
455644,4556.44
455717,4557.17
455790,4557.9
455866,4558.66
455944,4559.44
456021,4560.21
456099,4560.99
456175,4561.75
456250,4562.5
456322,4563.22
456395,4563.95
456469,4564.69
456544,4565.44
456621,4566.21
456697,4566.97
456770,4567.7
456841,4568.41
456912,4569.12
456985,4569.85
457060,4570.6
457136,4571.36
457211,4572.11
457287,4572.87
457364,4573.64
457442,4574.42
457523,4575.23
457602,4576.02
457679,4576.79
457753,4577.53
457828,4578.28
457904,4579.04
457981,4579.81
458059,4580.59
458134,4581.34
458208,4582.08
458282,4582.82
458358,4583.58
458435,4584.35
458513,4585.13
458589,4585.89
458663,4586.63
458738,4587.38
458812,4588.12
458887,4588.87
458963,4589.63
459040,4590.4
459116,4591.16
459191,4591.91
459264,4592.64
459339,4593.39
459414,4594.14
459489,4594.89
459565,4595.65
459639,4596.39
459712,4597.12
459786,4597.86
459862,4598.62
459937,4599.37
460012,4600.12
460084,4600.84
460155,4601.55
460226,4602.26
460298,4602.98
460372,4603.72
460448,4604.48
460523,4605.23
460596,4605.96
460668,4606.68
460743,4607.43
460819,4608.19
460896,4608.96
460974,4609.74
461049,4610.49
461123,4611.23
461199,4611.99
461276,4612.76
461352,4613.52
461429,4614.29
461502,4615.02
461574,4615.74
461647,4616.47
461721,4617.21
461796,4617.96
461872,4618.72
461949,4619.49
462024,4620.24
462098,4620.98
462174,4621.74
462252,4622.52
462330,4623.3
462409,4624.09
462488,4624.88
462563,4625.63
462637,4626.37
462710,4627.1
462783,4627.83
462858,4628.58
462934,4629.34
463008,4630.08
463082,4630.82
463157,4631.57
463234,4632.34
463313,4633.13
463393,4633.93
463471,4634.71
463547,4635.47
463622,4636.22
463700,4637.0
463778,4637.78
463855,4638.55
463931,4639.31
464007,4640.07
464084,4640.84
464159,4641.59
464235,4642.35
464309,4643.09
464385,4643.85
464461,4644.61
464539,4645.39
464615,4646.15
464692,4646.92
464767,4647.67
464842,4648.42
464919,4649.19
464998,4649.98
465077,4650.77
465155,4651.55
465233,4652.33
465313,4653.13
465393,4653.93
465473,4654.73
465553,4655.53
465631,4656.31
465706,4657.06
465782,4657.82
465858,4658.58
465936,4659.36
466014,4660.14
466089,4660.89
466164,4661.64
466239,4662.39
466314,4663.14
466391,4663.91
466468,4664.68
466543,4665.43
466617,4666.17
466692,4666.92
466769,4667.69
466848,4668.48
466926,4669.26
467002,4670.02
467075,4670.75
467149,4671.49
467225,4672.25
467302,4673.02
467379,4673.79
467456,4674.56
467530,4675.3
467605,4676.05
467681,4676.81
467760,4677.6
467840,4678.4
467921,4679.21
467998,4679.98
468074,4680.74
468152,4681.52
468231,4682.31
468312,4683.12
468391,4683.91
468465,4684.65
468540,4685.4
468615,4686.15
468691,4686.91
468768,4687.68
468844,4688.44
468918,4689.18
468991,4689.91
469065,4690.65
469145,4691.45
469226,4692.26
469305,4693.05
469383,4693.83
469459,4694.59
469535,4695.35
469612,4696.12
469692,4696.92
469772,4697.72
469851,4698.51
469928,4699.28
470001,4700.01
470076,4700.76
470153,4701.53
470229,4702.29
470302,4703.02
470374,4703.74
470446,4704.46
470520,4705.2
470595,4705.95
470671,4706.71
470747,4707.47
470822,4708.22
470897,4708.97
470971,4709.71
471047,4710.47
471125,4711.25
471203,4712.03
471279,4712.79
471353,4713.53
471428,4714.28
471503,4715.03
471580,4715.8
471659,4716.59
471737,4717.37
471814,4718.14
471889,4718.89
471965,4719.65
472042,4720.42
472119,4721.19
472195,4721.95
472270,4722.7
472343,4723.43
472414,4724.14
472486,4724.86
472557,4725.57
472629,4726.29
472704,4727.04
472778,4727.78
472852,4728.52
472927,4729.27
473003,4730.03
473082,4730.82
473160,4731.6
473237,4732.37
473312,4733.12
473387,4733.87
473460,4734.6
473533,4735.33
473607,4736.07
473683,4736.83
473758,4737.58
473833,4738.33
473910,4739.1
473989,4739.89
474074,4740.74
474158,4741.58
474244,4742.44
474321,4743.21
474398,4743.98
474475,4744.75
474554,4745.54
474635,4746.35
474716,4747.16
474794,4747.94
474872,4748.72
474951,4749.51
475035,4750.35
475120,4751.2
475204,4752.04
475286,4752.86
475364,4753.64
475439,4754.39
475514,4755.14
475590,4755.9
475668,4756.68
475745,4757.45
475822,4758.22
475897,4758.97
475974,4759.74
476054,4760.54
476136,4761.36
476219,4762.19
476298,4762.98
476375,4763.75
476452,4764.52
476532,4765.32
476612,4766.12
476689,4766.89
476766,4767.66
476844,4768.44
476924,4769.24
477006,4770.06
477087,4770.87
477168,4771.68
477250,4772.5
477326,4773.26
477399,4773.99
477472,4774.72
477548,4775.48
477625,4776.25
477701,4777.01
477778,4777.78
477855,4778.55
477940,4779.4
478035,4780.35
478128,4781.28
478223,4782.23
478310,4783.1
478396,4783.96
478481,4784.81
478564,4785.64
478646,4786.46
478726,4787.26
478804,4788.04
478882,4788.82
478961,4789.61
479039,4790.39
479117,4791.17
479194,4791.94
479270,4792.7
479347,4793.47
479424,4794.24
479502,4795.02
479581,4795.81
479659,4796.59
479737,4797.37
479816,4798.16
479895,4798.95
479976,4799.76
480057,4800.57
480136,4801.36
480213,4802.13
480292,4802.92
480371,4803.71
480452,4804.52
480533,4805.33
480613,4806.13
480692,4806.92
480775,4807.75
480861,4808.61
480950,4809.5
481038,4810.38
481124,4811.24
481207,4812.07
481287,4812.87
481368,4813.68
481450,4814.5
481532,4815.32
481614,4816.14
481693,4816.93
481771,4817.71
481849,4818.49
481928,4819.28
482007,4820.07
482088,4820.88
482167,4821.67
482246,4822.46
482326,4823.26
482408,4824.08
482490,4824.9
482573,4825.73
482653,4826.53
482731,4827.31
482809,4828.09
482887,4828.87
482967,4829.67
483046,4830.46
483125,4831.25
483201,4832.01
483278,4832.78
483356,4833.56
483435,4834.35
483516,4835.16
483594,4835.94
483670,4836.7
483744,4837.44
483820,4838.2
483899,4838.99
483984,4839.84
484068,4840.68
484154,4841.54
484238,4842.38
484322,4843.22
484411,4844.11
484500,4845.0
484585,4845.85
484669,4846.69
484752,4847.52
484834,4848.34
484917,4849.17
484999,4849.99
485079,4850.79
485157,4851.57
485236,4852.36
485317,4853.17
485399,4853.99
485483,4854.83
485563,4855.63
485641,4856.41
485720,4857.2
485798,4857.98
485878,4858.78
485957,4859.57
486036,4860.36
486114,4861.14
486192,4861.92
486272,4862.72
486355,4863.55
486438,4864.38
486521,4865.21
486601,4866.01
486682,4866.82
486764,4867.64
486845,4868.45
486925,4869.25
487005,4870.05
487084,4870.84
487161,4871.61
487240,4872.4
487319,4873.19
487399,4873.99
487477,4874.77
487555,4875.55
487635,4876.35
487718,4877.18
487801,4878.01
487882,4878.82
487961,4879.61
488038,4880.38
488117,4881.17
488197,4881.97
488278,4882.78
488359,4883.59
488438,4884.38
488517,4885.17
488596,4885.96
488677,4886.77
488758,4887.58
488841,4888.41
488920,4889.2
488997,4889.97
489075,4890.75
489153,4891.53
489232,4892.32
489311,4893.11
489389,4893.89
489466,4894.66
489543,4895.43
489622,4896.22
489702,4897.02
489784,4897.84
489866,4898.66
489946,4899.46
490025,4900.25
490104,4901.04
490184,4901.84
490264,4902.64
490344,4903.44
490422,4904.22
490499,4904.99
490575,4905.75
490653,4906.53
490732,4907.32
490812,4908.12
490891,4908.91
490968,4909.68
491048,4910.48
491130,4911.3
491215,4912.15
491300,4913.0
491380,4913.8
491458,4914.58
491538,4915.38
491620,4916.2
491702,4917.02
491783,4917.83
491862,4918.62
491938,4919.38
492014,4920.14
492091,4920.91
492171,4921.71
492252,4922.52
492335,4923.35
492418,4924.18
492498,4924.98
492578,4925.78
492659,4926.59
492743,4927.43
492830,4928.3
492918,4929.18
493000,4930.0
493080,4930.8
493155,4931.55
493231,4932.31
493311,4933.11
493393,4933.93
493475,4934.75
493557,4935.57
493638,4936.38
493724,4937.24
493809,4938.09
493893,4938.93
493976,4939.76
494056,4940.56
494135,4941.35
494214,4942.14
494293,4942.93
494371,4943.71
494451,4944.51
494531,4945.31
494610,4946.1
494689,4946.89
494767,4947.67
494845,4948.45
494925,4949.25
495006,4950.06
495084,4950.84
495162,4951.62
495243,4952.43
495324,4953.24
495408,4954.08
495492,4954.92
495574,4955.74
495653,4956.53
495731,4957.31
495808,4958.08
495887,4958.87
495965,4959.65
496043,4960.43
496121,4961.21
496197,4961.97
496271,4962.71
496347,4963.47
496423,4964.23
496500,4965.0
496579,4965.79
496654,4966.54
496728,4967.28
496801,4968.01
496874,4968.74
496949,4969.49
497025,4970.25
497104,4971.04
497181,4971.81
497256,4972.56
497332,4973.32
497409,4974.09
497487,4974.87
497566,4975.66
497646,4976.46
497722,4977.22
497796,4977.96
497872,4978.72
497950,4979.5
498031,4980.31
498113,4981.13
498194,4981.94
498272,4982.72
498348,4983.48
498425,4984.25
498503,4985.03
498582,4985.82
498660,4986.6
498736,4987.36
498814,4988.14
498890,4988.9
498968,4989.68
499046,4990.46
499123,4991.23
499197,4991.97
499272,4992.72
499349,4993.49
499427,4994.27
499506,4995.06
499585,4995.85
499661,4996.61
499738,4997.38
499814,4998.14
499893,4998.93
499977,4999.77
500059,5000.59
500138,5001.38
500217,5002.17
500299,5002.99
500383,5003.83
500467,5004.67
500549,5005.49
500628,5006.28
500705,5007.05
500781,5007.81
500858,5008.58
500937,5009.37
501017,5010.17
501097,5010.97
501174,5011.74
501248,5012.48
501324,5013.24
501402,5014.02
501485,5014.85
501568,5015.68
501648,5016.48
501725,5017.25
501801,5018.01
501880,5018.8
501960,5019.6
502043,5020.43
502123,5021.23
502201,5022.01
502280,5022.8
502361,5023.61
502444,5024.44
502527,5025.27
502607,5026.07
502685,5026.85
502761,5027.61
502838,5028.38
502917,5029.17
502996,5029.96
503077,5030.77
503156,5031.56
503233,5032.33
503312,5033.12
503394,5033.94
503476,5034.76
503559,5035.59
503642,5036.42
503722,5037.22
503798,5037.98
503875,5038.75
503955,5039.55
504035,5040.35
504116,5041.16
504196,5041.96
504272,5042.72
504348,5043.48
504428,5044.28
504509,5045.09
504592,5045.92
504675,5046.75
504756,5047.56
504834,5048.34
504917,5049.17
505001,5050.01
505082,5050.82
505163,5051.63
505242,5052.42
505320,5053.2
505402,5054.02
505493,5054.93
505587,5055.87
505683,5056.83
505772,5057.72
505856,5058.56
505938,5059.38
506018,5060.18
506100,5061.0
506180,5061.8
506259,5062.59
506338,5063.38
506419,5064.19
506501,5065.01
506585,5065.85
506666,5066.66
506743,5067.43
506819,5068.19
506897,5068.97
506976,5069.76
507056,5070.56
507135,5071.35
507213,5072.13
507293,5072.93
507374,5073.74
507456,5074.56
507540,5075.4
507623,5076.23
507702,5077.02
507780,5077.8
507859,5078.59
507938,5079.38
508019,5080.19
508100,5081.0
508181,5081.81
508260,5082.6
508336,5083.36
508413,5084.13
508492,5084.92
508572,5085.72
508653,5086.53
508736,5087.36
508815,5088.15
508891,5088.91
508970,5089.7
509054,5090.54
509140,5091.4
509226,5092.26
509309,5093.09
509388,5093.88
509468,5094.68
509549,5095.49
509630,5096.3
509711,5097.11
509792,5097.92
509871,5098.71
509948,5099.48
510023,5100.23
510102,5101.02
510183,5101.83
510265,5102.65
510348,5103.48
510430,5104.3
510510,5105.1
510594,5105.94
510680,5106.8
510763,5107.63
510845,5108.45
510922,5109.22
511001,5110.01
511082,5110.82
511164,5111.64
511246,5112.46
511326,5113.26
511404,5114.04
511482,5114.82
511561,5115.61
511638,5116.38
511714,5117.14
511790,5117.9
511866,5118.66
511940,5119.4
512016,5120.16
512090,5120.9
512163,5121.63
512238,5122.38
512317,5123.17
512404,5124.04
512493,5124.93
512579,5125.79
512662,5126.62
512748,5127.48
512835,5128.35
512919,5129.19
513004,5130.04
513083,5130.83
513159,5131.59
513237,5132.37
513315,5133.15
513393,5133.93
513470,5134.7
513544,5135.44
513618,5136.18
513694,5136.94
513771,5137.71
513851,5138.51
513931,5139.31
514008,5140.08
514084,5140.84
514160,5141.6
514239,5142.39
514317,5143.17
514397,5143.97
514479,5144.79
514557,5145.57
514633,5146.33
514711,5147.11
514790,5147.9
514872,5148.72
514954,5149.54
515033,5150.33
515110,5151.1
515191,5151.91
515272,5152.72
515358,5153.58
515445,5154.45
515531,5155.31
515610,5156.1
515688,5156.88
515766,5157.66
515846,5158.46
515926,5159.26
516006,5160.06
516083,5160.83
516159,5161.59
516238,5162.38
516317,5163.17
516397,5163.97
516480,5164.8
516560,5165.6
516637,5166.37
516713,5167.13
516789,5167.89
516867,5168.67
516945,5169.45
517025,5170.25
517103,5171.03
517179,5171.79
517256,5172.56
517337,5173.37
517420,5174.2
517503,5175.03
517583,5175.83
517660,5176.6
517739,5177.39
517819,5178.19
517900,5179.0
517981,5179.81
518061,5180.61
518139,5181.39
518214,5182.14
518291,5182.91
518369,5183.69
518448,5184.48
518528,5185.28
518607,5186.07
518684,5186.84
518763,5187.63
518841,5188.41
518921,5189.21
519001,5190.01
519078,5190.78
519154,5191.54
519231,5192.31
519310,5193.1
519391,5193.91
519473,5194.73
519554,5195.54
519629,5196.29
519702,5197.02
519775,5197.75
519844,5198.44
519912,5199.12
519978,5199.78
520041,5200.41
520105,5201.05
520167,5201.67
520234,5202.34
520300,5203.0
520370,5203.7
520443,5204.43
520519,5205.19
520604,5206.04
520696,5206.96
520788,5207.88
520875,5208.75
520956,5209.56
521030,5210.3
521101,5211.01
521172,5211.72
521242,5212.42
521310,5213.1
521377,5213.77
521443,5214.43
521509,5215.09
521576,5215.76
521648,5216.48
521721,5217.21
521797,5217.97
521873,5218.73
521946,5219.46
522016,5220.16
522088,5220.88
522160,5221.6
522234,5222.34
522314,5223.14
522389,5223.89
522464,5224.64
522537,5225.37
522613,5226.13
522693,5226.93
522775,5227.75
522854,5228.54
522930,5229.3
523003,5230.03
523078,5230.78
523154,5231.54
523228,5232.28
523302,5233.02
523373,5233.73
523445,5234.45
523516,5235.16
523585,5235.85
523655,5236.55
523726,5237.26
523798,5237.98
523872,5238.72
523947,5239.47
524021,5240.21
524094,5240.94
524168,5241.68
524242,5242.42
524316,5243.16
524390,5243.9
524465,5244.65
524540,5245.4
524613,5246.13
524685,5246.85
524760,5247.6
524837,5248.37
524915,5249.15
524995,5249.95
525075,5250.75
525153,5251.53
525227,5252.27
525301,5253.01
525372,5253.72
525445,5254.45
525521,5255.21
525597,5255.97
525672,5256.72
525745,5257.45
525816,5258.16
525886,5258.86
525958,5259.58
526036,5260.36
526114,5261.14
526191,5261.91
526267,5262.67
526343,5263.43
526419,5264.19
526496,5264.96
526573,5265.73
526649,5266.49
526724,5267.24
526797,5267.97
526874,5268.74
526953,5269.53
527034,5270.34
527115,5271.15
527196,5271.96
527273,5272.73
527347,5273.47
527418,5274.18
527484,5274.84
527547,5275.47
527610,5276.1
527675,5276.75
527746,5277.46
527817,5278.17
527887,5278.87
527963,5279.63
528048,5280.48
528130,5281.3
528211,5282.11
528297,5282.97
528383,5283.83
528467,5284.67
528543,5285.43
528614,5286.14
528685,5286.85
528756,5287.56
528829,5288.29
528904,5289.04
528977,5289.77
529049,5290.49
529122,5291.22
529198,5291.98
529277,5292.77
529360,5293.6
529441,5294.41
529519,5295.19
529598,5295.98
529673,5296.73
529745,5297.45
529816,5298.16
529886,5298.86
529957,5299.57
530034,5300.34
530121,5301.21
530212,5302.12
530299,5302.99
530383,5303.83
530464,5304.64
530543,5305.43
530621,5306.21
530697,5306.97
530771,5307.71
530841,5308.41
530912,5309.12
530984,5309.84
531057,5310.57
531130,5311.3
531201,5312.01
531271,5312.71
531341,5313.41
531411,5314.11
531482,5314.82
531554,5315.54
531628,5316.28
531699,5316.99
531770,5317.7
531842,5318.42
531914,5319.14
531987,5319.87
532060,5320.6
532133,5321.33
532203,5322.03
532271,5322.71
532340,5323.4
532408,5324.08
532476,5324.76
532545,5325.45
532616,5326.16
532688,5326.88
532765,5327.65
532848,5328.48
532938,5329.38
533028,5330.28
533110,5331.1
533187,5331.87
533266,5332.66
533345,5333.45
533424,5334.24
533500,5335.0
533572,5335.72
533642,5336.42
533711,5337.11
533780,5337.8
533852,5338.52
533929,5339.29
534008,5340.08
534087,5340.87
534167,5341.67
534245,5342.45
534344,5343.44
534440,5344.4
534540,5345.4
534632,5346.32
534719,5347.19
534801,5348.01
534882,5348.82
534963,5349.63
535043,5350.43
535119,5351.19
535193,5351.93
535265,5352.65
535336,5353.36
535413,5354.13
535493,5354.93
535576,5355.76
535663,5356.63
535751,5357.51
535837,5358.37
535918,5359.18
536002,5360.02
536087,5360.87
536173,5361.73
536256,5362.56
536337,5363.37
536419,5364.19
536499,5364.99
536578,5365.78
536658,5366.58
536737,5367.37
536813,5368.13
536887,5368.87
536957,5369.57
537026,5370.26
537095,5370.95
537170,5371.7
537255,5372.55
537345,5373.45
537433,5374.33
537519,5375.19
537612,5376.12
537705,5377.05
537797,5377.97
537881,5378.81
537965,5379.65
538050,5380.5
538133,5381.33
538215,5382.15
538294,5382.94
538371,5383.71
538450,5384.5
538527,5385.27
538604,5386.04
538681,5386.81
538758,5387.58
538834,5388.34
538910,5389.1
538987,5389.87
539065,5390.65
539140,5391.4
539214,5392.14
539287,5392.87
539365,5393.65
539451,5394.51
539545,5395.45
539635,5396.35
539723,5397.23
539805,5398.05
539893,5398.93
539982,5399.82
540070,5400.7
540157,5401.57
540237,5402.37
540313,5403.13
540385,5403.85
540455,5404.55
540523,5405.23
540591,5405.91
540663,5406.63
540738,5407.38
540819,5408.19
540908,5409.08
540999,5409.99
541090,5410.9
541173,5411.73
541259,5412.59
541349,5413.49
541439,5414.39
541526,5415.26
541608,5416.08
541686,5416.86
541763,5417.63
541840,5418.4
541917,5419.17
541996,5419.96
542072,5420.72
542147,5421.47
542225,5422.25
542305,5423.05
542391,5423.91
542482,5424.82
542574,5425.74
542663,5426.63
542748,5427.48
542833,5428.33
542918,5429.18
543002,5430.02
543087,5430.87
543169,5431.69
543250,5432.5
543334,5433.34
543420,5434.2
543507,5435.07
543593,5435.93
543676,5436.76
543756,5437.56
543836,5438.36
543915,5439.15
543994,5439.94
544073,5440.73
544153,5441.53
544231,5442.31
544307,5443.07
544387,5443.87
544467,5444.67
544548,5445.48
544630,5446.3
544710,5447.1
544788,5447.88
544867,5448.67
544944,5449.44
545019,5450.19
545092,5450.92
545163,5451.63
545233,5452.33
545305,5453.05
545383,5453.83
545469,5454.69
545560,5455.6
545648,5456.48
545733,5457.33
545823,5458.23
545915,5459.15
546002,5460.02
546084,5460.84
546164,5461.64
546245,5462.45
546324,5463.24
546403,5464.03
546480,5464.8
546556,5465.56
546631,5466.31
546704,5467.04
546777,5467.77
546849,5468.49
546920,5469.2
546991,5469.91
547062,5470.62
547133,5471.33
547206,5472.06
547277,5472.77
547359,5473.59
547437,5474.37
547518,5475.18
547595,5475.95
547678,5476.78
547762,5477.62
547846,5478.46
547931,5479.31
548013,5480.13
548091,5480.91
548168,5481.68
548245,5482.45
548322,5483.22
548400,5484.0
548479,5484.79
548558,5485.58
548636,5486.36
548713,5487.13
548794,5487.94
548877,5488.77
548959,5489.59
549044,5490.44
549127,5491.27
549207,5492.07
549282,5492.82
549355,5493.55
549430,5494.3
549505,5495.05
549584,5495.84
549661,5496.61
549740,5497.4
549827,5498.27
549917,5499.17
550015,5500.15
550112,5501.12
550204,5502.04
550292,5502.92
550376,5503.76
550458,5504.58
550538,5505.38
550616,5506.16
550693,5506.93
550770,5507.7
550849,5508.49
550929,5509.29
551012,5510.12
551096,5510.96
551176,5511.76
551259,5512.59
551338,5513.38
551416,5514.16
551493,5514.93
551569,5515.69
551645,5516.45
551723,5517.23
551804,5518.04
551890,5518.9
551973,5519.73
552053,5520.53
552130,5521.3
552207,5522.07
552285,5522.85
552365,5523.65
552448,5524.48
552530,5525.3
552612,5526.12
552708,5527.08
552810,5528.1
552912,5529.12
553000,5530.0
553085,5530.85
553167,5531.67
553250,5532.5
553332,5533.32
553414,5534.14
553494,5534.94
553573,5535.73
553651,5536.51
553724,5537.24
553793,5537.93
553859,5538.59
553924,5539.24
553992,5539.92
554066,5540.66
554152,5541.52
554249,5542.49
554347,5543.47
554445,5544.45
554538,5545.38
554631,5546.31
554718,5547.18
554805,5548.05
554890,5548.9
554967,5549.67
555042,5550.42
555119,5551.19
555198,5551.98
555276,5552.76
555355,5553.55
555432,5554.32
555505,5555.05
555579,5555.79
555651,5556.51
555724,5557.24
555798,5557.98
555873,5558.73
555947,5559.47
556025,5560.25
556108,5561.08
556193,5561.93
556277,5562.77
556361,5563.61
556443,5564.43
556523,5565.23
556600,5566.0
556678,5566.78
556757,5567.57
556839,5568.39
556921,5569.21
557001,5570.01
557080,5570.8
557156,5571.56
557234,5572.34
557315,5573.15
557399,5573.99
557487,5574.87
557572,5575.72
557653,5576.53
557731,5577.31
557811,5578.11
557890,5578.9
557971,5579.71
558050,5580.5
558129,5581.29
558205,5582.05
558277,5582.77
558349,5583.49
558423,5584.23
558498,5584.98
558577,5585.77
558655,5586.55
558730,5587.3
558808,5588.08
558890,5588.9
558973,5589.73
559057,5590.57
559139,5591.39
559218,5592.18
559295,5592.95
559375,5593.75
559456,5594.56
559538,5595.38
559620,5596.2
559696,5596.96
559767,5597.67
559834,5598.34
559899,5598.99
559963,5599.63
560031,5600.31
560111,5601.11
560191,5601.91
560270,5602.7
560354,5603.54
560448,5604.48
560546,5605.46
560641,5606.41
560726,5607.26
560808,5608.08
560892,5608.92
560975,5609.75
561057,5610.57
561137,5611.37
561216,5612.16
561294,5612.94
561372,5613.72
561451,5614.51
561530,5615.3
561610,5616.1
561689,5616.89
561766,5617.66
561841,5618.41
561917,5619.17
561993,5619.93
562072,5620.72
562155,5621.55
562235,5622.35
562316,5623.16
562400,5624.0
562488,5624.88
562576,5625.76
562664,5626.64
562749,5627.49
562832,5628.32
562915,5629.15
562992,5629.92
563065,5630.65
563137,5631.37
563209,5632.09
563284,5632.84
563362,5633.62
563453,5634.53
563555,5635.55
563655,5636.55
563751,5637.51
563850,5638.5
563949,5639.49
564042,5640.42
564130,5641.3
564212,5642.12
564293,5642.93
564372,5643.72
564453,5644.53
564535,5645.35
564618,5646.18
564700,5647.0
564782,5647.82
564869,5648.69
564959,5649.59
565048,5650.48
565134,5651.34
565218,5652.18
565299,5652.99
565382,5653.82
565467,5654.67
565555,5655.55
565641,5656.41
565725,5657.25
565808,5658.08
565890,5658.9
565969,5659.69
566046,5660.46
566123,5661.23
566201,5662.01
566279,5662.79
566358,5663.58
566432,5664.32
566506,5665.06
566579,5665.79
566655,5666.55
566736,5667.36
566823,5668.23
566909,5669.09
566992,5669.92
567077,5670.77
567167,5671.67
567256,5672.56
567342,5673.42
567421,5674.21
567499,5674.99
567576,5675.76
567654,5676.54
567735,5677.35
567815,5678.15
567896,5678.96
567977,5679.77
568061,5680.61
568148,5681.48
568236,5682.36
568320,5683.2
568402,5684.02
568481,5684.81
568564,5685.64
568649,5686.49
568735,5687.35
568822,5688.22
568904,5689.04
568984,5689.84
569064,5690.64
569143,5691.43
569223,5692.23
569304,5693.04
569382,5693.82
569460,5694.6
569539,5695.39
569619,5696.19
569700,5697.0
569777,5697.77
569853,5698.53
569928,5699.28
570003,5700.03
570081,5700.81
570162,5701.62
570245,5702.45
570331,5703.31
570414,5704.14
570495,5704.95
570576,5705.76
570658,5706.58
570741,5707.41
570823,5708.23
570901,5709.01
570980,5709.8
571059,5710.59
571141,5711.41
571223,5712.23
571299,5712.99
571370,5713.7
571440,5714.4
571507,5715.07
571580,5715.8
571661,5716.61
571750,5717.5
571837,5718.37
571922,5719.22
572006,5720.06
572095,5720.95
572183,5721.83
572272,5722.72
572356,5723.56
572434,5724.34
572508,5725.08
572583,5725.83
572660,5726.6
572740,5727.4
572819,5728.19
572896,5728.96
572969,5729.69
573042,5730.42
573116,5731.16
573191,5731.91
573269,5732.69
573345,5733.45
573424,5734.24
573509,5735.09
573607,5736.07
573709,5737.09
573805,5738.05
573891,5738.91
573968,5739.68
574048,5740.48
574134,5741.34
574222,5742.22
574308,5743.08
574391,5743.91
574467,5744.67
574544,5745.44
574622,5746.22
574705,5747.05
574791,5747.91
574873,5748.73
574956,5749.56
575048,5750.48
575145,5751.45
575232,5752.32
575315,5753.15
575390,5753.9
575463,5754.63
575539,5755.39
575620,5756.2
575708,5757.08
575800,5758.0
575894,5758.94
575984,5759.84
576076,5760.76
576169,5761.69
576260,5762.6
576350,5763.5
576435,5764.35
576515,5765.15
576594,5765.94
576671,5766.71
576751,5767.51
576831,5768.31
576910,5769.1
576985,5769.85
577056,5770.56
577126,5771.26
577195,5771.95
577269,5772.69
577350,5773.5
577438,5774.38
577523,5775.23
577605,5776.05
577699,5776.99
577802,5778.02
577901,5779.01
577994,5779.94
578081,5780.81
578163,5781.63
578244,5782.44
578326,5783.26
578409,5784.09
578493,5784.93
578576,5785.76
578657,5786.57
578736,5787.36
578817,5788.17
578899,5788.99
578984,5789.84
579068,5790.68
579149,5791.49
579229,5792.29
579312,5793.12
579396,5793.96
579480,5794.8
579560,5795.6
579639,5796.39
579719,5797.19
579797,5797.97
579875,5798.75
579952,5799.52
580028,5800.28
580103,5801.03
580178,5801.78
580254,5802.54
580332,5803.32
580410,5804.1
580491,5804.91
580574,5805.74
580661,5806.61
580751,5807.51
580841,5808.41
580926,5809.26
581007,5810.07
581090,5810.9
581174,5811.74
581261,5812.61
581345,5813.45
581425,5814.25
581502,5815.02
581578,5815.78
581653,5816.53
581729,5817.29
581807,5818.07
581886,5818.86
581968,5819.68
582046,5820.46
582125,5821.25
582204,5822.04
582285,5822.85
582368,5823.68
582452,5824.52
582535,5825.35
582615,5826.15
582693,5826.93
582775,5827.75
582857,5828.57
582936,5829.36
583011,5830.11
583084,5830.84
583155,5831.55
583226,5832.26
583299,5832.99
583380,5833.8
583473,5834.73
583567,5835.67
583657,5836.57
583741,5837.41
583832,5838.32
583926,5839.26
584018,5840.18
584105,5841.05
584186,5841.86
584261,5842.61
584334,5843.34
584408,5844.08
584484,5844.84
584564,5845.64
584647,5846.47
584727,5847.27
584808,5848.08
584890,5848.9
584972,5849.72
585056,5850.56
585137,5851.37
585218,5852.18
585301,5853.01
585386,5853.86
585470,5854.7
585556,5855.56
585637,5856.37
585713,5857.13
585786,5857.86
585856,5858.56
585928,5859.28
586003,5860.03
586082,5860.82
586164,5861.64
586246,5862.46
586339,5863.39
586436,5864.36
586528,5865.28
586616,5866.16
586702,5867.02
586791,5867.91
586881,5868.81
586968,5869.68
587055,5870.55
587139,5871.39
587220,5872.2
587300,5873.0
587379,5873.79
587461,5874.61
587543,5875.43
587623,5876.23
587701,5877.01
587784,5877.84
587871,5878.71
587958,5879.58
588043,5880.43
588125,5881.25
588206,5882.06
588287,5882.87
588370,5883.7
588452,5884.52
588533,5885.33
588613,5886.13
588691,5886.91
588769,5887.69
588846,5888.46
588924,5889.24
589004,5890.04
589081,5890.81
589161,5891.61
589239,5892.39
589320,5893.2
589406,5894.06
589494,5894.94
589576,5895.76
589657,5896.57
589741,5897.41
589829,5898.29
589919,5899.19
590008,5900.08
590092,5900.92
590173,5901.73
590252,5902.52
590332,5903.32
590413,5904.13
590492,5904.92
590572,5905.72
590656,5906.56
590740,5907.4
590820,5908.2
590898,5908.98
590975,5909.75
591052,5910.52
591135,5911.35
591218,5912.18
591303,5913.03
591387,5913.87
591468,5914.68
591550,5915.5
591632,5916.32
591715,5917.15
591799,5917.99
591880,5918.8
591958,5919.58
592034,5920.34
592112,5921.12
592188,5921.88
592263,5922.63
592335,5923.35
592405,5924.05
592474,5924.74
592544,5925.44
592620,5926.2
592703,5927.03
592790,5927.9
592875,5928.75
592959,5929.59
593047,5930.47
593137,5931.37
593224,5932.24
593306,5933.06
593384,5933.84
593459,5934.59
593535,5935.35
593613,5936.13
593686,5936.86
593760,5937.6
593834,5938.34
593910,5939.1
593986,5939.86
594062,5940.62
594135,5941.35
594207,5942.07
594280,5942.8
594353,5943.53
594430,5944.3
594507,5945.07
594580,5945.8
594653,5946.53
594728,5947.28
594806,5948.06
594886,5948.86
594968,5949.68
595046,5950.46
595123,5951.23
595202,5952.02
595283,5952.83
595366,5953.66
595446,5954.46
595526,5955.26
595604,5956.04
595680,5956.8
595758,5957.58
595838,5958.38
595919,5959.19
595999,5959.99
596079,5960.79
596157,5961.57
596233,5962.33
596308,5963.08
596383,5963.83
596462,5964.62
596544,5965.44
596624,5966.24
596702,5967.02
596778,5967.78
596853,5968.53
596930,5969.3
597008,5970.08
597087,5970.87
597166,5971.66
597243,5972.43
597316,5973.16
597386,5973.86
597455,5974.55
597524,5975.24
597597,5975.97
597681,5976.81
597765,5977.65
597844,5978.44
597921,5979.21
597998,5979.98
598080,5980.8
598169,5981.69
598256,5982.56
598340,5983.4
598419,5984.19
598494,5984.94
598571,5985.71
598648,5986.48
598726,5987.26
598804,5988.04
598881,5988.81
598956,5989.56
599032,5990.32
599109,5991.09
599190,5991.9
599271,5992.71
599350,5993.5
599427,5994.27
599502,5995.02
599574,5995.74
599647,5996.47
599720,5997.2
599794,5997.94
599871,5998.71
599946,5999.46
600019,6000.19
600092,6000.92
600167,6001.67
600246,6002.46
600329,6003.29
600413,6004.13
600496,6004.96
600574,6005.74
600646,6006.46
600716,6007.16
600786,6007.86
600857,6008.57
600933,6009.33
601017,6010.17
601104,6011.04
601186,6011.86
601267,6012.67
601356,6013.56
601446,6014.46
601536,6015.36
601626,6016.26
601709,6017.09
601787,6017.87
601865,6018.65
601941,6019.41
602021,6020.21
602104,6021.04
602187,6021.87
602265,6022.65
602341,6023.41
602418,6024.18
602495,6024.95
602572,6025.72
602649,6026.49
602725,6027.25
602802,6028.02
602878,6028.78
602955,6029.55
603030,6030.3
603106,6031.06
603180,6031.8
603255,6032.55
603334,6033.34
603413,6034.13
603493,6034.93
603573,6035.73
603654,6036.54
603733,6037.33
603808,6038.08
603884,6038.84
603961,6039.61
604042,6040.42
604118,6041.18
604192,6041.92
604264,6042.64
604334,6043.34
604402,6044.02
604472,6044.72
604547,6045.47
604632,6046.32
604718,6047.18
604802,6048.02
604877,6048.77
604953,6049.53
605029,6050.29
605105,6051.05
605181,6051.81
605255,6052.55
605327,6053.27
605397,6053.97
605466,6054.66
605534,6055.34
605603,6056.03
605673,6056.73
605746,6057.46
605821,6058.21
605893,6058.93
605965,6059.65
606038,6060.38
606111,6061.11
606184,6061.84
606257,6062.57
606333,6063.33
606410,6064.1
606484,6064.84
606557,6065.57
606628,6066.28
606700,6067.0
606770,6067.7
606837,6068.37
606904,6069.04
606970,6069.7
607036,6070.36
607100,6071.0
607163,6071.63
607226,6072.26
607286,6072.86
607346,6073.46
607406,6074.06
607466,6074.66
607525,6075.25
607586,6075.86
607646,6076.46
607708,6077.08
607770,6077.7
607831,6078.31
607893,6078.93
607954,6079.54
608015,6080.15
608075,6080.75
608135,6081.35
608193,6081.93
608252,6082.52
608309,6083.09
608367,6083.67
608425,6084.25
608484,6084.84
608542,6085.42
608600,6086.0
608658,6086.58
608715,6087.15
608772,6087.72
608830,6088.3
608888,6088.88
608946,6089.46
609006,6090.06
609066,6090.66
609126,6091.26
609186,6091.86
609247,6092.47
609309,6093.09
609374,6093.74
609440,6094.4
609508,6095.08
609574,6095.74
609640,6096.4
609706,6097.06
609773,6097.73
609841,6098.41
609911,6099.11
609983,6099.83
610054,6100.54
610125,6101.25
610194,6101.94
610263,6102.63
610332,6103.32
610404,6104.04
610478,6104.78
610557,6105.57
610633,6106.33
610711,6107.11
610788,6107.88
610862,6108.62
610936,6109.36
611010,6110.1
611086,6110.86
611162,6111.62
611239,6112.39
611315,6113.15
611388,6113.88
611459,6114.59
611528,6115.28
611598,6115.98
611668,6116.68
611747,6117.47
611829,6118.29
611910,6119.1
611991,6119.91
612073,6120.73
612158,6121.58
612243,6122.43
612324,6123.24
612400,6124.0
612478,6124.78
612555,6125.55
612632,6126.32
612708,6127.08
612783,6127.83
612857,6128.57
612932,6129.32
613012,6130.12
613090,6130.9
613170,6131.7
613245,6132.45
613318,6133.18
613392,6133.92
613467,6134.67
613544,6135.44
613618,6136.18
613692,6136.92
613767,6137.67
613844,6138.44
613923,6139.23
614001,6140.01
614078,6140.78
614154,6141.54
614228,6142.28
