sample,time_sec
89,0.89
175,1.75
261,2.61
350,3.5
440,4.4
529,5.29
620,6.2
711,7.11
803,8.03
891,8.91
978,9.78
1068,10.68
1157,11.57
1242,12.42
1321,13.21
1399,13.99
1475,14.75
1555,15.55
1640,16.4
1730,17.3
1822,18.22
1910,19.1
1999,19.99
2089,20.89
2179,21.79
2265,22.65
2351,23.51
2436,24.36
2516,25.16
2596,25.96
2644,26.44
2703,27.03
2763,27.63
2834,28.34
2913,29.13
2992,29.92
3072,30.72
3152,31.52
3234,32.34
3314,33.14
3398,33.98
3483,34.83
3563,35.63
3641,36.41
3720,37.2
3794,37.94
3875,38.75
3949,39.49
4023,40.23
4102,41.02
4182,41.82
4259,42.59
4336,43.36
4415,44.15
4495,44.95
4574,45.74
4649,46.49
4722,47.22
4795,47.95
4867,48.67
4939,49.39
5012,50.12
5083,50.83
5154,51.54
5225,52.25
5296,52.96
5367,53.67
5436,54.36
5504,55.04
5577,55.77
5653,56.53
5736,57.36
5821,58.21
5906,59.06
5992,59.92
6077,60.77
6160,61.6
6239,62.39
6317,63.17
6392,63.92
6470,64.7
6556,65.56
6646,66.46
6739,67.39
6825,68.25
6913,69.13
7000,70.0
7084,70.84
7163,71.63
7244,72.44
7330,73.3
7422,74.22
7510,75.1
7598,75.98
7683,76.83
7761,77.61
7835,78.35
7908,79.08
7983,79.83
8068,80.68
8158,81.58
8243,82.43
8322,83.22
8399,83.99
8478,84.78
8557,85.57
8627,86.27
8718,87.18
8809,88.09
8886,88.86
8961,89.61
9036,90.36
9099,90.99
9193,91.93
9281,92.81
9372,93.72
9463,94.63
9547,95.47
9620,96.2
9704,97.04
9807,98.07
9898,98.98
9972,99.72
10069,100.69
10144,101.44
10235,102.35
10324,103.24
10428,104.28
10517,105.17
10616,106.16
10709,107.09
10801,108.01
10884,108.84
10954,109.54
11049,110.49
11134,111.34
11218,112.18
11296,112.96
11374,113.74
11445,114.45
11530,115.3
11620,116.2
11728,117.28
11830,118.3
11933,119.33
12030,120.3
12125,121.25
12219,122.19
12309,123.09
12397,123.97
12486,124.86
12570,125.7
12656,126.56
12744,127.44
12826,128.26
12909,129.09
13000,130.0
13068,130.68
13160,131.6
13240,132.4
13322,133.22
13402,134.02
13484,134.84
13552,135.52
13648,136.48
13727,137.27
13807,138.07
13887,138.87
13963,139.63
14043,140.43
14126,141.26
14213,142.13
14299,142.99
14367,143.67
14463,144.63
14543,145.43
14613,146.13
14701,147.01
14789,147.89
14881,148.81
14986,149.86
15081,150.81
15174,151.74
15265,152.65
15357,153.57
15450,154.5
15522,155.22
15611,156.11
15700,157.0
15788,157.88
15872,158.72
15958,159.58
16046,160.46
16130,161.3
16214,162.14
16299,162.99
16382,163.82
16469,164.69
16570,165.7
16639,166.39
16732,167.32
16801,168.01
16887,168.87
16974,169.74
17057,170.57
17153,171.53
17234,172.34
17310,173.1
17388,173.88
17450,174.5
17524,175.24
17614,176.14
17701,177.01
17792,177.92
17882,178.82
17963,179.63
18042,180.42
18121,181.21
18185,181.85
18265,182.65
18348,183.48
18448,184.48
18522,185.22
18602,186.02
18681,186.81
18765,187.65
18869,188.69
18961,189.61
19048,190.48
19133,191.33
19219,192.19
19301,193.01
19381,193.81
19464,194.64
19547,195.47
19635,196.35
19729,197.29
19804,198.04
19888,198.88
19992,199.92
20088,200.88
20179,201.79
20269,202.69
20361,203.61
20444,204.44
20525,205.25
20615,206.15
20704,207.04
20792,207.92
20886,208.86
20981,209.81
21074,210.74
21165,211.65
21256,212.56
21326,213.26
21428,214.28
21519,215.19
21609,216.09
21681,216.81
21787,217.87
21881,218.81
21971,219.71
22060,220.6
22148,221.48
22218,222.18
22318,223.18
22406,224.06
22478,224.78
22559,225.59
22637,226.37
22736,227.36
22807,228.07
22886,228.86
22980,229.8
23071,230.71
23163,231.63
23255,232.55
23345,233.45
23431,234.31
23501,235.01
23596,235.96
23666,236.66
23760,237.6
23829,238.29
23931,239.31
24020,240.2
24093,240.93
24193,241.93
24264,242.64
24336,243.36
24427,244.27
24498,244.98
24590,245.9
24662,246.62
24735,247.35
24826,248.26
24918,249.18
25008,250.08
25090,250.9
25159,251.59
25241,252.41
25326,253.26
25425,254.25
25510,255.1
25579,255.79
25671,256.71
25738,257.38
25819,258.19
25909,259.09
26006,260.06
26114,261.14
26217,262.17
26303,263.03
26388,263.88
26453,264.53
26528,265.28
26603,266.03
26686,266.86
26772,267.72
26861,268.61
26973,269.73
27073,270.73
27168,271.68
27259,272.59
27328,273.28
27423,274.23
27507,275.07
27586,275.86
27696,276.96
27795,277.95
27856,278.56
27956,279.56
28057,280.57
28141,281.41
28213,282.13
28298,282.98
28377,283.77
28459,284.59
28561,285.61
28649,286.49
28741,287.41
28828,288.28
28920,289.2
29012,290.12
29100,291.0
29187,291.87
29277,292.77
29366,293.66
29462,294.62
29550,295.5
29641,296.41
29715,297.15
29816,298.16
29918,299.18
29994,299.94
30104,301.04
30201,302.01
30293,302.93
30353,303.53
30437,304.37
30529,305.29
30603,306.03
30690,306.9
30800,308.0
30896,308.96
30968,309.68
31049,310.49
31126,311.26
31223,312.23
31323,313.23
31421,314.21
31516,315.16
31610,316.1
31700,317.0
31790,317.9
31882,318.82
31971,319.71
32065,320.65
32160,321.6
32247,322.47
32331,323.31
32420,324.2
32511,325.11
32600,326.0
32693,326.93
32786,327.86
32874,328.74
32964,329.64
33034,330.34
33137,331.37
33212,332.12
33287,332.87
33374,333.74
33465,334.65
33546,335.46
33639,336.39
33718,337.18
33782,337.82
33877,338.77
33939,339.39
34032,340.32
34108,341.08
34181,341.81
34257,342.57
34327,343.27
34388,343.88
34467,344.67
34551,345.51
34651,346.51
34740,347.4
34825,348.25
34902,349.02
34964,349.64
35037,350.37
35110,351.1
35201,352.01
35273,352.73
35359,353.59
35443,354.43
35543,355.43
35616,356.16
35707,357.07
35786,357.86
35867,358.67
35953,359.53
36030,360.3
36126,361.26
36205,362.05
36291,362.91
36383,363.83
36466,364.66
36544,365.44
36622,366.22
36693,366.93
36783,367.83
36886,368.86
36973,369.73
37042,370.42
37130,371.3
37206,372.06
37284,372.84
37365,373.65
37438,374.38
37536,375.36
37609,376.09
37700,377.0
37780,377.8
37860,378.6
37933,379.33
38008,380.08
38070,380.7
38152,381.52
38230,382.3
38318,383.18
38392,383.92
38459,384.59
38561,385.61
38654,386.54
38746,387.46
38837,388.37
38910,389.1
39003,390.03
39072,390.72
39160,391.6
39259,392.59
39366,393.66
39456,394.56
39541,395.41
39621,396.21
39698,396.98
39776,397.76
39846,398.46
39935,399.35
40041,400.41
40132,401.32
40221,402.21
40306,403.06
40389,403.89
40474,404.74
40557,405.57
40646,406.46
40722,407.22
40808,408.08
40890,408.9
40969,409.69
41054,410.54
41140,411.4
41207,412.07
41290,412.9
41380,413.8
41485,414.85
41582,415.82
41678,416.78
41770,417.7
41865,418.65
41967,419.67
42061,420.61
42153,421.53
42237,422.37
42323,423.23
42413,424.13
42508,425.08
42590,425.9
42675,426.75
42758,427.58
42847,428.47
42934,429.34
43017,430.17
43103,431.03
43177,431.77
43267,432.67
43357,433.57
43443,434.43
43530,435.3
43617,436.17
43706,437.06
43795,437.95
43881,438.81
43970,439.7
44058,440.58
44147,441.47
44238,442.38
44321,443.21
44406,444.06
44491,444.91
44580,445.8
44667,446.67
44739,447.39
44812,448.12
44894,448.94
44971,449.71
45047,450.47
45099,450.99
45152,451.52
45216,452.16
45282,452.82
45357,453.57
45407,454.07
45463,454.63
45505,455.05
45547,455.47
45597,455.97
45647,456.47
45703,457.03
45760,457.6
45804,458.04
45848,458.48
45895,458.95
45943,459.43
46012,460.12
46081,460.81
46163,461.63
46210,462.1
46257,462.57
46311,463.11
46375,463.75
46438,464.38
46503,465.03
46557,465.57
46648,466.48
46739,467.39
46822,468.22
46909,469.09
46992,469.92
47072,470.72
47148,471.48
47193,471.93
47244,472.44
47295,472.95
47363,473.63
47432,474.32
47500,475.0
47567,475.67
47635,476.35
47700,477.0
47767,477.67
47834,478.34
47899,478.99
47981,479.81
48071,480.71
48163,481.63
48248,482.48
48330,483.3
48409,484.09
48484,484.84
48556,485.56
48627,486.27
48700,487.0
48773,487.73
48851,488.51
48934,489.34
49019,490.19
49103,491.03
49184,491.84
49262,492.62
49338,493.38
49414,494.14
49494,494.94
49575,495.75
49655,496.55
49732,497.32
49812,498.12
49894,498.94
49976,499.76
50055,500.55
50138,501.38
50225,502.25
50308,503.08
50389,503.89
50469,504.69
50554,505.54
50642,506.42
50704,507.04
50766,507.66
50838,508.38
50926,509.26
51007,510.07
51087,510.87
51165,511.65
51245,512.45
51326,513.26
51403,514.03
51481,514.81
51560,515.6
51643,516.43
51724,517.24
51805,518.05
51888,518.88
51976,519.76
52062,520.62
52144,521.44
52229,522.29
52316,523.16
52401,524.01
52484,524.84
52567,525.67
52652,526.52
52736,527.36
52817,528.17
52898,528.98
52983,529.83
53074,530.74
53163,531.63
53251,532.51
53340,533.4
53428,534.28
53513,535.13
53600,536.0
53685,536.85
53765,537.65
53847,538.47
53934,539.34
54019,540.19
54101,541.01
54182,541.82
54258,542.58
54335,543.35
54416,544.16
54495,544.95
54578,545.78
54661,546.61
54750,547.5
54840,548.4
54927,549.27
55009,550.09
55088,550.88
55166,551.66
55244,552.44
55325,553.25
55413,554.13
55502,555.02
55596,555.96
55690,556.9
55779,557.79
55867,558.67
55951,559.51
56029,560.29
56105,561.05
56185,561.85
56241,562.41
56306,563.06
56376,563.76
56486,564.86
56597,565.97
56648,566.48
56699,566.99
56773,567.73
56848,568.48
56913,569.13
56979,569.79
57066,570.66
57144,571.44
57228,572.28
57315,573.15
57402,574.02
57492,574.92
57584,575.84
57675,576.75
57762,577.62
57852,578.52
57947,579.47
58041,580.41
58129,581.29
58220,582.2
58316,583.16
58408,584.08
58493,584.93
58577,585.77
58662,586.62
58742,587.42
58822,588.22
58913,589.13
59003,590.03
59092,590.92
59179,591.79
59269,592.69
59358,593.58
59442,594.42
59528,595.28
59616,596.16
59706,597.06
59799,597.99
59899,598.99
59999,599.99
60091,600.91
60185,601.85
60276,602.76
60359,603.59
60440,604.4
60528,605.28
60634,606.34
60742,607.42
60846,608.46
60935,609.35
61016,610.16
61097,610.97
61180,611.8
61263,612.63
61363,613.63
61470,614.7
61577,615.77
61678,616.78
61776,617.76
61870,618.7
61955,619.55
62037,620.37
62120,621.2
62212,622.12
62308,623.08
62407,624.07
62505,625.05
62596,625.96
62688,626.88
62781,627.81
62873,628.73
62966,629.66
63059,630.59
63148,631.48
63238,632.38
63336,633.36
63437,634.37
63536,635.36
63628,636.28
63721,637.21
63815,638.15
63905,639.05
63992,639.92
64077,640.77
64157,641.57
64247,642.47
64349,643.49
64451,644.51
64552,645.52
64649,646.49
64740,647.4
64834,648.34
64932,649.32
65032,650.32
65130,651.3
65223,652.23
65315,653.15
65412,654.12
65509,655.09
65606,656.06
65703,657.03
65799,657.99
65889,658.89
65980,659.8
66077,660.77
66177,661.77
66276,662.76
66373,663.73
66466,664.66
66554,665.54
66646,666.46
66743,667.43
66838,668.38
66925,669.25
67004,670.04
67082,670.82
67165,671.65
67254,672.54
67349,673.49
67442,674.42
67533,675.33
67619,676.19
67707,677.07
67795,677.95
67885,678.85
67973,679.73
68060,680.6
68148,681.48
68244,682.44
68343,683.43
68442,684.42
68536,685.36
68625,686.25
68715,687.15
68807,688.07
68896,688.96
68977,689.77
69056,690.56
69142,691.42
69230,692.3
69320,693.2
69415,694.15
69505,695.05
69595,695.95
69685,696.85
69769,697.69
69854,698.54
69936,699.36
70021,700.21
70103,701.03
70191,701.91
70285,702.85
70352,703.52
70411,704.11
70476,704.76
70533,705.33
70594,705.94
70655,706.55
70747,707.47
70837,708.37
70922,709.22
71004,710.04
71088,710.88
71187,711.87
71291,712.91
71386,713.86
71485,714.85
71580,715.8
71673,716.73
71764,717.64
71850,718.5
71941,719.41
72032,720.32
72126,721.26
72223,722.23
72312,723.12
72392,723.92
72498,724.98
72605,726.05
72676,726.76
72748,727.48
72830,728.3
72908,729.08
72988,729.88
73074,730.74
73164,731.64
73251,732.51
73336,733.36
73422,734.22
73512,735.12
73608,736.08
73706,737.06
73801,738.01
73894,738.94
73985,739.85
74071,740.71
74154,741.54
74241,742.41
74340,743.4
74444,744.44
74548,745.48
74644,746.44
74742,747.42
74830,748.3
74909,749.09
74991,749.91
75076,750.76
75161,751.61
75255,752.55
75350,753.5
75451,754.51
75556,755.56
75653,756.53
75750,757.5
75845,758.45
75936,759.36
76026,760.26
76120,761.2
76217,762.17
76309,763.09
76407,764.07
76506,765.06
76598,765.98
76691,766.91
76784,767.84
76875,768.75
76966,769.66
77060,770.6
77159,771.59
77262,772.62
77359,773.59
77462,774.62
77564,775.64
77661,776.61
77757,777.57
77853,778.53
77942,779.42
78023,780.23
78104,781.04
78190,781.9
78278,782.78
78370,783.7
78459,784.59
78546,785.46
78643,786.43
78748,787.48
78844,788.44
78947,789.47
79039,790.39
79129,791.29
79225,792.25
79322,793.22
79421,794.21
79520,795.2
79618,796.18
79725,797.25
79819,798.19
79916,799.16
80008,800.08
80093,800.93
80172,801.72
80259,802.59
80351,803.51
80450,804.5
80559,805.59
80660,806.6
80762,807.62
80862,808.62
80950,809.5
81039,810.39
81132,811.32
81228,812.28
81318,813.18
81414,814.14
81515,815.15
81614,816.14
81705,817.05
81795,817.95
81890,818.9
81983,819.83
82066,820.66
82147,821.47
82233,822.33
82326,823.26
82414,824.14
82497,824.97
82581,825.81
82671,826.71
82767,827.67
82865,828.65
82959,829.59
83056,830.56
83154,831.54
83249,832.49
83338,833.38
83430,834.3
83525,835.25
83622,836.22
83718,837.18
83812,838.12
83912,839.12
84014,840.14
84113,841.13
84207,842.07
84303,843.03
84399,843.99
84488,844.88
84576,845.76
84663,846.63
84757,847.57
84849,848.49
84935,849.35
85017,850.17
85099,850.99
85191,851.91
85284,852.84
85375,853.75
85471,854.71
85569,855.69
85663,856.63
85753,857.53
85844,858.44
85936,859.36
86025,860.25
86117,861.17
86216,862.16
86339,863.39
86462,864.62
86568,865.68
86629,866.29
86691,866.91
86755,867.55
86824,868.24
86902,869.02
86981,869.81
87065,870.65
87148,871.48
87228,872.28
87311,873.11
87394,873.94
87474,874.74
87556,875.56
87641,876.41
87728,877.28
87811,878.11
87891,878.91
87969,879.69
88056,880.56
88151,881.51
88241,882.41
88335,883.35
88431,884.31
88525,885.25
88613,886.13
88698,886.98
88784,887.84
88874,888.74
88961,889.61
89048,890.48
89140,891.4
89238,892.38
89333,893.33
89423,894.23
89514,895.14
89603,896.03
89689,896.89
89777,897.77
89872,898.72
89967,899.67
90056,900.56
90141,901.41
90229,902.29
90320,903.2
90415,904.15
90503,905.03
90598,905.98
90695,906.95
90786,907.86
90875,908.75
90968,909.68
91062,910.62
91154,911.54
91249,912.49
91350,913.5
91447,914.47
91536,915.36
91617,916.17
91699,916.99
91788,917.88
91877,918.77
91974,919.74
92072,920.72
92167,921.67
92260,922.6
92353,923.53
92440,924.4
92523,925.23
92603,926.03
92678,926.78
92755,927.55
92838,928.38
92934,929.34
93036,930.36
93136,931.36
93221,932.21
93304,933.04
93387,933.87
93466,934.66
93544,935.44
93630,936.3
93720,937.2
93806,938.06
93895,938.95
93987,939.87
94077,940.77
94160,941.6
94238,942.38
94315,943.15
94398,943.98
94484,944.84
94571,945.71
94662,946.62
94761,947.61
94862,948.62
94961,949.61
95059,950.59
95153,951.53
95242,952.42
95337,953.37
95437,954.37
95542,955.42
95645,956.45
95743,957.43
95834,958.34
95924,959.24
96017,960.17
96114,961.14
96212,962.12
96312,963.12
96412,964.12
96508,965.08
96598,965.98
96691,966.91
96788,967.88
96884,968.84
96969,969.69
97049,970.49
97132,971.32
97219,972.19
97309,973.09
97406,974.06
97508,975.08
97609,976.09
97702,977.02
97795,977.95
97887,978.87
97978,979.78
98064,980.64
98153,981.53
98246,982.46
98338,983.38
98426,984.26
98517,985.17
98608,986.08
98695,986.95
98783,987.83
98875,988.75
98966,989.66
99051,990.51
99137,991.37
99224,992.24
99311,993.11
99396,993.96
99484,994.84
99577,995.77
99667,996.67
99757,997.57
99849,998.49
99943,999.43
100033,1000.33
100118,1001.18
100197,1001.97
100274,1002.74
100352,1003.52
100437,1004.37
100525,1005.25
100620,1006.2
100719,1007.19
100818,1008.18
100910,1009.1
101004,1010.04
101096,1010.96
101187,1011.87
101277,1012.77
101361,1013.61
101449,1014.49
101542,1015.42
101634,1016.34
101721,1017.21
101812,1018.12
101908,1019.08
102001,1020.01
102092,1020.92
102187,1021.87
102282,1022.82
102371,1023.71
102462,1024.62
102555,1025.55
102646,1026.46
102734,1027.34
102830,1028.3
102930,1029.3
103026,1030.26
103122,1031.22
103220,1032.2
103317,1033.17
103410,1034.1
103504,1035.04
103601,1036.01
103696,1036.96
103788,1037.88
103881,1038.81
103976,1039.76
104071,1040.71
104162,1041.62
104258,1042.58
104355,1043.55
104451,1044.51
104541,1045.41
104633,1046.33
104727,1047.27
104823,1048.23
104913,1049.13
105004,1050.04
105098,1050.98
105189,1051.89
105275,1052.75
105357,1053.57
105436,1054.36
105524,1055.24
105616,1056.16
105706,1057.06
105796,1057.96
105895,1058.95
105994,1059.94
106088,1060.88
106179,1061.79
106270,1062.7
106355,1063.55
106445,1064.45
106543,1065.43
106639,1066.39
106729,1067.29
106822,1068.22
106920,1069.2
107016,1070.16
107108,1071.08
107200,1072.0
107295,1072.95
107390,1073.9
107481,1074.81
107576,1075.76
107673,1076.73
107767,1077.67
107864,1078.64
107963,1079.63
108063,1080.63
108160,1081.6
108257,1082.57
108352,1083.52
108440,1084.4
108527,1085.27
108618,1086.18
108716,1087.16
108815,1088.15
108905,1089.05
108996,1089.96
109084,1090.84
109164,1091.64
109242,1092.42
109324,1093.24
109420,1094.2
109515,1095.15
109617,1096.17
109718,1097.18
109816,1098.16
109915,1099.15
110014,1100.14
110105,1101.05
110194,1101.94
110287,1102.87
110381,1103.81
110474,1104.74
110570,1105.7
110666,1106.66
110762,1107.62
110850,1108.5
110943,1109.43
111038,1110.38
111132,1111.32
111226,1112.26
111317,1113.17
111406,1114.06
111491,1114.91
111575,1115.75
111656,1116.56
111738,1117.38
111836,1118.36
111930,1119.3
112026,1120.26
112124,1121.24
112215,1122.15
112298,1122.98
112377,1123.77
112454,1124.54
112533,1125.33
112613,1126.13
112694,1126.94
112773,1127.73
112853,1128.53
112934,1129.34
113015,1130.15
113100,1131.0
113186,1131.86
113278,1132.78
113373,1133.73
113465,1134.65
113559,1135.59
113656,1136.56
113755,1137.55
113851,1138.51
113949,1139.49
114048,1140.48
114140,1141.4
114231,1142.31
114326,1143.26
114422,1144.22
114513,1145.13
114607,1146.07
114706,1147.06
114801,1148.01
114898,1148.98
114998,1149.98
115093,1150.93
115187,1151.87
115285,1152.85
115384,1153.84
115476,1154.76
115572,1155.72
115669,1156.69
115761,1157.61
115848,1158.48
115932,1159.32
116012,1160.12
116092,1160.92
116179,1161.79
116267,1162.67
116349,1163.49
116446,1164.46
116541,1165.41
116629,1166.29
116715,1167.15
116803,1168.03
116888,1168.88
116976,1169.76
117067,1170.67
117160,1171.6
117248,1172.48
117336,1173.36
117427,1174.27
117516,1175.16
117605,1176.05
117690,1176.9
117774,1177.74
117857,1178.57
117946,1179.46
118039,1180.39
118134,1181.34
118222,1182.22
118312,1183.12
118406,1184.06
118493,1184.93
118580,1185.8
118668,1186.68
118757,1187.57
118844,1188.44
118927,1189.27
119011,1190.11
119098,1190.98
119183,1191.83
119273,1192.73
119362,1193.62
119456,1194.56
119550,1195.5
119641,1196.41
119720,1197.2
119805,1198.05
119891,1198.91
119976,1199.76
120061,1200.61
120141,1201.41
120224,1202.24
120311,1203.11
120392,1203.92
120474,1204.74
120555,1205.55
120635,1206.35
120716,1207.16
120798,1207.98
120883,1208.83
120963,1209.63
121043,1210.43
121125,1211.25
121202,1212.02
121281,1212.81
121360,1213.6
121438,1214.38
121512,1215.12
121591,1215.91
121673,1216.73
121758,1217.58
121846,1218.46
121935,1219.35
122027,1220.27
122121,1221.21
122215,1222.15
122300,1223.0
122377,1223.77
122452,1224.52
122527,1225.27
122601,1226.01
122679,1226.79
122755,1227.55
122833,1228.33
122911,1229.11
122990,1229.9
123064,1230.64
123136,1231.36
123208,1232.08
123280,1232.8
123352,1233.52
123425,1234.25
123493,1234.93
123562,1235.62
123631,1236.31
123698,1236.98
123766,1237.66
123847,1238.47
123926,1239.26
124013,1240.13
124106,1241.06
124200,1242.0
124283,1242.83
124366,1243.66
124449,1244.49
124532,1245.32
124617,1246.17
124676,1246.76
124736,1247.36
124823,1248.23
124910,1249.1
124992,1249.92
125074,1250.74
125154,1251.54
125234,1252.34
125312,1253.12
125386,1253.86
125459,1254.59
125533,1255.33
125605,1256.05
125677,1256.77
125757,1257.57
125844,1258.44
125921,1259.21
125998,1259.98
126086,1260.86
126165,1261.65
126244,1262.44
126310,1263.1
126382,1263.82
126455,1264.55
126541,1265.41
126617,1266.17
126694,1266.94
126780,1267.8
126879,1268.79
126975,1269.75
127070,1270.7
127163,1271.63
127253,1272.53
127339,1273.39
127421,1274.21
127498,1274.98
127577,1275.77
127653,1276.53
127736,1277.36
127815,1278.15
127901,1279.01
127989,1279.89
128075,1280.75
128154,1281.54
128236,1282.36
128317,1283.17
128394,1283.94
128473,1284.73
128554,1285.54
128634,1286.34
128715,1287.15
128805,1288.05
128903,1289.03
128993,1289.93
129078,1290.78
129165,1291.65
129251,1292.51
129332,1293.32
129414,1294.14
129497,1294.97
129579,1295.79
129662,1296.62
129752,1297.52
129847,1298.47
129935,1299.35
130023,1300.23
130113,1301.13
130200,1302.0
130286,1302.86
130376,1303.76
130465,1304.65
130556,1305.56
130648,1306.48
130722,1307.22
130803,1308.03
130884,1308.84
130984,1309.84
131076,1310.76
131170,1311.7
131262,1312.62
131351,1313.51
131436,1314.36
131515,1315.15
131590,1315.9
131651,1316.51
131724,1317.24
131813,1318.13
131892,1318.92
131967,1319.67
132061,1320.61
132145,1321.45
132230,1322.3
132314,1323.14
132393,1323.93
132472,1324.72
132537,1325.37
132623,1326.23
132710,1327.1
132791,1327.91
132845,1328.45
132906,1329.06
132968,1329.68
133059,1330.59
133150,1331.5
133240,1332.4
133330,1333.3
133405,1334.05
133494,1334.94
133584,1335.84
133665,1336.65
133750,1337.5
133833,1338.33
133917,1339.17
134001,1340.01
134095,1340.95
134186,1341.86
134275,1342.75
134357,1343.57
134440,1344.4
134516,1345.16
134591,1345.91
134666,1346.66
134762,1347.62
134844,1348.44
134941,1349.41
135038,1350.38
135114,1351.14
135208,1352.08
135302,1353.02
135385,1353.85
135469,1354.69
135555,1355.55
135643,1356.43
135729,1357.29
135815,1358.15
135905,1359.05
135990,1359.9
136076,1360.76
136156,1361.56
136239,1362.39
136319,1363.19
136406,1364.06
136499,1364.99
136594,1365.94
136693,1366.93
136787,1367.87
136877,1368.77
136962,1369.62
137038,1370.38
137114,1371.14
137192,1371.92
137278,1372.78
137382,1373.82
137480,1374.8
137577,1375.77
137666,1376.66
137756,1377.56
137847,1378.47
137932,1379.32
138013,1380.13
138089,1380.89
138168,1381.68
138250,1382.5
138335,1383.35
138429,1384.29
138522,1385.22
138614,1386.14
138697,1386.97
138765,1387.65
138854,1388.54
138943,1389.43
139012,1390.12
139069,1390.69
139126,1391.26
139183,1391.83
139267,1392.67
139356,1393.56
139443,1394.43
139530,1395.3
139615,1396.15
139697,1396.97
139778,1397.78
139861,1398.61
139940,1399.4
140020,1400.2
140103,1401.03
140192,1401.92
140281,1402.81
140369,1403.69
140455,1404.55
140545,1405.45
140632,1406.32
140724,1407.24
140810,1408.1
140896,1408.96
140970,1409.7
141023,1410.23
141077,1410.77
141151,1411.51
141225,1412.25
141322,1413.22
141419,1414.19
141494,1414.94
141575,1415.75
141639,1416.39
141704,1417.04
141785,1417.85
141867,1418.67
141938,1419.38
142008,1420.08
142078,1420.78
142148,1421.48
142239,1422.39
142322,1423.22
142405,1424.05
142487,1424.87
142568,1425.68
142647,1426.47
142725,1427.25
142802,1428.02
142880,1428.8
142957,1429.57
143034,1430.34
143121,1431.21
143208,1432.08
143285,1432.85
143362,1433.62
143445,1434.45
143519,1435.19
143593,1435.93
143669,1436.69
143749,1437.49
143831,1438.31
143910,1439.1
143985,1439.85
144061,1440.61
144137,1441.37
144214,1442.14
144293,1442.93
144369,1443.69
144446,1444.46
144526,1445.26
144602,1446.02
144677,1446.77
144753,1447.53
144830,1448.3
144910,1449.1
144989,1449.89
145066,1450.66
145146,1451.46
145229,1452.29
145312,1453.12
145398,1453.98
145485,1454.85
145574,1455.74
145656,1456.56
145737,1457.37
145818,1458.18
145899,1458.99
145977,1459.77
146056,1460.56
146127,1461.27
146198,1461.98
146281,1462.81
146355,1463.55
146429,1464.29
146504,1465.04
146576,1465.76
146656,1466.56
146723,1467.23
146791,1467.91
146865,1468.65
146937,1469.37
147015,1470.15
147091,1470.91
147169,1471.69
147249,1472.49
147332,1473.32
147415,1474.15
147491,1474.91
147565,1475.65
147637,1476.37
147705,1477.05
147774,1477.74
147841,1478.41
147908,1479.08
147977,1479.77
148052,1480.52
148128,1481.28
148209,1482.09
148298,1482.98
148379,1483.79
148455,1484.55
148526,1485.26
148582,1485.82
148670,1486.7
148772,1487.72
148874,1488.74
148970,1489.7
149065,1490.65
149161,1491.61
149252,1492.52
149342,1493.42
149429,1494.29
149508,1495.08
149584,1495.84
149659,1496.59
149736,1497.36
149808,1498.08
149869,1498.69
149931,1499.31
149979,1499.79
150027,1500.27
150084,1500.84
150148,1501.48
150195,1501.95
150242,1502.42
150302,1503.02
150384,1503.84
150467,1504.67
150545,1505.45
150618,1506.18
150690,1506.9
150769,1507.69
150854,1508.54
150939,1509.39
150999,1509.99
151059,1510.59
151134,1511.34
151189,1511.89
151245,1512.45
151302,1513.02
151359,1513.59
151434,1514.34
151508,1515.08
151588,1515.88
151679,1516.79
151771,1517.71
151863,1518.63
151956,1519.56
152046,1520.46
152131,1521.31
152210,1522.1
152284,1522.84
152361,1523.61
152453,1524.53
152534,1525.34
152617,1526.17
152700,1527.0
152780,1527.8
152864,1528.64
152954,1529.54
153046,1530.46
153137,1531.37
153224,1532.24
153313,1533.13
153397,1533.97
153476,1534.76
153555,1535.55
153638,1536.38
153729,1537.29
153817,1538.17
153909,1539.09
154005,1540.05
154102,1541.02
154198,1541.98
154287,1542.87
154374,1543.74
154468,1544.68
154560,1545.6
154646,1546.46
154731,1547.31
154825,1548.25
154923,1549.23
155026,1550.26
155103,1551.03
155184,1551.84
155264,1552.64
155346,1553.46
155425,1554.25
155508,1555.08
155588,1555.88
155668,1556.68
155752,1557.52
155846,1558.46
155940,1559.4
156029,1560.29
156119,1561.19
156204,1562.04
156290,1562.9
156375,1563.75
156458,1564.58
156540,1565.4
156618,1566.18
156697,1566.97
156773,1567.73
156846,1568.46
156922,1569.22
156986,1569.86
157051,1570.51
157124,1571.24
157202,1572.02
157280,1572.8
157352,1573.52
157421,1574.21
157488,1574.88
157555,1575.55
157619,1576.19
157685,1576.85
157750,1577.5
157818,1578.18
157908,1579.08
158000,1580.0
158087,1580.87
158166,1581.66
158246,1582.46
158329,1583.29
158427,1584.27
158515,1585.15
158603,1586.03
158696,1586.96
158789,1587.89
158880,1588.8
158971,1589.71
159059,1590.59
159140,1591.4
159220,1592.2
159301,1593.01
159395,1593.95
159491,1594.91
159585,1595.85
159674,1596.74
159763,1597.63
159850,1598.5
159931,1599.31
160012,1600.12
160098,1600.98
160182,1601.82
160261,1602.61
160336,1603.36
160415,1604.15
160496,1604.96
160577,1605.77
160662,1606.62
160752,1607.52
160842,1608.42
160928,1609.28
161009,1610.09
161091,1610.91
161174,1611.74
161260,1612.6
161341,1613.41
161426,1614.26
161517,1615.17
161613,1616.13
161703,1617.03
161795,1617.95
161886,1618.86
161973,1619.73
162061,1620.61
162150,1621.5
162245,1622.45
162333,1623.33
162421,1624.21
162506,1625.06
162584,1625.84
162662,1626.62
162716,1627.16
162771,1627.71
162832,1628.32
162900,1629.0
162968,1629.68
163042,1630.42
163116,1631.16
163191,1631.91
163273,1632.73
163362,1633.62
163447,1634.47
163536,1635.36
163624,1636.24
163713,1637.13
163798,1637.98
163881,1638.81
163965,1639.65
164050,1640.5
164132,1641.32
164217,1642.17
164305,1643.05
164396,1643.96
164484,1644.84
164577,1645.77
164674,1646.74
164766,1647.66
164859,1648.59
164952,1649.52
165041,1650.41
165128,1651.28
165218,1652.18
165310,1653.1
165399,1653.99
165489,1654.89
165580,1655.8
165668,1656.68
165750,1657.5
165834,1658.34
165919,1659.19
166007,1660.07
166091,1660.91
166179,1661.79
166269,1662.69
166359,1663.59
166447,1664.47
166537,1665.37
166624,1666.24
166708,1667.08
166799,1667.99
166894,1668.94
166985,1669.85
167075,1670.75
167164,1671.64
167253,1672.53
167339,1673.39
167428,1674.28
167523,1675.23
167619,1676.19
167705,1677.05
167785,1677.85
167861,1678.61
167940,1679.4
168032,1680.32
168123,1681.23
168224,1682.24
168329,1683.29
168434,1684.34
168534,1685.34
168633,1686.33
168731,1687.31
168822,1688.22
168913,1689.13
169005,1690.05
169096,1690.96
169183,1691.83
169273,1692.73
169368,1693.68
169458,1694.58
169540,1695.4
169627,1696.27
169719,1697.19
169814,1698.14
169904,1699.04
169994,1699.94
170085,1700.85
170179,1701.79
170271,1702.71
170370,1703.7
170471,1704.71
170568,1705.68
170663,1706.63
170761,1707.61
170857,1708.57
170950,1709.5
171043,1710.43
171138,1711.38
171234,1712.34
171327,1713.27
171422,1714.22
171519,1715.19
171613,1716.13
171698,1716.98
171780,1717.8
171858,1718.58
171933,1719.33
172009,1720.09
172094,1720.94
172189,1721.89
172285,1722.85
172386,1723.86
172485,1724.85
172577,1725.77
172669,1726.69
172759,1727.59
172845,1728.45
172929,1729.29
173020,1730.2
173120,1731.2
173217,1732.17
173310,1733.1
173408,1734.08
173509,1735.09
173607,1736.07
173702,1737.02
173795,1737.95
173880,1738.8
173962,1739.62
174046,1740.46
174139,1741.39
174232,1742.32
174327,1743.27
174425,1744.25
174518,1745.18
174607,1746.07
174698,1746.98
174789,1747.89
174878,1748.78
174969,1749.69
175066,1750.66
175162,1751.62
175255,1752.55
175350,1753.5
175440,1754.4
175522,1755.22
175601,1756.01
175683,1756.83
175766,1757.66
175856,1758.56
175948,1759.48
176038,1760.38
176126,1761.26
176216,1762.16
176308,1763.08
176393,1763.93
176479,1764.79
176567,1765.67
176656,1766.56
176742,1767.42
176833,1768.33
176927,1769.27
177017,1770.17
177110,1771.1
177205,1772.05
177300,1773.0
177390,1773.9
177485,1774.85
177579,1775.79
177668,1776.68
177758,1777.58
177848,1778.48
177940,1779.4
178024,1780.24
178114,1781.14
178205,1782.05
178296,1782.96
178383,1783.83
178472,1784.72
178567,1785.67
178663,1786.63
178757,1787.57
178844,1788.44
178930,1789.3
179019,1790.19
179115,1791.15
179206,1792.06
179294,1792.94
179387,1793.87
179483,1794.83
179581,1795.81
179675,1796.75
179765,1797.65
179861,1798.61
179958,1799.58
180049,1800.49
180133,1801.33
180215,1802.15
180299,1802.99
180382,1803.82
180473,1804.73
180572,1805.72
180671,1806.71
180769,1807.69
180861,1808.61
180953,1809.53
181041,1810.41
181122,1811.22
181206,1812.06
181295,1812.95
181392,1813.92
181485,1814.85
181581,1815.81
181677,1816.77
181769,1817.69
181860,1818.6
181952,1819.52
182045,1820.45
182136,1821.36
182230,1822.3
182328,1823.28
182426,1824.26
182518,1825.18
182612,1826.12
182707,1827.07
182798,1827.98
182889,1828.89
182981,1829.81
183076,1830.76
183163,1831.63
183254,1832.54
183347,1833.47
183439,1834.39
183527,1835.27
183617,1836.17
183708,1837.08
183794,1837.94
183880,1838.8
183968,1839.68
184057,1840.57
184145,1841.45
184237,1842.37
184335,1843.35
184436,1844.36
184531,1845.31
184626,1846.26
184719,1847.19
184807,1848.07
184889,1848.89
184967,1849.67
185043,1850.43
185119,1851.19
185201,1852.01
185290,1852.9
185376,1853.76
185467,1854.67
185558,1855.58
185649,1856.49
185736,1857.36
185824,1858.24
185913,1859.13
186004,1860.04
186091,1860.91
186175,1861.75
186263,1862.63
186360,1863.6
186462,1864.62
186564,1865.64
186659,1866.59
186755,1867.55
186853,1868.53
186952,1869.52
187045,1870.45
187138,1871.38
187232,1872.32
187322,1873.22
187410,1874.1
187497,1874.97
187581,1875.81
187665,1876.65
187757,1877.57
187850,1878.5
187939,1879.39
188030,1880.3
188122,1881.22
188209,1882.09
188291,1882.91
188371,1883.71
188450,1884.5
188526,1885.26
188605,1886.05
188689,1886.89
188781,1887.81
188873,1888.73
188966,1889.66
189064,1890.64
189157,1891.57
189252,1892.52
189348,1893.48
189442,1894.42
189532,1895.32
189624,1896.24
189720,1897.2
189812,1898.12
189895,1898.95
189974,1899.74
190055,1900.55
190147,1901.47
190240,1902.4
190333,1903.33
190432,1904.32
190532,1905.32
190626,1906.26
190724,1907.24
190822,1908.22
190914,1909.14
191005,1910.05
191101,1911.01
191197,1911.97
191289,1912.89
191382,1913.82
191479,1914.79
191579,1915.79
191674,1916.74
191773,1917.73
191871,1918.71
191970,1919.7
192061,1920.61
192153,1921.53
192245,1922.45
192337,1923.37
192427,1924.27
192522,1925.22
192622,1926.22
192718,1927.18
192808,1928.08
192894,1928.94
192981,1929.81
193065,1930.65
193151,1931.51
193241,1932.41
193335,1933.35
193424,1934.24
193514,1935.14
193606,1936.06
193697,1936.97
193782,1937.82
193870,1938.7
193964,1939.64
194057,1940.57
194152,1941.52
194255,1942.55
194363,1943.63
194465,1944.65
194564,1945.64
194663,1946.63
194755,1947.55
194846,1948.46
194941,1949.41
195035,1950.35
195126,1951.26
195222,1952.22
195322,1953.22
195423,1954.23
195518,1955.18
195616,1956.16
195714,1957.14
195807,1958.07
195898,1958.98
195989,1959.89
196074,1960.74
196154,1961.54
196231,1962.31
196309,1963.09
196397,1963.97
196489,1964.89
196585,1965.85
196684,1966.84
196783,1967.83
196876,1968.76
196972,1969.72
197069,1970.69
197167,1971.67
197259,1972.59
197351,1973.51
197445,1974.45
197541,1975.41
197632,1976.32
197727,1977.27
197828,1978.28
197929,1979.29
198026,1980.26
198128,1981.28
198234,1982.34
198336,1983.36
198434,1984.34
198531,1985.31
198621,1986.21
198701,1987.01
198778,1987.78
198863,1988.63
198970,1989.7
199069,1990.69
199179,1991.79
199289,1992.89
199399,1993.99
199496,1994.96
199594,1995.94
199693,1996.93
199790,1997.9
199887,1998.87
199982,1999.82
200079,2000.79
200174,2001.74
200269,2002.69
200354,2003.54
200436,2004.36
200518,2005.18
200606,2006.06
200698,2006.98
200791,2007.91
200875,2008.75
200957,2009.57
201045,2010.45
201139,2011.39
201231,2012.31
201324,2013.24
201420,2014.2
201519,2015.19
201613,2016.13
201705,2017.05
201799,2017.99
201894,2018.94
201989,2019.89
202083,2020.83
202182,2021.82
202281,2022.81
202374,2023.74
202470,2024.7
202569,2025.69
202663,2026.63
202755,2027.55
202853,2028.53
202954,2029.54
203051,2030.51
203148,2031.48
203245,2032.45
203343,2033.43
203436,2034.36
203532,2035.32
203630,2036.3
203727,2037.27
203820,2038.2
203916,2039.16
204013,2040.13
204104,2041.04
204185,2041.85
204261,2042.61
204336,2043.36
204418,2044.18
204504,2045.04
204594,2045.94
204684,2046.84
204770,2047.7
204855,2048.55
204937,2049.37
205016,2050.16
205094,2050.94
205168,2051.68
205241,2052.41
205317,2053.17
205404,2054.04
205495,2054.95
205592,2055.92
205693,2056.93
205796,2057.96
205897,2058.97
205995,2059.95
206090,2060.9
206182,2061.82
206269,2062.69
206351,2063.51
206440,2064.4
206530,2065.3
206623,2066.23
206709,2067.09
206797,2067.97
206884,2068.84
206968,2069.68
207050,2070.5
207134,2071.34
207223,2072.23
207319,2073.19
207415,2074.15
207516,2075.16
207615,2076.15
207718,2077.18
207816,2078.16
207920,2079.2
208024,2080.24
208120,2081.2
208215,2082.15
208314,2083.14
208410,2084.1
208503,2085.03
208601,2086.01
208698,2086.98
208791,2087.91
208886,2088.86
208981,2089.81
209075,2090.75
209169,2091.69
209268,2092.68
209365,2093.65
209457,2094.57
209546,2095.46
209629,2096.29
209709,2097.09
209790,2097.9
209870,2098.7
209949,2099.49
210028,2100.28
210116,2101.16
210214,2102.14
210305,2103.05
210394,2103.94
210477,2104.77
210556,2105.56
210635,2106.35
210716,2107.16
210802,2108.02
210893,2108.93
210990,2109.9
211087,2110.87
211180,2111.8
211272,2112.72
211366,2113.66
211465,2114.65
211564,2115.64
211663,2116.63
211768,2117.68
211877,2118.77
211979,2119.79
212075,2120.75
212170,2121.7
212265,2122.65
212360,2123.6
212455,2124.55
212555,2125.55
212663,2126.63
212767,2127.67
212874,2128.74
212973,2129.73
213067,2130.67
213161,2131.61
213257,2132.57
213355,2133.55
213453,2134.53
213554,2135.54
213645,2136.45
213735,2137.35
213828,2138.28
213921,2139.21
214012,2140.12
214095,2140.95
214176,2141.76
214253,2142.53
214327,2143.27
214412,2144.12
214510,2145.1
214608,2146.08
214699,2146.99
214796,2147.96
214894,2148.94
214994,2149.94
215090,2150.9
215188,2151.88
215284,2152.84
215377,2153.77
215468,2154.68
215563,2155.63
215664,2156.64
215758,2157.58
215854,2158.54
215953,2159.53
216048,2160.48
216139,2161.39
216233,2162.33
216326,2163.26
216410,2164.1
216476,2164.76
216543,2165.43
216621,2166.21
216699,2166.99
216766,2167.66
216834,2168.34
216931,2169.31
217011,2170.11
217091,2170.91
217167,2171.67
217240,2172.4
217316,2173.16
217404,2174.04
217481,2174.81
217577,2175.77
217674,2176.74
217755,2177.55
217836,2178.36
217917,2179.17
217998,2179.98
218075,2180.75
218162,2181.62
218239,2182.39
218315,2183.15
218376,2183.76
218469,2184.69
218564,2185.64
218666,2186.66
218766,2187.66
218856,2188.56
218938,2189.38
219016,2190.16
219095,2190.95
219179,2191.79
219273,2192.73
219370,2193.7
219440,2194.4
219546,2195.46
219652,2196.52
219743,2197.43
219832,2198.32
219917,2199.17
219986,2199.86
220091,2200.91
220183,2201.83
220269,2202.69
220351,2203.51
220430,2204.3
220509,2205.09
220591,2205.91
220689,2206.89
220788,2207.88
220888,2208.88
220989,2209.89
221086,2210.86
221181,2211.81
221272,2212.72
221359,2213.59
221444,2214.44
221538,2215.38
221638,2216.38
221743,2217.43
221845,2218.45
221942,2219.42
222062,2220.62
222109,2221.09
222158,2221.58
222197,2221.97
222254,2222.54
222292,2222.92
222384,2223.84
222468,2224.68
222552,2225.52
222635,2226.35
222666,2226.66
222714,2227.14
222789,2227.89
222866,2228.66
222923,2229.23
222962,2229.62
223035,2230.35
223085,2230.85
223155,2231.55
223226,2232.26
223296,2232.96
223367,2233.67
223434,2234.34
223502,2235.02
223538,2235.38
223571,2235.71
223638,2236.38
223706,2237.06
223772,2237.72
223841,2238.41
223907,2239.07
223974,2239.74
224021,2240.21
224099,2240.99
224177,2241.77
224295,2242.95
224414,2244.14
224516,2245.16
224603,2246.03
224685,2246.85
224771,2247.71
224850,2248.5
224968,2249.68
225071,2250.71
225168,2251.68
225259,2252.59
225341,2253.41
225423,2254.23
225510,2255.1
225602,2256.02
225700,2257.0
225800,2258.0
225896,2258.96
225989,2259.89
226077,2260.77
226165,2261.65
226265,2262.65
226373,2263.73
226482,2264.82
226586,2265.86
226683,2266.83
226775,2267.75
226865,2268.65
226951,2269.51
227033,2270.33
227113,2271.13
227194,2271.94
227288,2272.88
227384,2273.84
227478,2274.78
227542,2275.42
227606,2276.06
227670,2276.7
227735,2277.35
227804,2278.04
227873,2278.73
227933,2279.33
227994,2279.94
228115,2281.15
228195,2281.95
228279,2282.79
228359,2283.59
228442,2284.42
228526,2285.26
228608,2286.08
228687,2286.87
228764,2287.64
228827,2288.27
228896,2288.96
228974,2289.74
229034,2290.34
229095,2290.95
229182,2291.82
229271,2292.71
229363,2293.63
229452,2294.52
229537,2295.37
229620,2296.2
229702,2297.02
229784,2297.84
229863,2298.63
229939,2299.39
230013,2300.13
230087,2300.87
230164,2301.64
230251,2302.51
230345,2303.45
230439,2304.39
230524,2305.24
230604,2306.04
230682,2306.82
230758,2307.58
230836,2308.36
230917,2309.17
231008,2310.08
231104,2311.04
231202,2312.02
231303,2313.03
231400,2314.0
231493,2314.93
231582,2315.82
231664,2316.64
231746,2317.46
231832,2318.32
231917,2319.17
232003,2320.03
232098,2320.98
232195,2321.95
232284,2322.84
232375,2323.75
232466,2324.66
232551,2325.51
232629,2326.29
232707,2327.07
232779,2327.79
232852,2328.52
232930,2329.3
233015,2330.15
233101,2331.01
233192,2331.92
233279,2332.79
233361,2333.61
233444,2334.44
233525,2335.25
233606,2336.06
233684,2336.84
233763,2337.63
233844,2338.44
233926,2339.26
234004,2340.04
234080,2340.8
234159,2341.59
234241,2342.41
234322,2343.22
234400,2344.0
234477,2344.77
234558,2345.58
234642,2346.42
234725,2347.25
234811,2348.11
234898,2348.98
234985,2349.85
235069,2350.69
235156,2351.56
235243,2352.43
235329,2353.29
235416,2354.16
235498,2354.98
235583,2355.83
235670,2356.7
235761,2357.61
235849,2358.49
235937,2359.37
236030,2360.3
236115,2361.15
236200,2362.0
236284,2362.84
236371,2363.71
236460,2364.6
236547,2365.47
236636,2366.36
236721,2367.21
236804,2368.04
236888,2368.88
236976,2369.76
237062,2370.62
237154,2371.54
237251,2372.51
237343,2373.43
237429,2374.29
237515,2375.15
237600,2376.0
237687,2376.87
237768,2377.68
237848,2378.48
237930,2379.3
238013,2380.13
238093,2380.93
238169,2381.69
238245,2382.45
238322,2383.22
238399,2383.99
238475,2384.75
238563,2385.63
238647,2386.47
238728,2387.28
238806,2388.06
238884,2388.84
238963,2389.63
239046,2390.46
239127,2391.27
239205,2392.05
239283,2392.83
239363,2393.63
239444,2394.44
239526,2395.26
239607,2396.07
239692,2396.92
239777,2397.77
239863,2398.63
239948,2399.48
240033,2400.33
240119,2401.19
240205,2402.05
240286,2402.86
240376,2403.76
240470,2404.7
240565,2405.65
240660,2406.6
240749,2407.49
240843,2408.43
240939,2409.39
241030,2410.3
241115,2411.15
241201,2412.01
241289,2412.89
241373,2413.73
241453,2414.53
241531,2415.31
241613,2416.13
241697,2416.97
241784,2417.84
241873,2418.73
241965,2419.65
242053,2420.53
242134,2421.34
242218,2422.18
242304,2423.04
242392,2423.92
242478,2424.78
242562,2425.62
242643,2426.43
242720,2427.2
242801,2428.01
242880,2428.8
242961,2429.61
243039,2430.39
243114,2431.14
243187,2431.87
243262,2432.62
243342,2433.42
243428,2434.28
243517,2435.17
243607,2436.07
243695,2436.95
243777,2437.77
243855,2438.55
243935,2439.35
244018,2440.18
244100,2441.0
244156,2441.56
244213,2442.13
244280,2442.8
244352,2443.52
244417,2444.17
244490,2444.9
244575,2445.75
244640,2446.4
244725,2447.25
244793,2447.93
244872,2448.72
244945,2449.45
245015,2450.15
245089,2450.89
245161,2451.61
245231,2452.31
245302,2453.02
245352,2453.52
245403,2454.03
245458,2454.58
245514,2455.14
245575,2455.75
245644,2456.44
245713,2457.13
245784,2457.84
245850,2458.5
245914,2459.14
245979,2459.79
246044,2460.44
246108,2461.08
246173,2461.73
246240,2462.4
246306,2463.06
246369,2463.69
246433,2464.33
246509,2465.09
246580,2465.8
246655,2466.55
246734,2467.34
246819,2468.19
246906,2469.06
246991,2469.91
247073,2470.73
247156,2471.56
247238,2472.38
247315,2473.15
247389,2473.89
247462,2474.62
247532,2475.32
247604,2476.04
247677,2476.77
247758,2477.58
247845,2478.45
247916,2479.16
247988,2479.88
248078,2480.78
248168,2481.68
248243,2482.43
248313,2483.13
248378,2483.78
248443,2484.43
248519,2485.19
248595,2485.95
248664,2486.64
248733,2487.33
248806,2488.06
248880,2488.8
248958,2489.58
249035,2490.35
249115,2491.15
249199,2491.99
249286,2492.86
249370,2493.7
249452,2494.52
249535,2495.35
249618,2496.18
249701,2497.01
249780,2497.8
249862,2498.62
249946,2499.46
250031,2500.31
250113,2501.13
250192,2501.92
250268,2502.68
250341,2503.41
250413,2504.13
250486,2504.86
250560,2505.6
250641,2506.41
250731,2507.31
250821,2508.21
250905,2509.05
250988,2509.88
251071,2510.71
251155,2511.55
251236,2512.36
251315,2513.15
251397,2513.97
251482,2514.82
251571,2515.71
251658,2516.58
251748,2517.48
251841,2518.41
251934,2519.34
252020,2520.2
252106,2521.06
252190,2521.9
252273,2522.73
252352,2523.52
252435,2524.35
252518,2525.18
252606,2526.06
252692,2526.92
252779,2527.79
252866,2528.66
252947,2529.47
253026,2530.26
253103,2531.03
253182,2531.82
253263,2532.63
253346,2533.46
253431,2534.31
253527,2535.27
253640,2536.4
253753,2537.53
253862,2538.62
253964,2539.64
254054,2540.54
254136,2541.36
254209,2542.09
254283,2542.83
254355,2543.55
254429,2544.29
254503,2545.03
254577,2545.77
254655,2546.55
254746,2547.46
254837,2548.37
254936,2549.36
255035,2550.35
255131,2551.31
255221,2552.21
255312,2553.12
255402,2554.02
255491,2554.91
255578,2555.78
255675,2556.75
255775,2557.75
255867,2558.67
255955,2559.55
256044,2560.44
256134,2561.34
256224,2562.24
256319,2563.19
256418,2564.18
256517,2565.17
256606,2566.06
256695,2566.95
256782,2567.82
256864,2568.64
256950,2569.5
257037,2570.37
257129,2571.29
257217,2572.17
257312,2573.12
257407,2574.07
257494,2574.94
257578,2575.78
257661,2576.61
257744,2577.44
257830,2578.3
257918,2579.18
258000,2580.0
258085,2580.85
258176,2581.76
258270,2582.7
258360,2583.6
258456,2584.56
258551,2585.51
258645,2586.45
258738,2587.38
258834,2588.34
258928,2589.28
259016,2590.16
259105,2591.05
259193,2591.93
259290,2592.9
259388,2593.88
259487,2594.87
259584,2595.84
259677,2596.77
259764,2597.64
259852,2598.52
259944,2599.44
260044,2600.44
260139,2601.39
260235,2602.35
260330,2603.3
260422,2604.22
260507,2605.07
260596,2605.96
260687,2606.87
260780,2607.8
260874,2608.74
260972,2609.72
261071,2610.71
261165,2611.65
261257,2612.57
261346,2613.46
261434,2614.34
261516,2615.16
261599,2615.99
261682,2616.82
261767,2617.67
261851,2618.51
261935,2619.35
262026,2620.26
262125,2621.25
262222,2622.22
262317,2623.17
262412,2624.12
262507,2625.07
262598,2625.98
262689,2626.89
262776,2627.76
262862,2628.62
262944,2629.44
263035,2630.35
263129,2631.29
263220,2632.2
263302,2633.02
263382,2633.82
263466,2634.66
263554,2635.54
263640,2636.4
263728,2637.28
263820,2638.2
263914,2639.14
264005,2640.05
264101,2641.01
264201,2642.01
264298,2642.98
264390,2643.9
264483,2644.83
264582,2645.82
264683,2646.83
264778,2647.78
264878,2648.78
264978,2649.78
265071,2650.71
265170,2651.7
265271,2652.71
265372,2653.72
265466,2654.66
265562,2655.62
265659,2656.59
265760,2657.6
265856,2658.56
265952,2659.52
266047,2660.47
266143,2661.43
266230,2662.3
266310,2663.1
266391,2663.91
266488,2664.88
266594,2665.94
266700,2667.0
266801,2668.01
266893,2668.93
266984,2669.84
267074,2670.74
267167,2671.67
267258,2672.58
267345,2673.45
267429,2674.29
267510,2675.1
267593,2675.93
267674,2676.74
267759,2677.59
267847,2678.47
267939,2679.39
268032,2680.32
268125,2681.25
268217,2682.17
268305,2683.05
268390,2683.9
268480,2684.8
268563,2685.63
268646,2686.46
268730,2687.3
268809,2688.09
268886,2688.86
268963,2689.63
269040,2690.4
269119,2691.19
269198,2691.98
269278,2692.78
269357,2693.57
269434,2694.34
269512,2695.12
269586,2695.86
269659,2696.59
269729,2697.29
269802,2698.02
269881,2698.81
269959,2699.59
270042,2700.42
270135,2701.35
270230,2702.3
270328,2703.28
270421,2704.21
270503,2705.03
270585,2705.85
270675,2706.75
270757,2707.57
270840,2708.4
270929,2709.29
271033,2710.33
271135,2711.35
271239,2712.39
271339,2713.39
271432,2714.32
271521,2715.21
271610,2716.1
271698,2716.98
271781,2717.81
271865,2718.65
271950,2719.5
272039,2720.39
272125,2721.25
272210,2722.1
272291,2722.91
272367,2723.67
272442,2724.42
272517,2725.17
272595,2725.95
272676,2726.76
272758,2727.58
272837,2728.37
272916,2729.16
273000,2730.0
273090,2730.9
273179,2731.79
273272,2732.72
273359,2733.59
273444,2734.44
273533,2735.33
273629,2736.29
273719,2737.19
273812,2738.12
273907,2739.07
274002,2740.02
274094,2740.94
274188,2741.88
274283,2742.83
274374,2743.74
274468,2744.68
274565,2745.65
274661,2746.61
274750,2747.5
274844,2748.44
274945,2749.45
275041,2750.41
275130,2751.3
275220,2752.2
275313,2753.13
275401,2754.01
275487,2754.87
275579,2755.79
275675,2756.75
275766,2757.66
275863,2758.63
275961,2759.61
276053,2760.53
276143,2761.43
276236,2762.36
276329,2763.29
276419,2764.19
276513,2765.13
276608,2766.08
276699,2766.99
276783,2767.83
276864,2768.64
276948,2769.48
277042,2770.42
277136,2771.36
277234,2772.34
277336,2773.36
277431,2774.31
277523,2775.23
277607,2776.07
277685,2776.85
277764,2777.64
277845,2778.45
277936,2779.36
278040,2780.4
278137,2781.37
278234,2782.34
278333,2783.33
278427,2784.27
278517,2785.17
278607,2786.07
278707,2787.07
278802,2788.02
278891,2788.91
278986,2789.86
279084,2790.84
279182,2791.82
279279,2792.79
279382,2793.82
279485,2794.85
279582,2795.82
279679,2796.79
279774,2797.74
279865,2798.65
279958,2799.58
280048,2800.48
280139,2801.39
280231,2802.31
280321,2803.21
280408,2804.08
280496,2804.96
280585,2805.85
280676,2806.76
280766,2807.66
280855,2808.55
280941,2809.41
281027,2810.27
281115,2811.15
281202,2812.02
281288,2812.88
281373,2813.73
281456,2814.56
281537,2815.37
281618,2816.18
281697,2816.97
281778,2817.78
281861,2818.61
281942,2819.42
282022,2820.22
282103,2821.03
282185,2821.85
282267,2822.67
282346,2823.46
282429,2824.29
282510,2825.1
282589,2825.89
282670,2826.7
282750,2827.5
282829,2828.29
282911,2829.11
282997,2829.97
283083,2830.83
283171,2831.71
283256,2832.56
283336,2833.36
283414,2834.14
283493,2834.93
283571,2835.71
283650,2836.5
283729,2837.29
283809,2838.09
283885,2838.85
283960,2839.6
284034,2840.34
284105,2841.05
284177,2841.77
284247,2842.47
284318,2843.18
284390,2843.9
284465,2844.65
284540,2845.4
284616,2846.16
284694,2846.94
284770,2847.7
284844,2848.44
284918,2849.18
284995,2849.95
285069,2850.69
285144,2851.44
285215,2852.15
285287,2852.87
285364,2853.64
285435,2854.35
285505,2855.05
285574,2855.74
285644,2856.44
285717,2857.17
285789,2857.89
285864,2858.64
285943,2859.43
286028,2860.28
286088,2860.88
286149,2861.49
286235,2862.35
286315,2863.15
286404,2864.04
286491,2864.91
286580,2865.8
286669,2866.69
286756,2867.56
286809,2868.09
286863,2868.63
286916,2869.16
286993,2869.93
287072,2870.72
287151,2871.51
287232,2872.32
287314,2873.14
287391,2873.91
287464,2874.64
287539,2875.39
287622,2876.22
287699,2876.99
287775,2877.75
287852,2878.52
287933,2879.33
288018,2880.18
288101,2881.01
288186,2881.86
288278,2882.78
288370,2883.7
288456,2884.56
288544,2885.44
288633,2886.33
288728,2887.28
288817,2888.17
288910,2889.1
289004,2890.04
289090,2890.9
289178,2891.78
289267,2892.67
289354,2893.54
289432,2894.32
289511,2895.11
289624,2896.24
289725,2897.25
289820,2898.2
289913,2899.13
290008,2900.08
290099,2900.99
290190,2901.9
290284,2902.84
290366,2903.66
290458,2904.58
290551,2905.51
290646,2906.46
290741,2907.41
290806,2908.06
290871,2908.71
290936,2909.36
291001,2910.01
291090,2910.9
291179,2911.79
291229,2912.29
291271,2912.71
291319,2913.19
291357,2913.57
291399,2913.99
291445,2914.45
291530,2915.3
291622,2916.22
291709,2917.09
291796,2917.96
291886,2918.86
291973,2919.73
292057,2920.57
292148,2921.48
292242,2922.42
292335,2923.35
292424,2924.24
292517,2925.17
292612,2926.12
292699,2926.99
292767,2927.67
292835,2928.35
292897,2928.97
292941,2929.41
292985,2929.85
293029,2930.29
293105,2931.05
293174,2931.74
293254,2932.54
293329,2933.29
293404,2934.04
293482,2934.82
293555,2935.55
293642,2936.42
293720,2937.2
293794,2937.94
293868,2938.68
293942,2939.42
294015,2940.15
294102,2941.02
294198,2941.98
294287,2942.87
294375,2943.75
294468,2944.68
294569,2945.69
294669,2946.69
294765,2947.65
294856,2948.56
294936,2949.36
295012,2950.12
295087,2950.87
295162,2951.62
295243,2952.43
295322,2953.22
295402,2954.02
295483,2954.83
295569,2955.69
295660,2956.6
295753,2957.53
295846,2958.46
295937,2959.37
296022,2960.22
296106,2961.06
296198,2961.98
296302,2963.02
296406,2964.06
296506,2965.06
296603,2966.03
296696,2966.96
296785,2967.85
296872,2968.72
296958,2969.58
297046,2970.46
297132,2971.32
297222,2972.22
297302,2973.02
297393,2973.93
297485,2974.85
297560,2975.6
297640,2976.4
297720,2977.2
297777,2977.77
297835,2978.35
297901,2979.01
297981,2979.81
298062,2980.62
298146,2981.46
298225,2982.25
298304,2983.04
298394,2983.94
298478,2984.78
298561,2985.61
298643,2986.43
298726,2987.26
298810,2988.1
298897,2988.97
298978,2989.78
299061,2990.61
299144,2991.44
299222,2992.22
299300,2993.0
299396,2993.96
299483,2994.83
299571,2995.71
299661,2996.61
299754,2997.54
299846,2998.46
299935,2999.35
300027,3000.27
300116,3001.16
300199,3001.99
300282,3002.82
300364,3003.64
300445,3004.45
300526,3005.26
300604,3006.04
300682,3006.82
300763,3007.63
300839,3008.39
300916,3009.16
300993,3009.93
301074,3010.74
301156,3011.56
301238,3012.38
301330,3013.3
301422,3014.22
301499,3014.99
301573,3015.73
301645,3016.45
301718,3017.18
301795,3017.95
301875,3018.75
301955,3019.55
302042,3020.42
302136,3021.36
302231,3022.31
302323,3023.23
302410,3024.1
302496,3024.96
302590,3025.9
302690,3026.9
302789,3027.89
302887,3028.87
302983,3029.83
303084,3030.84
303186,3031.86
303272,3032.72
303358,3033.58
303451,3034.51
303544,3035.44
303632,3036.32
303723,3037.23
303813,3038.13
303909,3039.09
304008,3040.08
304103,3041.03
304198,3041.98
304293,3042.93
304387,3043.87
304479,3044.79
304574,3045.74
304672,3046.72
304766,3047.66
304858,3048.58
304950,3049.5
305042,3050.42
305129,3051.29
305217,3052.17
305311,3053.11
305405,3054.05
305493,3054.93
305580,3055.8
305665,3056.65
305748,3057.48
305827,3058.27
305908,3059.08
305989,3059.89
306073,3060.73
306156,3061.56
306237,3062.37
306320,3063.2
306403,3064.03
306482,3064.82
306556,3065.56
306629,3066.29
306702,3067.02
306784,3067.84
306884,3068.84
306984,3069.84
307087,3070.87
307190,3071.9
307291,3072.91
307387,3073.87
307485,3074.85
307582,3075.82
307672,3076.72
307764,3077.64
307861,3078.61
307954,3079.54
308047,3080.47
308148,3081.48
308251,3082.51
308348,3083.48
308448,3084.48
308548,3085.48
308642,3086.42
308733,3087.33
308826,3088.26
308919,3089.19
309005,3090.05
309093,3090.93
309185,3091.85
309276,3092.76
309363,3093.63
309445,3094.45
309523,3095.23
309607,3096.07
309697,3096.97
309785,3097.85
309873,3098.73
309964,3099.64
310056,3100.56
310145,3101.45
310240,3102.4
310337,3103.37
310434,3104.34
310526,3105.26
310621,3106.21
310723,3107.23
310823,3108.23
310921,3109.21
311023,3110.23
311123,3111.23
311217,3112.17
311309,3113.09
311403,3114.03
311492,3114.92
311589,3115.89
311691,3116.91
311791,3117.91
311887,3118.87
311986,3119.86
312086,3120.86
312182,3121.82
312275,3122.75
312369,3123.69
312461,3124.61
312547,3125.47
312635,3126.35
312726,3127.26
312813,3128.13
312894,3128.94
312974,3129.74
313052,3130.52
313142,3131.42
313245,3132.45
313345,3133.45
313446,3134.46
313544,3135.44
313632,3136.32
313719,3137.19
313809,3138.09
313901,3139.01
313990,3139.9
314080,3140.8
314171,3141.71
314264,3142.64
314351,3143.51
314450,3144.5
314558,3145.58
314660,3146.6
314760,3147.6
314862,3148.62
314961,3149.61
315057,3150.57
315157,3151.57
315256,3152.56
315349,3153.49
315440,3154.4
315535,3155.35
315625,3156.25
315716,3157.16
315814,3158.14
315917,3159.17
316016,3160.16
316113,3161.13
316210,3162.1
316303,3163.03
316392,3163.92
316488,3164.88
316591,3165.91
316687,3166.87
316784,3167.84
316886,3168.86
316985,3169.85
317078,3170.78
317175,3171.75
317276,3172.76
317376,3173.76
317466,3174.66
317555,3175.55
317638,3176.38
317717,3177.17
317795,3177.95
317882,3178.82
317978,3179.78
318083,3180.83
318189,3181.89
318292,3182.92
318388,3183.88
318484,3184.84
318579,3185.79
318672,3186.72
318769,3187.69
318871,3188.71
318972,3189.72
319072,3190.72
319177,3191.77
319277,3192.77
319365,3193.65
319446,3194.46
319527,3195.27
319627,3196.27
319733,3197.33
319842,3198.42
319947,3199.47
320046,3200.46
320133,3201.33
320217,3202.17
320307,3203.07
320399,3203.99
320497,3204.97
320596,3205.96
320694,3206.94
320794,3207.94
320894,3208.94
320999,3209.99
321094,3210.94
321200,3212.0
321292,3212.92
321377,3213.77
321466,3214.66
321558,3215.58
321658,3216.58
321750,3217.5
321842,3218.42
321939,3219.39
322033,3220.33
322129,3221.29
322233,3222.33
322329,3223.29
322425,3224.25
322508,3225.08
322592,3225.92
322675,3226.75
322759,3227.59
322839,3228.39
322919,3229.19
322996,3229.96
323071,3230.71
323146,3231.46
323370,3233.7
323594,3235.94
323713,3237.13
323833,3238.33
323900,3239.0
323968,3239.68
324084,3240.84
324186,3241.86
324296,3242.96
324394,3243.94
324483,3244.83
324565,3245.65
324646,3246.46
324735,3247.35
324829,3248.29
324927,3249.27
325029,3250.29
325133,3251.33
325232,3252.32
325327,3253.27
325422,3254.22
325517,3255.17
325611,3256.11
325699,3256.99
325792,3257.92
325898,3258.98
326005,3260.05
326104,3261.04
326200,3262.0
326297,3262.97
326386,3263.86
326470,3264.7
326554,3265.54
326641,3266.41
326731,3267.31
326817,3268.17
326909,3269.09
327011,3270.11
327110,3271.1
327202,3272.02
327291,3272.91
327378,3273.78
327459,3274.59
327535,3275.35
327611,3276.11
327687,3276.87
327764,3277.64
327845,3278.45
327932,3279.32
328023,3280.23
328109,3281.09
328198,3281.98
328288,3282.88
328378,3283.78
328470,3284.7
328565,3285.65
328664,3286.64
328759,3287.59
328853,3288.53
328947,3289.47
329036,3290.36
329121,3291.21
329212,3292.12
329310,3293.1
329405,3294.05
329512,3295.12
329615,3296.15
329709,3297.09
329801,3298.01
329888,3298.88
329967,3299.67
330044,3300.44
330117,3301.17
330190,3301.9
330266,3302.66
330341,3303.41
330417,3304.17
330488,3304.88
330560,3305.6
330643,3306.43
330719,3307.19
330795,3307.95
330875,3308.75
330955,3309.55
331036,3310.36
331123,3311.23
331216,3312.16
331306,3313.06
331398,3313.98
331493,3314.93
331583,3315.83
331670,3316.7
331760,3317.6
331852,3318.52
331945,3319.45
332047,3320.47
332150,3321.5
332247,3322.47
332348,3323.48
332451,3324.51
332548,3325.48
332648,3326.48
332750,3327.5
332848,3328.48
332942,3329.42
333039,3330.39
333134,3331.34
333221,3332.21
333308,3333.08
333397,3333.97
333478,3334.78
333556,3335.56
333635,3336.35
333718,3337.18
333806,3338.06
333903,3339.03
334005,3340.05
334106,3341.06
334197,3341.97
334290,3342.9
334382,3343.82
334466,3344.66
334546,3345.46
334625,3346.25
334721,3347.21
334818,3348.18
334907,3349.07
334996,3349.96
335087,3350.87
335178,3351.78
335268,3352.68
335352,3353.52
335431,3354.31
335511,3355.11
335593,3355.93
335675,3356.75
335757,3357.57
335841,3358.41
335927,3359.27
336016,3360.16
336107,3361.07
336198,3361.98
336286,3362.86
336381,3363.81
336481,3364.81
336583,3365.83
336678,3366.78
336777,3367.77
336876,3368.76
336975,3369.75
337069,3370.69
337169,3371.69
337271,3372.71
337368,3373.68
337458,3374.58
337553,3375.53
337652,3376.52
337745,3377.45
337834,3378.34
337922,3379.22
338005,3380.05
338082,3380.82
338159,3381.59
338246,3382.46
338339,3383.39
338441,3384.41
338547,3385.47
338650,3386.5
338741,3387.41
338833,3388.33
338922,3389.22
339006,3390.06
339094,3390.94
339188,3391.88
339287,3392.87
339383,3393.83
339482,3394.82
339582,3395.82
339677,3396.77
339773,3397.73
339867,3398.67
339955,3399.55
340041,3400.41
340132,3401.32
340231,3402.31
340324,3403.24
340416,3404.16
340511,3405.11
340603,3406.03
340694,3406.94
340785,3407.85
340881,3408.81
340970,3409.7
341060,3410.6
341147,3411.47
341231,3412.31
341311,3413.11
341393,3413.93
341476,3414.76
341563,3415.63
341651,3416.51
341744,3417.44
341832,3418.32
341914,3419.14
342002,3420.02
342097,3420.97
342187,3421.87
342283,3422.83
342380,3423.8
342472,3424.72
342563,3425.63
342654,3426.54
342747,3427.47
342838,3428.38
342935,3429.35
343035,3430.35
343131,3431.31
343231,3432.31
343333,3433.33
343429,3434.29
343520,3435.2
343612,3436.12
343703,3437.03
343791,3437.91
343888,3438.88
343994,3439.94
344100,3441.0
344199,3441.99
344299,3442.99
344398,3443.98
344493,3444.93
344589,3445.89
344688,3446.88
344781,3447.81
344866,3448.66
344950,3449.5
345038,3450.38
345138,3451.38
345243,3452.43
345345,3453.45
345447,3454.47
345545,3455.45
345644,3456.44
345740,3457.4
345833,3458.33
345924,3459.24
346012,3460.12
346097,3460.97
346180,3461.8
346261,3462.61
346340,3463.4
346419,3464.19
346499,3464.99
346581,3465.81
346665,3466.65
346749,3467.49
346809,3468.09
346869,3468.69
346936,3469.36
347005,3470.05
347072,3470.72
347139,3471.39
347206,3472.06
347277,3472.77
347348,3473.48
347425,3474.25
347508,3475.08
347591,3475.91
347726,3477.26
347862,3478.62
347967,3479.67
348040,3480.4
348111,3481.11
348183,3481.83
348256,3482.56
348329,3483.29
348404,3484.04
348469,3484.69
348558,3485.58
348648,3486.48
348725,3487.25
348803,3488.03
348878,3488.78
348954,3489.54
349039,3490.39
349118,3491.18
349199,3491.99
349278,3492.78
349356,3493.56
349433,3494.33
349507,3495.07
349579,3495.79
349650,3496.5
349722,3497.22
349796,3497.96
349871,3498.71
349950,3499.5
350035,3500.35
350120,3501.2
350200,3502.0
350283,3502.83
350364,3503.64
350445,3504.45
350526,3505.26
350613,3506.13
350710,3507.1
350811,3508.11
350903,3509.03
350992,3509.92
351087,3510.87
351182,3511.82
351271,3512.71
351354,3513.54
351439,3514.39
351523,3515.23
351607,3516.07
351689,3516.89
351776,3517.76
351874,3518.74
351973,3519.73
352066,3520.66
352162,3521.62
352259,3522.59
352349,3523.49
352442,3524.42
352534,3525.34
352622,3526.22
352709,3527.09
352801,3528.01
352894,3528.94
352983,3529.83
353071,3530.71
353159,3531.59
353244,3532.44
353323,3533.23
353402,3534.02
353487,3534.87
353572,3535.72
353662,3536.62
353755,3537.55
353849,3538.49
353938,3539.38
354024,3540.24
354109,3541.09
354190,3541.9
354276,3542.76
354366,3543.66
354463,3544.63
354554,3545.54
354650,3546.5
354747,3547.47
354840,3548.4
354931,3549.31
355026,3550.26
355124,3551.24
355217,3552.17
355311,3553.11
355407,3554.07
355505,3555.05
355596,3555.96
355689,3556.89
355783,3557.83
355881,3558.81
355973,3559.73
356069,3560.69
356166,3561.66
356256,3562.56
356346,3563.46
356438,3564.38
356530,3565.3
356620,3566.2
356713,3567.13
356809,3568.09
356907,3569.07
357001,3570.01
357092,3570.92
357183,3571.83
357278,3572.78
357376,3573.76
357470,3574.7
357567,3575.67
357664,3576.64
357758,3577.58
357849,3578.49
357943,3579.43
358038,3580.38
358128,3581.28
358219,3582.19
358312,3583.12
358403,3584.03
358491,3584.91
358579,3585.79
358675,3586.75
358775,3587.75
358872,3588.72
358970,3589.7
359065,3590.65
359158,3591.58
359243,3592.43
359332,3593.32
359421,3594.21
359510,3595.1
359598,3595.98
359681,3596.81
359766,3597.66
359865,3598.65
359971,3599.71
360079,3600.79
360184,3601.84
360286,3602.86
360386,3603.86
360480,3604.8
360570,3605.7
360653,3606.53
360738,3607.38
360826,3608.26
360921,3609.21
361012,3610.12
361100,3611.0
361184,3611.84
361264,3612.64
361342,3613.42
361417,3614.17
361491,3614.91
361567,3615.67
361648,3616.48
361730,3617.3
361813,3618.13
361904,3619.04
362001,3620.01
362093,3620.93
362191,3621.91
362290,3622.9
362379,3623.79
362470,3624.7
362562,3625.62
362655,3626.55
362749,3627.49
362846,3628.46
362948,3629.48
363047,3630.47
363148,3631.48
363247,3632.47
363339,3633.39
363430,3634.3
363525,3635.25
363621,3636.21
363711,3637.11
363790,3637.9
363870,3638.7
363982,3639.82
364094,3640.94
364188,3641.88
364275,3642.75
364368,3643.68
364466,3644.66
364566,3645.66
364663,3646.63
364762,3647.62
364857,3648.57
364952,3649.52
365044,3650.44
365139,3651.39
365232,3652.32
365320,3653.2
365409,3654.09
365499,3654.99
365585,3655.85
365677,3656.77
365768,3657.68
365861,3658.61
365955,3659.55
366053,3660.53
366155,3661.55
366253,3662.53
366354,3663.54
366455,3664.55
366552,3665.52
366648,3666.48
366741,3667.41
366833,3668.33
366923,3669.23
367017,3670.17
367113,3671.13
367204,3672.04
367299,3672.99
367395,3673.95
367490,3674.9
367582,3675.82
367677,3676.77
367771,3677.71
367861,3678.61
367954,3679.54
368048,3680.48
368140,3681.4
368230,3682.3
368323,3683.23
368417,3684.17
368505,3685.05
368596,3685.96
368689,3686.89
368781,3687.81
368870,3688.7
368963,3689.63
369057,3690.57
369152,3691.52
369246,3692.46
369344,3693.44
369442,3694.42
369534,3695.34
369627,3696.27
369718,3697.18
369809,3698.09
369898,3698.98
369990,3699.9
370082,3700.82
370172,3701.72
370258,3702.58
370344,3703.44
370423,3704.23
370500,3705.0
370583,3705.83
370676,3706.76
370766,3707.66
370861,3708.61
370959,3709.59
371058,3710.58
371151,3711.51
371245,3712.45
371340,3713.4
371434,3714.34
371524,3715.24
371618,3716.18
371714,3717.14
371807,3718.07
371895,3718.95
371983,3719.83
372071,3720.71
372157,3721.57
372247,3722.47
372343,3723.43
372444,3724.44
372541,3725.41
372642,3726.42
372746,3727.46
372844,3728.44
372945,3729.45
373046,3730.46
373145,3731.45
373239,3732.39
373330,3733.3
373421,3734.21
373514,3735.14
373606,3736.06
373704,3737.04
373803,3738.03
373904,3739.04
373998,3739.98
374094,3740.94
374192,3741.92
374290,3742.9
374385,3743.85
374477,3744.77
374576,3745.76
374678,3746.78
374780,3747.8
374874,3748.74
374969,3749.69
375063,3750.63
375157,3751.57
375249,3752.49
375342,3753.42
375436,3754.36
375534,3755.34
375626,3756.26
375711,3757.11
375790,3757.9
375869,3758.69
375958,3759.58
376056,3760.56
376160,3761.6
376260,3762.6
376360,3763.6
376453,3764.53
376538,3765.38
376616,3766.16
376692,3766.92
376764,3767.64
376834,3768.34
376903,3769.03
376971,3769.71
377038,3770.38
377106,3771.06
377179,3771.79
377258,3772.58
377314,3773.14
377371,3773.71
377431,3774.31
377492,3774.92
377564,3775.64
377647,3776.47
377724,3777.24
377812,3778.12
377889,3778.89
377969,3779.69
378050,3780.5
378132,3781.32
378211,3782.11
378289,3782.89
378370,3783.7
378458,3784.58
378552,3785.52
378643,3786.43
378736,3787.36
378834,3788.34
378935,3789.35
379034,3790.34
379125,3791.25
379223,3792.23
379325,3793.25
379425,3794.25
379522,3795.22
379626,3796.26
379732,3797.32
379832,3798.32
379924,3799.24
380016,3800.16
380105,3801.05
380189,3801.89
380274,3802.74
380361,3803.61
380454,3804.54
380546,3805.46
380643,3806.43
380744,3807.44
380842,3808.42
380936,3809.36
381031,3810.31
381124,3811.24
381216,3812.16
381312,3813.12
381409,3814.09
381500,3815.0
381591,3815.91
381687,3816.87
381782,3817.82
381874,3818.74
381966,3819.66
382057,3820.57
382142,3821.42
382232,3822.32
382323,3823.23
382412,3824.12
382500,3825.0
382581,3825.81
382659,3826.59
382744,3827.44
382833,3828.33
382923,3829.23
383018,3830.18
383118,3831.18
383216,3832.16
383312,3833.12
383411,3834.11
383510,3835.1
383604,3836.04
383700,3837.0
383796,3837.96
383898,3838.98
383997,3839.97
384099,3840.99
384201,3842.01
384301,3843.01
384395,3843.95
384483,3844.83
384576,3845.76
384674,3846.74
384778,3847.78
384883,3848.83
384986,3849.86
385081,3850.81
385179,3851.79
385280,3852.8
385384,3853.84
385484,3854.84
385584,3855.84
385687,3856.87
385792,3857.92
385895,3858.95
385994,3859.94
386096,3860.96
386199,3861.99
386301,3863.01
386397,3863.97
386493,3864.93
386591,3865.91
386690,3866.9
386786,3867.86
386881,3868.81
386982,3869.82
387083,3870.83
387180,3871.8
387273,3872.73
387369,3873.69
387469,3874.69
387575,3875.75
387678,3876.78
387779,3877.79
387885,3878.85
387994,3879.94
388101,3881.01
388202,3882.02
388300,3883.0
388398,3883.98
388494,3884.94
388587,3885.87
388675,3886.75
388758,3887.58
388846,3888.46
388946,3889.46
389046,3890.46
389139,3891.39
389221,3892.21
389304,3893.04
389405,3894.05
389507,3895.07
389601,3896.01
389699,3896.99
389799,3897.99
389900,3899.0
389996,3899.96
390092,3900.92
390188,3901.88
390282,3902.82
390370,3903.7
390462,3904.62
390557,3905.57
390655,3906.55
390749,3907.49
390853,3908.53
390958,3909.58
391061,3910.61
391157,3911.57
391259,3912.59
391361,3913.61
391458,3914.58
391553,3915.53
391648,3916.48
391748,3917.48
391843,3918.43
391936,3919.36
392037,3920.37
392144,3921.44
392250,3922.5
392353,3923.53
392454,3924.54
392550,3925.5
392643,3926.43
392739,3927.39
392840,3928.4
392936,3929.36
393036,3930.36
393136,3931.36
393234,3932.34
393327,3933.27
393420,3934.2
393514,3935.14
393601,3936.01
393692,3936.92
393783,3937.83
393867,3938.67
393947,3939.47
394027,3940.27
394114,3941.14
394201,3942.01
394293,3942.93
394389,3943.89
394487,3944.87
394583,3945.83
394674,3946.74
394768,3947.68
394862,3948.62
394954,3949.54
395048,3950.48
395144,3951.44
395241,3952.41
395334,3953.34
395429,3954.29
395529,3955.29
395632,3956.32
395728,3957.28
395822,3958.22
395915,3959.15
396009,3960.09
396101,3961.01
396202,3962.02
396306,3963.06
396413,3964.13
396517,3965.17
396624,3966.24
396730,3967.3
396831,3968.31
396924,3969.24
397016,3970.16
397106,3971.06
397198,3971.98
397286,3972.86
397381,3973.81
397480,3974.8
397580,3975.8
397678,3976.78
397777,3977.77
397878,3978.78
397974,3979.74
398066,3980.66
398161,3981.61
398258,3982.58
398352,3983.52
398443,3984.43
398537,3985.37
398634,3986.34
398731,3987.31
398826,3988.26
398924,3989.24
399025,3990.25
399125,3991.25
399220,3992.2
399316,3993.16
399413,3994.13
399511,3995.11
399604,3996.04
399696,3996.96
399789,3997.89
399883,3998.83
399977,3999.77
400069,4000.69
400167,4001.67
400266,4002.66
400363,4003.63
400460,4004.6
400560,4005.6
400661,4006.61
400756,4007.56
400851,4008.51
400946,4009.46
401040,4010.4
401131,4011.31
401222,4012.22
401318,4013.18
401418,4014.18
401512,4015.12
401601,4016.01
401684,4016.84
401763,4017.63
401841,4018.41
401922,4019.22
402010,4020.1
402098,4020.98
402194,4021.94
402295,4022.95
402397,4023.97
402489,4024.89
402583,4025.83
402678,4026.78
402773,4027.73
402862,4028.62
402952,4029.52
403044,4030.44
403140,4031.4
403234,4032.34
403323,4033.23
403413,4034.13
403504,4035.04
403596,4035.96
403682,4036.82
403772,4037.72
403866,4038.66
403968,4039.68
404064,4040.64
404157,4041.57
404250,4042.5
404345,4043.45
404439,4044.39
404530,4045.3
404626,4046.26
404724,4047.24
404817,4048.17
404909,4049.09
405006,4050.06
405104,4051.04
405196,4051.96
405290,4052.9
405391,4053.91
405495,4054.95
405596,4055.96
405699,4056.99
405801,4058.01
405900,4059.0
405993,4059.93
406086,4060.86
406181,4061.81
406274,4062.74
406366,4063.66
406461,4064.61
406560,4065.6
406660,4066.6
406751,4067.51
406834,4068.34
406916,4069.16
407001,4070.01
407093,4070.93
407178,4071.78
407258,4072.58
407339,4073.39
407436,4074.36
407532,4075.32
407624,4076.24
407717,4077.17
407820,4078.2
407923,4079.23
408023,4080.23
408116,4081.16
408206,4082.06
408295,4082.95
408385,4083.85
408474,4084.74
408575,4085.75
408688,4086.88
408798,4087.98
408903,4089.03
409002,4090.02
409102,4091.02
409203,4092.03
409303,4093.03
409402,4094.02
409501,4095.01
409598,4095.98
409690,4096.9
409782,4097.82
409879,4098.79
409979,4099.79
410083,4100.83
410182,4101.82
410286,4102.86
410393,4103.93
410497,4104.97
410592,4105.92
410686,4106.86
410782,4107.82
410878,4108.78
410975,4109.75
411069,4110.69
411165,4111.65
411265,4112.65
411366,4113.66
411463,4114.63
411559,4115.59
411657,4116.57
411755,4117.55
411849,4118.49
411943,4119.43
412037,4120.37
412131,4121.31
412224,4122.24
412319,4123.19
412416,4124.16
412516,4125.16
412612,4126.12
412709,4127.09
412805,4128.05
412897,4128.97
412983,4129.83
413069,4130.69
413153,4131.53
413231,4132.31
413308,4133.08
413392,4133.92
413485,4134.85
413580,4135.8
413680,4136.8
413782,4137.82
413876,4138.76
413967,4139.67
414060,4140.6
414156,4141.56
414251,4142.51
414343,4143.43
414440,4144.4
414538,4145.38
414630,4146.3
414716,4147.16
414804,4148.04
414896,4148.96
414993,4149.93
415087,4150.87
415188,4151.88
415290,4152.9
415390,4153.9
415492,4154.92
415595,4155.95
415696,4156.96
415790,4157.9
415883,4158.83
415979,4159.79
416077,4160.77
416166,4161.66
416251,4162.51
416339,4163.39
416427,4164.27
416526,4165.26
416624,4166.24
416727,4167.27
416831,4168.31
416935,4169.35
417032,4170.32
417129,4171.29
417226,4172.26
417312,4173.12
417392,4173.92
417473,4174.73
417556,4175.56
417645,4176.45
417737,4177.37
417829,4178.29
417924,4179.24
418017,4180.17
418112,4181.12
418199,4181.99
418282,4182.82
418363,4183.63
418440,4184.4
418515,4185.15
418589,4185.89
418663,4186.63
418746,4187.46
418842,4188.42
418934,4189.34
419032,4190.32
419131,4191.31
419233,4192.33
419326,4193.26
419417,4194.17
419505,4195.05
419593,4195.93
419681,4196.81
419765,4197.65
419853,4198.53
419944,4199.44
420038,4200.38
420126,4201.26
420207,4202.07
420288,4202.88
420381,4203.81
420486,4204.86
420584,4205.84
420677,4206.77
420773,4207.73
420872,4208.72
420968,4209.68
421058,4210.58
421143,4211.43
421227,4212.27
421315,4213.15
421410,4214.1
421512,4215.12
421613,4216.13
421707,4217.07
421796,4217.96
421884,4218.84
421970,4219.7
422051,4220.51
422129,4221.29
422206,4222.06
422289,4222.89
422376,4223.76
422465,4224.65
422567,4225.67
422669,4226.69
422768,4227.68
422859,4228.59
422946,4229.46
423033,4230.33
423119,4231.19
423209,4232.09
423298,4232.98
423383,4233.83
423478,4234.78
423578,4235.78
423678,4236.78
423774,4237.74
423873,4238.73
423972,4239.72
424070,4240.7
424161,4241.61
424252,4242.52
424345,4243.45
424439,4244.39
424536,4245.36
424627,4246.27
424724,4247.24
424820,4248.2
424916,4249.16
425003,4250.03
425087,4250.87
425169,4251.69
425250,4252.5
425329,4253.29
425407,4254.07
425490,4254.9
425579,4255.79
425672,4256.72
425754,4257.54
425835,4258.35
425912,4259.12
425985,4259.85
426056,4260.56
426128,4261.28
426198,4261.98
426268,4262.68
426338,4263.38
426401,4264.01
426465,4264.65
426545,4265.45
426615,4266.15
426683,4266.83
426751,4267.51
426821,4268.21
426885,4268.85
426950,4269.5
427034,4270.34
427108,4271.08
427186,4271.86
427269,4272.69
427347,4273.47
427431,4274.31
427512,4275.12
427591,4275.91
427670,4276.7
427761,4277.61
427856,4278.56
427954,4279.54
428052,4280.52
428150,4281.5
428244,4282.44
428330,4283.3
428420,4284.2
428515,4285.15
428615,4286.15
428716,4287.16
428813,4288.13
428912,4289.12
429013,4290.13
429111,4291.11
429203,4292.03
429289,4292.89
429382,4293.82
429483,4294.83
429590,4295.9
429690,4296.9
429787,4297.87
429883,4298.83
429978,4299.78
430069,4300.69
430170,4301.7
430277,4302.77
430384,4303.84
430489,4304.89
430594,4305.94
430699,4306.99
430800,4308.0
430896,4308.96
430995,4309.95
431095,4310.95
431191,4311.91
431285,4312.85
431383,4313.83
431484,4314.84
431585,4315.85
431682,4316.82
431783,4317.83
431884,4318.84
431980,4319.8
432066,4320.66
432152,4321.52
432238,4322.38
432332,4323.32
432430,4324.3
432529,4325.29
432641,4326.41
432754,4327.54
432862,4328.62
432969,4329.69
433074,4330.74
433177,4331.77
433274,4332.74
433365,4333.65
433457,4334.57
433552,4335.52
433646,4336.46
433738,4337.38
433830,4338.3
433926,4339.26
434025,4340.25
434127,4341.27
434227,4342.27
434328,4343.28
434428,4344.28
434523,4345.23
434613,4346.13
434705,4347.05
434798,4347.98
434888,4348.88
434975,4349.75
435064,4350.64
435156,4351.56
435241,4352.41
435323,4353.23
435408,4354.08
435493,4354.93
435580,4355.8
435675,4356.75
435774,4357.74
435867,4358.67
435955,4359.55
436043,4360.43
436131,4361.31
436220,4362.2
436308,4363.08
436403,4364.03
436501,4365.01
436598,4365.98
436692,4366.92
436790,4367.9
436887,4368.87
436980,4369.8
437071,4370.71
437166,4371.66
437265,4372.65
437359,4373.59
437454,4374.54
437549,4375.49
437646,4376.46
437738,4377.38
437832,4378.32
437927,4379.27
438020,4380.2
438111,4381.11
438211,4382.11
438315,4383.15
438417,4384.17
438517,4385.17
438620,4386.2
438724,4387.24
438820,4388.2
438913,4389.13
439005,4390.05
439097,4390.97
439186,4391.86
439273,4392.73
439361,4393.61
439453,4394.53
439547,4395.47
439639,4396.39
439737,4397.37
439837,4398.37
439931,4399.31
440023,4400.23
440117,4401.17
440213,4402.13
440305,4403.05
440397,4403.97
440493,4404.93
440587,4405.87
440677,4406.77
440769,4407.69
440865,4408.65
440966,4409.66
441061,4410.61
441157,4411.57
441257,4412.57
441360,4413.6
441460,4414.6
441559,4415.59
441659,4416.59
441760,4417.6
441860,4418.6
441950,4419.5
442037,4420.37
442127,4421.27
442231,4422.31
442337,4423.37
442440,4424.4
442548,4425.48
442654,4426.54
442759,4427.59
442860,4428.6
442960,4429.6
443059,4430.59
443156,4431.56
443250,4432.5
443340,4433.4
443429,4434.29
443519,4435.19
443606,4436.06
443691,4436.91
443781,4437.81
443872,4438.72
443952,4439.52
444032,4440.32
444116,4441.16
444202,4442.02
444291,4442.91
444385,4443.85
444479,4444.79
444565,4445.65
444652,4446.52
444737,4447.37
444821,4448.21
444904,4449.04
444991,4449.91
445081,4450.81
445173,4451.73
445261,4452.61
445352,4453.52
445446,4454.46
445544,4455.44
445636,4456.36
445727,4457.27
445811,4458.11
445892,4458.92
445968,4459.68
446047,4460.47
446125,4461.25
446201,4462.01
446276,4462.76
446350,4463.5
446427,4464.27
446506,4465.06
446587,4465.87
446665,4466.65
446741,4467.41
446817,4468.17
446899,4468.99
446993,4469.93
447085,4470.85
447177,4471.77
447274,4472.74
447375,4473.75
447476,4474.76
447574,4475.74
447667,4476.67
447764,4477.64
447868,4478.68
447974,4479.74
448079,4480.79
448174,4481.74
448265,4482.65
448353,4483.53
448436,4484.36
448513,4485.13
448590,4485.9
448670,4486.7
448754,4487.54
448839,4488.39
448931,4489.31
449029,4490.29
449123,4491.23
449209,4492.09
449300,4493.0
449398,4493.98
449496,4494.96
449587,4495.87
449677,4496.77
449767,4497.67
449856,4498.56
449941,4499.41
450026,4500.26
450107,4501.07
450184,4501.84
450262,4502.62
450350,4503.5
450436,4504.36
450528,4505.28
450624,4506.24
450720,4507.2
450809,4508.09
450899,4508.99
450992,4509.92
451089,4510.89
451182,4511.82
451280,4512.8
451379,4513.79
451479,4514.79
451576,4515.76
451671,4516.71
451768,4517.68
451863,4518.63
451954,4519.54
452041,4520.41
452125,4521.25
452212,4522.12
452300,4523.0
452386,4523.86
452477,4524.77
452570,4525.7
452662,4526.62
452750,4527.5
452844,4528.44
452941,4529.41
453037,4530.37
453132,4531.32
453228,4532.28
453324,4533.24
453414,4534.14
453505,4535.05
453592,4535.92
453674,4536.74
453751,4537.51
453826,4538.26
453904,4539.04
453990,4539.9
454076,4540.76
454172,4541.72
454275,4542.75
454379,4543.79
454476,4544.76
454575,4545.75
454670,4546.7
454765,4547.65
454852,4548.52
454939,4549.39
455027,4550.27
455117,4551.17
455206,4552.06
455294,4552.94
455389,4553.89
455489,4554.89
455593,4555.93
455688,4556.88
455786,4557.86
455887,4558.87
455986,4559.86
456082,4560.82
456181,4561.81
456282,4562.82
456377,4563.77
456472,4564.72
456569,4565.69
456666,4566.66
456756,4567.56
456839,4568.39
456922,4569.22
457007,4570.07
457097,4570.97
457187,4571.87
457279,4572.79
457384,4573.84
457493,4574.93
457596,4575.96
457700,4577.0
457801,4578.01
457898,4578.98
457989,4579.89
458079,4580.79
458170,4581.7
458268,4582.68
458363,4583.63
458451,4584.51
458547,4585.47
458647,4586.47
458747,4587.47
458839,4588.39
458926,4589.26
459013,4590.13
459103,4591.03
459190,4591.9
459276,4592.76
459367,4593.67
459464,4594.64
459562,4595.62
459648,4596.48
459735,4597.35
459815,4598.15
459893,4598.93
459969,4599.69
460052,4600.52
460140,4601.4
460230,4602.3
460327,4603.27
460429,4604.29
460520,4605.2
460605,4606.05
460687,4606.87
460769,4607.69
460856,4608.56
460941,4609.41
461035,4610.35
461133,4611.33
461231,4612.31
461320,4613.2
461407,4614.07
461491,4614.91
461574,4615.74
461651,4616.51
461732,4617.32
461811,4618.11
461890,4618.9
461973,4619.73
462053,4620.53
462138,4621.38
462227,4622.27
462319,4623.19
462408,4624.08
462495,4624.95
462582,4625.82
462670,4626.7
462759,4627.59
462843,4628.43
462930,4629.3
463018,4630.18
463109,4631.09
463200,4632.0
463293,4632.93
463391,4633.91
463492,4634.92
463590,4635.9
463689,4636.89
463787,4637.87
463884,4638.84
463978,4639.78
464075,4640.75
464175,4641.75
464277,4642.77
464373,4643.73
464469,4644.69
464569,4645.69
464667,4646.67
464760,4647.6
464850,4648.5
464932,4649.32
465009,4650.09
465087,4650.87
465170,4651.7
465256,4652.56
465339,4653.39
465433,4654.33
465536,4655.36
465639,4656.39
465732,4657.32
465824,4658.24
465916,4659.16
466012,4660.12
466106,4661.06
466206,4662.06
466310,4663.1
466414,4664.14
466513,4665.13
466610,4666.1
466707,4667.07
466800,4668.0
466890,4668.9
466986,4669.86
467089,4670.89
467192,4671.92
467293,4672.93
467393,4673.93
467493,4674.93
467594,4675.94
467692,4676.92
467792,4677.92
467893,4678.93
467992,4679.92
468088,4680.88
468184,4681.84
468280,4682.8
468376,4683.76
468469,4684.69
468562,4685.62
468655,4686.55
468749,4687.49
468838,4688.38
468928,4689.28
469021,4690.21
469110,4691.1
469193,4691.93
469277,4692.77
469358,4693.58
469437,4694.37
469514,4695.14
469595,4695.95
469681,4696.81
469768,4697.68
469858,4698.58
469950,4699.5
470042,4700.42
470129,4701.29
470214,4702.14
470301,4703.01
470390,4703.9
470478,4704.78
470570,4705.7
470667,4706.67
470764,4707.64
470855,4708.55
470951,4709.51
471049,4710.49
471143,4711.43
471231,4712.31
471321,4713.21
471412,4714.12
471500,4715.0
471592,4715.92
471690,4716.9
471787,4717.87
471879,4718.79
471973,4719.73
472071,4720.71
472167,4721.67
472265,4722.65
472364,4723.64
472461,4724.61
472550,4725.5
472636,4726.36
472723,4727.23
472817,4728.17
472914,4729.14
473007,4730.07
473103,4731.03
473196,4731.96
473290,4732.9
473378,4733.78
473470,4734.7
473564,4735.64
473657,4736.57
473748,4737.48
473844,4738.44
473939,4739.39
474032,4740.32
474122,4741.22
474215,4742.15
474312,4743.12
474409,4744.09
474502,4745.02
474599,4745.99
474696,4746.96
474792,4747.92
474879,4748.79
474967,4749.67
475056,4750.56
475148,4751.48
475237,4752.37
475329,4753.29
475430,4754.3
475535,4755.35
475637,4756.37
475738,4757.38
475840,4758.4
475937,4759.37
476030,4760.3
476123,4761.23
476219,4762.19
476316,4763.16
476409,4764.09
476505,4765.05
476602,4766.02
476696,4766.96
476786,4767.86
476875,4768.75
476964,4769.64
477057,4770.57
477150,4771.5
477247,4772.47
477355,4773.55
477464,4774.64
477568,4775.68
477663,4776.63
477759,4777.59
477857,4778.57
477956,4779.56
478053,4780.53
478153,4781.53
478254,4782.54
478355,4783.55
478453,4784.53
478552,4785.52
478652,4786.52
478751,4787.51
478852,4788.52
478954,4789.54
479055,4790.55
479152,4791.52
479249,4792.49
479346,4793.46
479442,4794.42
479536,4795.36
479632,4796.32
479729,4797.29
479828,4798.28
479923,4799.23
480019,4800.19
480115,4801.15
480212,4802.12
480305,4803.05
480396,4803.96
480489,4804.89
480582,4805.82
480673,4806.73
480761,4807.61
480854,4808.54
480952,4809.52
481055,4810.55
481156,4811.56
481262,4812.62
481366,4813.66
481469,4814.69
481567,4815.67
481665,4816.65
481763,4817.63
481857,4818.57
481951,4819.51
482041,4820.41
482129,4821.29
482211,4822.11
482293,4822.93
482379,4823.79
482461,4824.61
482540,4825.4
482633,4826.33
482742,4827.42
482846,4828.46
482958,4829.58
483071,4830.71
483182,4831.82
483281,4832.81
483377,4833.77
483469,4834.69
483558,4835.58
483642,4836.42
483730,4837.3
483833,4838.33
483940,4839.4
484040,4840.4
484139,4841.39
484240,4842.4
484344,4843.44
484447,4844.47
484543,4845.43
484641,4846.41
484740,4847.4
484839,4848.39
484936,4849.36
485036,4850.36
485138,4851.38
485241,4852.41
485341,4853.41
485442,4854.42
485545,4855.45
485647,4856.47
485747,4857.47
485848,4858.48
485949,4859.49
486048,4860.48
486146,4861.46
486242,4862.42
486338,4863.38
486433,4864.33
486538,4865.38
486647,4866.47
486754,4867.54
486862,4868.62
486968,4869.68
487072,4870.72
487175,4871.75
487279,4872.79
487384,4873.84
487486,4874.86
487585,4875.85
487682,4876.82
487771,4877.71
487853,4878.53
487942,4879.42
488045,4880.45
488155,4881.55
488260,4882.6
488370,4883.7
488481,4884.81
488589,4885.89
488696,4886.96
488801,4888.01
488903,4889.03
489004,4890.04
489104,4891.04
489200,4892.0
489295,4892.95
489389,4893.89
489483,4894.83
489581,4895.81
489679,4896.79
489782,4897.82
489887,4898.87
489994,4899.94
490097,4900.97
490202,4902.02
490306,4903.06
490407,4904.07
490503,4905.03
490601,4906.01
490700,4907.0
490802,4908.02
490901,4909.01
491003,4910.03
491110,4911.1
491218,4912.18
491321,4913.21
491422,4914.22
491522,4915.22
491621,4916.21
491718,4917.18
491818,4918.18
491920,4919.2
492025,4920.25
492126,4921.26
492227,4922.27
492329,4923.29
492432,4924.32
492532,4925.32
492634,4926.34
492738,4927.38
492843,4928.43
492948,4929.48
493052,4930.52
493155,4931.55
493253,4932.53
493352,4933.52
493452,4934.52
493552,4935.52
493649,4936.49
493750,4937.5
493851,4938.51
493954,4939.54
494053,4940.53
494152,4941.52
494253,4942.53
494352,4943.52
494447,4944.47
494535,4945.35
494624,4946.24
494715,4947.15
494825,4948.25
494932,4949.32
495043,4950.43
495156,4951.56
495265,4952.65
495372,4953.72
495479,4954.79
495582,4955.82
495680,4956.8
495778,4957.78
495876,4958.76
495973,4959.73
496067,4960.67
496161,4961.61
496256,4962.56
496349,4963.49
496439,4964.39
496532,4965.32
496628,4966.28
496728,4967.28
496828,4968.28
496924,4969.24
497025,4970.25
497127,4971.27
497228,4972.28
497333,4973.33
497444,4974.44
497555,4975.55
497660,4976.6
497765,4977.65
497867,4978.67
497966,4979.66
498063,4980.63
498163,4981.63
498267,4982.67
498370,4983.7
498468,4984.68
498568,4985.68
498671,4986.71
498774,4987.74
498874,4988.74
498976,4989.76
499077,4990.77
499179,4991.79
499286,4992.86
499402,4994.02
499515,4995.15
499629,4996.29
499742,4997.42
499855,4998.55
499961,4999.61
500066,5000.66
500168,5001.68
500264,5002.64
500355,5003.55
500449,5004.49
500545,5005.45
500638,5006.38
500730,5007.3
500825,5008.25
500923,5009.23
501021,5010.21
501109,5011.09
501197,5011.97
501298,5012.98
501414,5014.14
501524,5015.24
501631,5016.31
501746,5017.46
501858,5018.58
501968,5019.68
502077,5020.77
502183,5021.83
502282,5022.82
502382,5023.82
502483,5024.83
502584,5025.84
502680,5026.8
502775,5027.75
502876,5028.76
502979,5029.79
503083,5030.83
503182,5031.82
503286,5032.86
503395,5033.95
503504,5035.04
503607,5036.07
503715,5037.15
503827,5038.27
503933,5039.33
504037,5040.37
504140,5041.4
504244,5042.44
504345,5043.45
504444,5044.44
504547,5045.47
504649,5046.49
504750,5047.5
504852,5048.52
504952,5049.52
505052,5050.52
505146,5051.46
505242,5052.42
505338,5053.38
505437,5054.37
505533,5055.33
505634,5056.34
505737,5057.37
505841,5058.41
505942,5059.42
506046,5060.46
506149,5061.49
506251,5062.51
506349,5063.49
506446,5064.46
506550,5065.5
506658,5066.58
506764,5067.64
506867,5068.67
506970,5069.7
507076,5070.76
507181,5071.81
507280,5072.8
507374,5073.74
507466,5074.66
507562,5075.62
507658,5076.58
507761,5077.61
507867,5078.67
507969,5079.69
508066,5080.66
508168,5081.68
508272,5082.72
508372,5083.72
508469,5084.69
508567,5085.67
508672,5086.72
508774,5087.74
508879,5088.79
508988,5089.88
509093,5090.93
509192,5091.92
509289,5092.89
509385,5093.85
509476,5094.76
509571,5095.71
509669,5096.69
509769,5097.69
509865,5098.65
509961,5099.61
510062,5100.62
510167,5101.67
510267,5102.67
510366,5103.66
510469,5104.69
510575,5105.75
510679,5106.79
510786,5107.86
510890,5108.9
510991,5109.91
511088,5110.88
511185,5111.85
511282,5112.82
511381,5113.81
511477,5114.77
511574,5115.74
511672,5116.72
511768,5117.68
511868,5118.68
511966,5119.66
512061,5120.61
512157,5121.57
512254,5122.54
512348,5123.48
512454,5124.54
512561,5125.61
512664,5126.64
512767,5127.67
512873,5128.73
512978,5129.78
513078,5130.78
513183,5131.83
513282,5132.82
513378,5133.78
513469,5134.69
513567,5135.67
513672,5136.72
513778,5137.78
513879,5138.79
513982,5139.82
514087,5140.87
514185,5141.85
514283,5142.83
514382,5143.82
514474,5144.74
514560,5145.6
514649,5146.49
514744,5147.44
514841,5148.41
514941,5149.41
515051,5150.51
515162,5151.62
515268,5152.68
515366,5153.66
515464,5154.64
515562,5155.62
515664,5156.64
515762,5157.62
515866,5158.66
515972,5159.72
516073,5160.73
516173,5161.73
516274,5162.74
516374,5163.74
516468,5164.68
516565,5165.65
516667,5166.67
516770,5167.7
516868,5168.68
516969,5169.69
517074,5170.74
517177,5171.77
517278,5172.78
517383,5173.83
517490,5174.9
517597,5175.97
517693,5176.93
517789,5177.89
517884,5178.84
517977,5179.77
518080,5180.8
518192,5181.92
518303,5183.03
518408,5184.08
518513,5185.13
518621,5186.21
518728,5187.28
518830,5188.3
518928,5189.28
519022,5190.22
519117,5191.17
519217,5192.17
519323,5193.23
519425,5194.25
519532,5195.32
519636,5196.36
519735,5197.35
519836,5198.36
519941,5199.41
520040,5200.4
520140,5201.4
520241,5202.41
520343,5203.43
520436,5204.36
520529,5205.29
520625,5206.25
520727,5207.27
520830,5208.3
520938,5209.38
521049,5210.49
521157,5211.57
521263,5212.63
521371,5213.71
521482,5214.82
521588,5215.88
521692,5216.92
521797,5217.97
521899,5218.99
521996,5219.96
522091,5220.91
522187,5221.87
522285,5222.85
522377,5223.77
522474,5224.74
522575,5225.75
522678,5226.78
522778,5227.78
522872,5228.72
522973,5229.73
523081,5230.81
523188,5231.88
523288,5232.88
523392,5233.92
523489,5234.89
523589,5235.89
523685,5236.85
523778,5237.78
523874,5238.74
523976,5239.76
524077,5240.77
524184,5241.84
524292,5242.92
524396,5243.96
524498,5244.98
524602,5246.02
524706,5247.06
524806,5248.06
524901,5249.01
524989,5249.89
525076,5250.76
525171,5251.71
525274,5252.74
525376,5253.76
525478,5254.78
525584,5255.84
525690,5256.9
525791,5257.91
525893,5258.93
525996,5259.96
526092,5260.92
526184,5261.84
526279,5262.79
526379,5263.79
526476,5264.76
526576,5265.76
526681,5266.81
526788,5267.88
526890,5268.9
526984,5269.84
527078,5270.78
527178,5271.78
527276,5272.76
527370,5273.7
527462,5274.62
527564,5275.64
527667,5276.67
527756,5277.56
527838,5278.38
527918,5279.18
527997,5279.97
528080,5280.8
528164,5281.64
528256,5282.56
528349,5283.49
528435,5284.35
528534,5285.34
528637,5286.37
528734,5287.34
528833,5288.33
528933,5289.33
529030,5290.3
529122,5291.22
529220,5292.2
529319,5293.19
529413,5294.13
529499,5294.99
529583,5295.83
529671,5296.71
529764,5297.64
529860,5298.6
529956,5299.56
530052,5300.52
530152,5301.52
530253,5302.53
530345,5303.45
530432,5304.32
530514,5305.14
530593,5305.93
530669,5306.69
530747,5307.47
530824,5308.24
530900,5309.0
530977,5309.77
531052,5310.52
531127,5311.27
531201,5312.01
531279,5312.79
531358,5313.58
531433,5314.33
531509,5315.09
531587,5315.87
531666,5316.66
531748,5317.48
531827,5318.27
531905,5319.05
531981,5319.81
532058,5320.58
532137,5321.37
532214,5322.14
532297,5322.97
532385,5323.85
532479,5324.79
532573,5325.73
532668,5326.68
532768,5327.68
532870,5328.7
532966,5329.66
533064,5330.64
533166,5331.66
533271,5332.71
533374,5333.74
533473,5334.73
533573,5335.73
533669,5336.69
533755,5337.55
533839,5338.39
533927,5339.27
534022,5340.22
534125,5341.25
534226,5342.26
534335,5343.35
534449,5344.49
534563,5345.63
534665,5346.65
534770,5347.7
534878,5348.78
534987,5349.87
535093,5350.93
535201,5352.01
535308,5353.08
535412,5354.12
535519,5355.19
535622,5356.22
535723,5357.23
535819,5358.19
535918,5359.18
536015,5360.15
536110,5361.1
536206,5362.06
536309,5363.09
536410,5364.1
536504,5365.04
536599,5365.99
536695,5366.95
536796,5367.96
536895,5368.95
536998,5369.98
537108,5371.08
537221,5372.21
537328,5373.28
537433,5374.33
537539,5375.39
537647,5376.47
537750,5377.5
537857,5378.57
537969,5379.69
538079,5380.79
538181,5381.81
538284,5382.84
538385,5383.85
538487,5384.87
538589,5385.89
538701,5387.01
538814,5388.14
538925,5389.25
539032,5390.32
539135,5391.35
539231,5392.31
539325,5393.25
539425,5394.25
539530,5395.3
539636,5396.36
539735,5397.35
539832,5398.32
539932,5399.32
540036,5400.36
540152,5401.52
540272,5402.72
540393,5403.93
540506,5405.06
540619,5406.19
540726,5407.26
540826,5408.26
540923,5409.23
541019,5410.19
541114,5411.14
541206,5412.06
541297,5412.97
541395,5413.95
541494,5414.94
541599,5415.99
541715,5417.15
541826,5418.26
541926,5419.26
542027,5420.27
542135,5421.35
542248,5422.48
542358,5423.58
542474,5424.74
542590,5425.9
542702,5427.02
542810,5428.1
542919,5429.19
543028,5430.28
543135,5431.35
543236,5432.36
543335,5433.35
543432,5434.32
543526,5435.26
543616,5436.16
543704,5437.04
543793,5437.93
543893,5438.93
544001,5440.01
544108,5441.08
544207,5442.07
544302,5443.02
544386,5443.86
544466,5444.66
544548,5445.48
544635,5446.35
544729,5447.29
544821,5448.21
544913,5449.13
544998,5449.98
545078,5450.78
545157,5451.57
545232,5452.32
545308,5453.08
545383,5453.83
545458,5454.58
545539,5455.39
545621,5456.21
545708,5457.08
545804,5458.04
545899,5458.99
545995,5459.95
546085,5460.85
546178,5461.78
546276,5462.76
546377,5463.77
546477,5464.77
546575,5465.75
546679,5466.79
546787,5467.87
546891,5468.91
546987,5469.87
547075,5470.75
547169,5471.69
547282,5472.82
547404,5474.04
547515,5475.15
547626,5476.26
547733,5477.33
547837,5478.37
547940,5479.4
548050,5480.5
548163,5481.63
548269,5482.69
548376,5483.76
548484,5484.84
548590,5485.9
548693,5486.93
548797,5487.97
548899,5488.99
549001,5490.01
549100,5491.0
549201,5492.01
549309,5493.09
549417,5494.17
549525,5495.25
549631,5496.31
549731,5497.31
549826,5498.26
549930,5499.3
550039,5500.39
550144,5501.44
550247,5502.47
550345,5503.45
550442,5504.42
550537,5505.37
550637,5506.37
550738,5507.38
550838,5508.38
550932,5509.32
551032,5510.32
551142,5511.42
551252,5512.52
551349,5513.49
551442,5514.42
551538,5515.38
551641,5516.41
551744,5517.44
551863,5518.63
551981,5519.81
552097,5520.97
552209,5522.09
552320,5523.2
552428,5524.28
552535,5525.35
552637,5526.37
552741,5527.41
552848,5528.48
552951,5529.51
553049,5530.49
553148,5531.48
553247,5532.47
553348,5533.48
553446,5534.46
553547,5535.47
553647,5536.47
553748,5537.48
553849,5538.49
553958,5539.58
554070,5540.7
554181,5541.81
554285,5542.85
554390,5543.9
554496,5544.96
554600,5546.0
554699,5546.99
554793,5547.93
554892,5548.92
554992,5549.92
555088,5550.88
555186,5551.86
555286,5552.86
555380,5553.8
555465,5554.65
555544,5555.44
555621,5556.21
555696,5556.96
555771,5557.71
555862,5558.62
555945,5559.45
556037,5560.37
556137,5561.37
556238,5562.38
556326,5563.26
556409,5564.09
556490,5564.9
556572,5565.72
556649,5566.49
556725,5567.25
556800,5568.0
556875,5568.75
556950,5569.5
557025,5570.25
557101,5571.01
557180,5571.8
557261,5572.61
557342,5573.42
557421,5574.21
557501,5575.01
557583,5575.83
557668,5576.68
557756,5577.56
557837,5578.37
557919,5579.19
557998,5579.98
558076,5580.76
558159,5581.59
558243,5582.43
558327,5583.27
558411,5584.11
558501,5585.01
558593,5585.93
558682,5586.82
558768,5587.68
558859,5588.59
558954,5589.54
559054,5590.54
559150,5591.5
559244,5592.44
559341,5593.41
559435,5594.35
559527,5595.27
559614,5596.14
559708,5597.08
559804,5598.04
559903,5599.03
560001,5600.01
560107,5601.07
560214,5602.14
560313,5603.13
560406,5604.06
560499,5604.99
560602,5606.02
560709,5607.09
560812,5608.12
560917,5609.17
561020,5610.2
561123,5611.23
561218,5612.18
561308,5613.08
561402,5614.02
561507,5615.07
561613,5616.13
561708,5617.08
561807,5618.07
561913,5619.13
562023,5620.23
562130,5621.3
562239,5622.39
562350,5623.5
562455,5624.55
562551,5625.51
562643,5626.43
562734,5627.34
562829,5628.29
562928,5629.28
563029,5630.29
563139,5631.39
563250,5632.5
563359,5633.59
563463,5634.63
563564,5635.64
563664,5636.64
563758,5637.58
563849,5638.49
563940,5639.4
564038,5640.38
564139,5641.39
564246,5642.46
564353,5643.53
564454,5644.54
564551,5645.51
564651,5646.51
564756,5647.56
564863,5648.63
564961,5649.61
565061,5650.61
565168,5651.68
565275,5652.75
565384,5653.84
565493,5654.93
565598,5655.98
565702,5657.02
565804,5658.04
565901,5659.01
565993,5659.93
566091,5660.91
566197,5661.97
566307,5663.07
566415,5664.15
566525,5665.25
566633,5666.33
566739,5667.39
566848,5668.48
566958,5669.58
567064,5670.64
567167,5671.67
567271,5672.71
567370,5673.7
567463,5674.63
567549,5675.49
567639,5676.39
567738,5677.38
567844,5678.44
567948,5679.48
568059,5680.59
568169,5681.69
568279,5682.79
568382,5683.82
568480,5684.8
568579,5685.79
568676,5686.76
568768,5687.68
568853,5688.53
568940,5689.4
569037,5690.37
569147,5691.47
569256,5692.56
569369,5693.69
569483,5694.83
569593,5695.93
569700,5697.0
569806,5698.06
569909,5699.09
570007,5700.07
570094,5700.94
570183,5701.83
570267,5702.67
570351,5703.51
570434,5704.34
570522,5705.22
570628,5706.28
570748,5707.48
570869,5708.69
570993,5709.93
571114,5711.14
571229,5712.29
571341,5713.41
571447,5714.47
571554,5715.54
571663,5716.63
571772,5717.72
571874,5718.74
571971,5719.71
572069,5720.69
572170,5721.7
572266,5722.66
572370,5723.7
572476,5724.76
572576,5725.76
572672,5726.72
572773,5727.73
572878,5728.78
572979,5729.79
573081,5730.81
573184,5731.84
573289,5732.89
573387,5733.87
573491,5734.91
573601,5736.01
573710,5737.1
573820,5738.2
573926,5739.26
574024,5740.24
574115,5741.15
574208,5742.08
574310,5743.1
574419,5744.19
574523,5745.23
574634,5746.34
574743,5747.43
574850,5748.5
574956,5749.56
575068,5750.68
575183,5751.83
575293,5752.93
575400,5754.0
575505,5755.05
575605,5756.05
575697,5756.97
575790,5757.9
575884,5758.84
575976,5759.76
576073,5760.73
576173,5761.73
576273,5762.73
576371,5763.71
576467,5764.67
576568,5765.68
576672,5766.72
576775,5767.75
576880,5768.8
576987,5769.87
577093,5770.93
577197,5771.97
577303,5773.03
577403,5774.03
577500,5775.0
577601,5776.01
577698,5776.98
577789,5777.89
577876,5778.76
577970,5779.7
578080,5780.8
578191,5781.91
578306,5783.06
578420,5784.2
578531,5785.31
578638,5786.38
578742,5787.42
578841,5788.41
578931,5789.31
579021,5790.21
579113,5791.13
579214,5792.14
579316,5793.16
579422,5794.22
579532,5795.32
579640,5796.4
579742,5797.42
579845,5798.45
579950,5799.5
580054,5800.54
580152,5801.52
580248,5802.48
580346,5803.46
580449,5804.49
580549,5805.49
580652,5806.52
580758,5807.58
580863,5808.63
580960,5809.6
581053,5810.53
581147,5811.47
581241,5812.41
581334,5813.34
581432,5814.32
581536,5815.36
581645,5816.45
581750,5817.5
581861,5818.61
581973,5819.73
582082,5820.82
582183,5821.83
582281,5822.81
582377,5823.77
582477,5824.77
582577,5825.77
582684,5826.84
582796,5827.96
582905,5829.05
583009,5830.09
583113,5831.13
583218,5832.18
583320,5833.2
583420,5834.2
583522,5835.22
583626,5836.26
583729,5837.29
583835,5838.35
583944,5839.44
584054,5840.54
584161,5841.61
584267,5842.67
584371,5843.71
584473,5844.73
584572,5845.72
584669,5846.69
584763,5847.63
584854,5848.54
584950,5849.5
585053,5850.53
585158,5851.58
585261,5852.61
585366,5853.66
585474,5854.74
585572,5855.72
585668,5856.68
585763,5857.63
585858,5858.58
585950,5859.5
586042,5860.42
586138,5861.38
586246,5862.46
586350,5863.5
586456,5864.56
586563,5865.63
586666,5866.66
586769,5867.69
586874,5868.74
586977,5869.77
587077,5870.77
587179,5871.79
587282,5872.82
587379,5873.79
587471,5874.71
587567,5875.67
587669,5876.69
587768,5877.68
587863,5878.63
587960,5879.6
588059,5880.59
588157,5881.57
588254,5882.54
588356,5883.56
588460,5884.6
588562,5885.62
588661,5886.61
588759,5887.59
588858,5888.58
588956,5889.56
589050,5890.5
589146,5891.46
589241,5892.41
589337,5893.37
589430,5894.3
589521,5895.21
589616,5896.16
589711,5897.11
589804,5898.04
589903,5899.03
590005,5900.05
590107,5901.07
590209,5902.09
590317,5903.17
590426,5904.26
590530,5905.3
590635,5906.35
590740,5907.4
590845,5908.45
590948,5909.48
591050,5910.5
591155,5911.55
591259,5912.59
591353,5913.53
591447,5914.47
591544,5915.44
591644,5916.44
591744,5917.44
591846,5918.46
591948,5919.48
592049,5920.49
592145,5921.45
592242,5922.42
592337,5923.37
592430,5924.3
592524,5925.24
592622,5926.22
592716,5927.16
592808,5928.08
592906,5929.06
593011,5930.11
593114,5931.14
593212,5932.12
593316,5933.16
593422,5934.22
593526,5935.26
593628,5936.28
593731,5937.31
593832,5938.32
593928,5939.28
594028,5940.28
594128,5941.28
594227,5942.27
594317,5943.17
594408,5944.08
594505,5945.05
594604,5946.04
594700,5947.0
594799,5947.99
594902,5949.02
595007,5950.07
595109,5951.09
595215,5952.15
595320,5953.2
595424,5954.24
595523,5955.23
595625,5956.25
595722,5957.22
595813,5958.13
595902,5959.02
595993,5959.93
596089,5960.89
596186,5961.86
596280,5962.8
596375,5963.75
596475,5964.75
596576,5965.76
596673,5966.73
596771,5967.71
596870,5968.7
596969,5969.69
597064,5970.64
597158,5971.58
597253,5972.53
597349,5973.49
597450,5974.5
597553,5975.53
597659,5976.59
597756,5977.56
597855,5978.55
597954,5979.54
598053,5980.53
598151,5981.51
598250,5982.5
598354,5983.54
598461,5984.61
598563,5985.63
598669,5986.69
598775,5987.75
598881,5988.81
598981,5989.81
599082,5990.82
599184,5991.84
599285,5992.85
599382,5993.82
599483,5994.83
599588,5995.88
599690,5996.9
599788,5997.88
599886,5998.86
599984,5999.84
600081,6000.81
600178,6001.78
600278,6002.78
600379,6003.79
600476,6004.76
600578,6005.78
600683,6006.83
600786,6007.86
600889,6008.89
600990,6009.9
601086,6010.86
601180,6011.8
601276,6012.76
601376,6013.76
601475,6014.75
601574,6015.74
601677,6016.77
601779,6017.79
601874,6018.74
601969,6019.69
602067,6020.67
602166,6021.66
602261,6022.61
602359,6023.59
602461,6024.61
602560,6025.6
602655,6026.55
602752,6027.52
602850,6028.5
602943,6029.43
603039,6030.39
603136,6031.36
603232,6032.32
603327,6033.27
603428,6034.28
603528,6035.28
603625,6036.25
603720,6037.2
603811,6038.11
603901,6039.01
603985,6039.85
604066,6040.66
604154,6041.54
604249,6042.49
604344,6043.44
604451,6044.51
604568,6045.68
604680,6046.8
604790,6047.9
604902,6049.02
605012,6050.12
605121,6051.21
605225,6052.25
605326,6053.26
605423,6054.23
605522,6055.22
605626,6056.26
605733,6057.33
605831,6058.31
605931,6059.31
606033,6060.33
606137,6061.37
606238,6062.38
606342,6063.42
606446,6064.46
606549,6065.49
606651,6066.51
606757,6067.57
606862,6068.62
606967,6069.67
607075,6070.75
607181,6071.81
607280,6072.8
607377,6073.77
607476,6074.76
607572,6075.72
607666,6076.66
607766,6077.66
607867,6078.67
607965,6079.65
608064,6080.64
608167,6081.67
608269,6082.69
608373,6083.73
608478,6084.78
608579,6085.79
608674,6086.74
608772,6087.72
608876,6088.76
608974,6089.74
609074,6090.74
609173,6091.73
609272,6092.72
609369,6093.69
609468,6094.68
609569,6095.69
609665,6096.65
609756,6097.56
609848,6098.48
609941,6099.41
610035,6100.35
610123,6101.23
610211,6102.11
610310,6103.1
610427,6104.27
610540,6105.4
610657,6106.57
610773,6107.73
610883,6108.83
610990,6109.9
611096,6110.96
611195,6111.95
611288,6112.88
611379,6113.79
611473,6114.73
611565,6115.65
611661,6116.61
611761,6117.61
611861,6118.61
611958,6119.58
612055,6120.55
612154,6121.54
612250,6122.5
612352,6123.52
612454,6124.54
612556,6125.56
612656,6126.56
612758,6127.58
612857,6128.57
612953,6129.53
613042,6130.42
613133,6131.33
613227,6132.27
613321,6133.21
613415,6134.15
613517,6135.17
613621,6136.21
613721,6137.21
613823,6138.23
613923,6139.23
614023,6140.23
614124,6141.24
614229,6142.29
614336,6143.36
614437,6144.37
614532,6145.32
614625,6146.25
614717,6147.17
614805,6148.05
614889,6148.89
614979,6149.79
615077,6150.77
615177,6151.77
615288,6152.88
615407,6154.07
615528,6155.28
615642,6156.42
615757,6157.57
615868,6158.68
615972,6159.72
616073,6160.73
616173,6161.73
616270,6162.7
616365,6163.65
616465,6164.65
616563,6165.63
616661,6166.61
616759,6167.59
616860,6168.6
616957,6169.57
617053,6170.53
617153,6171.53
617260,6172.6
617358,6173.58
617454,6174.54
617553,6175.53
617656,6176.56
617757,6177.57
617862,6178.62
617968,6179.68
618070,6180.7
618171,6181.71
618276,6182.76
618382,6183.82
618481,6184.81
618580,6185.8
618677,6186.77
618773,6187.73
618872,6188.72
618972,6189.72
619081,6190.81
619191,6191.91
619296,6192.96
619398,6193.98
619504,6195.04
619608,6196.08
619709,6197.09
619809,6198.09
619908,6199.08
620005,6200.05
620105,6201.05
620204,6202.04
620302,6203.02
620403,6204.03
620500,6205.0
620597,6205.97
620695,6206.95
620791,6207.91
620884,6208.84
620980,6209.8
621080,6210.8
621180,6211.8
621283,6212.83
621389,6213.89
621492,6214.92
621590,6215.9
621689,6216.89
621786,6217.86
621882,6218.82
621982,6219.82
622080,6220.8
622177,6221.77
622278,6222.78
622382,6223.82
622481,6224.81
622582,6225.82
622685,6226.85
622788,6227.88
622888,6228.88
622987,6229.87
623087,6230.87
623188,6231.88
623287,6232.87
623388,6233.88
623494,6234.94
623602,6236.02
623706,6237.06
623811,6238.11
623917,6239.17
624019,6240.19
624121,6241.21
624222,6242.22
624326,6243.26
624428,6244.28
624526,6245.26
624627,6246.27
624730,6247.3
624826,6248.26
624921,6249.21
625015,6250.15
625109,6251.09
625201,6252.01
625296,6252.96
625397,6253.97
625496,6254.96
625591,6255.91
625688,6256.88
625787,6257.87
625883,6258.83
625977,6259.77
626070,6260.7
626166,6261.66
626261,6262.61
626355,6263.55
626455,6264.55
626559,6265.59
626665,6266.65
626763,6267.63
626862,6268.62
626961,6269.61
627060,6270.6
627157,6271.57
627256,6272.56
627354,6273.54
627450,6274.5
627548,6275.48
627649,6276.49
627751,6277.51
627848,6278.48
627946,6279.46
628046,6280.46
628144,6281.44
628244,6282.44
628344,6283.44
628447,6284.47
628547,6285.47
628650,6286.5
628753,6287.53
628854,6288.54
628952,6289.52
629051,6290.51
629149,6291.49
629247,6292.47
629342,6293.42
629442,6294.42
629543,6295.43
629641,6296.41
629739,6297.39
629843,6298.43
629945,6299.45
630044,6300.44
630149,6301.49
630256,6302.56
630359,6303.59
630462,6304.62
630565,6305.65
630668,6306.68
630764,6307.64
630861,6308.61
630961,6309.61
631060,6310.6
631157,6311.57
631256,6312.56
631356,6313.56
631460,6314.6
631559,6315.59
631661,6316.61
631759,6317.59
631852,6318.52
631940,6319.4
632029,6320.29
632122,6321.22
632215,6322.15
632309,6323.09
632409,6324.09
632507,6325.07
632599,6325.99
632691,6326.91
632783,6327.83
632878,6328.78
632971,6329.71
633068,6330.68
633166,6331.66
633262,6332.62
633353,6333.53
633447,6334.47
633544,6335.44
633637,6336.37
633725,6337.25
633814,6338.14
633909,6339.09
634003,6340.03
634102,6341.02
634204,6342.04
634307,6343.07
634406,6344.06
634506,6345.06
634607,6346.07
634702,6347.02
634797,6347.97
634892,6348.92
634988,6349.88
635081,6350.81
635180,6351.8
635285,6352.85
635387,6353.87
635487,6354.87
635588,6355.88
635689,6356.89
635784,6357.84
635876,6358.76
635974,6359.74
636079,6360.79
636176,6361.76
636274,6362.74
636373,6363.73
636472,6364.72
636566,6365.66
636664,6366.64
636767,6367.67
636868,6368.68
636973,6369.73
637079,6370.79
637181,6371.81
637278,6372.78
637374,6373.74
637469,6374.69
637559,6375.59
637653,6376.53
637752,6377.52
637854,6378.54
637955,6379.55
638062,6380.62
638169,6381.69
638272,6382.72
638378,6383.78
638483,6384.83
638583,6385.83
638682,6386.82
638783,6387.83
638884,6388.84
638981,6389.81
639079,6390.79
639180,6391.8
639285,6392.85
639384,6393.84
639486,6394.86
639591,6395.91
639695,6396.95
639793,6397.93
639889,6398.89
639983,6399.83
640079,6400.79
640173,6401.73
640270,6402.7
640370,6403.7
640467,6404.67
640562,6405.62
640659,6406.59
640758,6407.58
640854,6408.54
640950,6409.5
641048,6410.48
641145,6411.45
641242,6412.42
641344,6413.44
641446,6414.46
641541,6415.41
641638,6416.38
641735,6417.35
641835,6418.35
641934,6419.34
642033,6420.33
642135,6421.35
642238,6422.38
642337,6423.37
642436,6424.36
642536,6425.36
642634,6426.34
642730,6427.3
642828,6428.28
642928,6429.28
643026,6430.26
643125,6431.25
643223,6432.23
643321,6433.21
643418,6434.18
643518,6435.18
643612,6436.12
643702,6437.02
643791,6437.91
643884,6438.84
643978,6439.78
644074,6440.74
644174,6441.74
644272,6442.72
644368,6443.68
644468,6444.68
644569,6445.69
644664,6446.64
644754,6447.54
644848,6448.48
644943,6449.43
645034,6450.34
645129,6451.29
645224,6452.24
645317,6453.17
645413,6454.13
645508,6455.08
645606,6456.06
645700,6457.0
645795,6457.95
645892,6458.92
645987,6459.87
646081,6460.81
646178,6461.78
646274,6462.74
646369,6463.69
646466,6464.66
646563,6465.63
646662,6466.62
646756,6467.56
646851,6468.51
646946,6469.46
647039,6470.39
647132,6471.32
647228,6472.28
647325,6473.25
647420,6474.2
647515,6475.15
647613,6476.13
647714,6477.14
647813,6478.13
647910,6479.1
648011,6480.11
648112,6481.12
648211,6482.11
648309,6483.09
648407,6484.07
648506,6485.06
648601,6486.01
648697,6486.97
648794,6487.94
648890,6488.9
648987,6489.87
649092,6490.92
649199,6491.99
649301,6493.01
649400,6494.0
649503,6495.03
649605,6496.05
649703,6497.03
649799,6497.99
649897,6498.97
649997,6499.97
650097,6500.97
650193,6501.93
650294,6502.94
650394,6503.94
650493,6504.93
650588,6505.88
650686,6506.86
650786,6507.86
650883,6508.83
650981,6509.81
651081,6510.81
651181,6511.81
651279,6512.79
651378,6513.78
651480,6514.8
651582,6515.82
651682,6516.82
651786,6517.86
651888,6518.88
651989,6519.89
652086,6520.86
652189,6521.89
652291,6522.91
652389,6523.89
652486,6524.86
652583,6525.83
652679,6526.79
652773,6527.73
652863,6528.63
652957,6529.57
653056,6530.56
653156,6531.56
653259,6532.59
653364,6533.64
653469,6534.69
653569,6535.69
653666,6536.66
653766,6537.66
653865,6538.65
653960,6539.6
654055,6540.55
654152,6541.52
654249,6542.49
654345,6543.45
654440,6544.4
654537,6545.37
654635,6546.35
654728,6547.28
654820,6548.2
654914,6549.14
655009,6550.09
655107,6551.07
655208,6552.08
655310,6553.1
655408,6554.08
655508,6555.08
655607,6556.07
655701,6557.01
655796,6557.96
655892,6558.92
655987,6559.87
656079,6560.79
656173,6561.73
656268,6562.68
656365,6563.65
656463,6564.63
656563,6565.63
656666,6566.66
656771,6567.71
656871,6568.71
656967,6569.67
657064,6570.64
657159,6571.59
657254,6572.54
657348,6573.48
657445,6574.45
657546,6575.46
657642,6576.42
657739,6577.39
657836,6578.36
657935,6579.35
658033,6580.33
658131,6581.31
658232,6582.32
658331,6583.31
658427,6584.27
658519,6585.19
658612,6586.12
658707,6587.07
658800,6588.0
658895,6588.95
658993,6589.93
659091,6590.91
659188,6591.88
659286,6592.86
659384,6593.84
659484,6594.84
659579,6595.79
659678,6596.78
659778,6597.78
659873,6598.73
659967,6599.67
660062,6600.62
660159,6601.59
660255,6602.55
660356,6603.56
660458,6604.58
660559,6605.59
660657,6606.57
660758,6607.58
660860,6608.6
660959,6609.59
661061,6610.61
661166,6611.66
661270,6612.7
661370,6613.7
661469,6614.69
661570,6615.7
661668,6616.68
661762,6617.62
661858,6618.58
661954,6619.54
662051,6620.51
662153,6621.53
662254,6622.54
662354,6623.54
662460,6624.6
662562,6625.62
662659,6626.59
662756,6627.56
662852,6628.52
662944,6629.44
663039,6630.39
663135,6631.35
663230,6632.3
663323,6633.23
663416,6634.16
663514,6635.14
663612,6636.12
663707,6637.07
663803,6638.03
663902,6639.02
664002,6640.02
664096,6640.96
664195,6641.95
664293,6642.93
664394,6643.94
664492,6644.92
664591,6645.91
664689,6646.89
664785,6647.85
664875,6648.75
664971,6649.71
665065,6650.65
665160,6651.6
665258,6652.58
665361,6653.61
665461,6654.61
665558,6655.58
665658,6656.58
665758,6657.58
665856,6658.56
665950,6659.5
666046,6660.46
666146,6661.46
666241,6662.41
666334,6663.34
666432,6664.32
666532,6665.32
666631,6666.31
666727,6667.27
666825,6668.25
666925,6669.25
667022,6670.22
667121,6671.21
667223,6672.23
667321,6673.21
667416,6674.16
667513,6675.13
667612,6676.12
667708,6677.08
667812,6678.12
667917,6679.17
668024,6680.24
668126,6681.26
668228,6682.28
668330,6683.3
668428,6684.28
668523,6685.23
668620,6686.2
668718,6687.18
668812,6688.12
668908,6689.08
669005,6690.05
669104,6691.04
669201,6692.01
669302,6693.02
669405,6694.05
669508,6695.08
669609,6696.09
669709,6697.09
669811,6698.11
669906,6699.06
669998,6699.98
670089,6700.89
670181,6701.81
670273,6702.73
670364,6703.64
670462,6704.62
670562,6705.62
670662,6706.62
670766,6707.66
670867,6708.67
670965,6709.65
671062,6710.62
671163,6711.63
671264,6712.64
671362,6713.62
671460,6714.6
671561,6715.61
671661,6716.61
671755,6717.55
671850,6718.5
671948,6719.48
672047,6720.47
672142,6721.42
672239,6722.39
672335,6723.35
672434,6724.34
672528,6725.28
672622,6726.22
672719,6727.19
672814,6728.14
672905,6729.05
672997,6729.97
673092,6730.92
673191,6731.91
673289,6732.89
673386,6733.86
673485,6734.85
673586,6735.86
673686,6736.86
673788,6737.88
673888,6738.88
673984,6739.84
674081,6740.81
674176,6741.76
674270,6742.7
674366,6743.66
674464,6744.64
674564,6745.64
674663,6746.63
674766,6747.66
674866,6748.66
674964,6749.64
675061,6750.61
675157,6751.57
675254,6752.54
675351,6753.51
675451,6754.51
675551,6755.51
675648,6756.48
675745,6757.45
675842,6758.42
675936,6759.36
676031,6760.31
676130,6761.3
676228,6762.28
676322,6763.22
676419,6764.19
676520,6765.2
676620,6766.2
676718,6767.18
676819,6768.19
676923,6769.23
677020,6770.2
677116,6771.16
677212,6772.12
677308,6773.08
677402,6774.02
677500,6775.0
677600,6776.0
677697,6776.97
677793,6777.93
677893,6778.93
677994,6779.94
678093,6780.93
678188,6781.88
678284,6782.84
678383,6783.83
678480,6784.8
678577,6785.77
678675,6786.75
678774,6787.74
678869,6788.69
678965,6789.65
679061,6790.61
679156,6791.56
679248,6792.48
679346,6793.46
679449,6794.49
679550,6795.5
679653,6796.53
679760,6797.6
679859,6798.59
679953,6799.53
680048,6800.48
680143,6801.43
680243,6802.43
680342,6803.42
680442,6804.42
680544,6805.44
680645,6806.45
680741,6807.41
680836,6808.36
680930,6809.3
681024,6810.24
681116,6811.16
681212,6812.12
681307,6813.07
681400,6814.0
681495,6814.95
681594,6815.94
681689,6816.89
681784,6817.84
681881,6818.81
681981,6819.81
682079,6820.79
682179,6821.79
682277,6822.77
682373,6823.73
682472,6824.72
682571,6825.71
682667,6826.67
682760,6827.6
682856,6828.56
682954,6829.54
683051,6830.51
683144,6831.44
683239,6832.39
683336,6833.36
683434,6834.34
683527,6835.27
683622,6836.22
683720,6837.2
683817,6838.17
683913,6839.13
684009,6840.09
684105,6841.05
684199,6841.99
684293,6842.93
684387,6843.87
684480,6844.8
684576,6845.76
684677,6846.77
684778,6847.78
684874,6848.74
684971,6849.71
685070,6850.7
685170,6851.7
685266,6852.66
685363,6853.63
685459,6854.59
685553,6855.53
685644,6856.44
685736,6857.36
685831,6858.31
685926,6859.26
686018,6860.18
686108,6861.08
686202,6862.02
686300,6863.0
686398,6863.98
686498,6864.98
686598,6865.98
686694,6866.94
686789,6867.89
686882,6868.82
686974,6869.74
687067,6870.67
687165,6871.65
687266,6872.66
687362,6873.62
687458,6874.58
687555,6875.55
687653,6876.53
687748,6877.48
687846,6878.46
687945,6879.45
688044,6880.44
688141,6881.41
688239,6882.39
688344,6883.44
688446,6884.46
688544,6885.44
688643,6886.43
688742,6887.42
688837,6888.37
688934,6889.34
689033,6890.33
689131,6891.31
689228,6892.28
689324,6893.24
689418,6894.18
689510,6895.1
689605,6896.05
689702,6897.02
689795,6897.95
689888,6898.88
689983,6899.83
690078,6900.78
690171,6901.71
690267,6902.67
690368,6903.68
690467,6904.67
690563,6905.63
690660,6906.6
690757,6907.57
690850,6908.5
690943,6909.43
691039,6910.39
691141,6911.41
691241,6912.41
691344,6913.44
691444,6914.44
691540,6915.4
691627,6916.27
691709,6917.09
691787,6917.87
691861,6918.61
691932,6919.32
692003,6920.03
692075,6920.75
692155,6921.55
692231,6922.31
692307,6923.07
692386,6923.86
692468,6924.68
692549,6925.49
692630,6926.3
692706,6927.06
692779,6927.79
692850,6928.5
692920,6929.2
692991,6929.91
693062,6930.62
693135,6931.35
693210,6932.1
693293,6932.93
693385,6933.85
693479,6934.79
693568,6935.68
693649,6936.49
693726,6937.26
693801,6938.01
693875,6938.75
693949,6939.49
694024,6940.24
694099,6940.99
694173,6941.73
694246,6942.46
694317,6943.17
694388,6943.88
694455,6944.55
694521,6945.21
694583,6945.83
694638,6946.38
694705,6947.05
694772,6947.72
694835,6948.35
694897,6948.97
694960,6949.6
695022,6950.22
695085,6950.85
695147,6951.47
695208,6952.08
695268,6952.68
695329,6953.29
695390,6953.9
695452,6954.52
695515,6955.15
695578,6955.78
695642,6956.42
695707,6957.07
695778,6957.78
695858,6958.58
695937,6959.37
696013,6960.13
696091,6960.91
696179,6961.79
696273,6962.73
696361,6963.61
696450,6964.5
696550,6965.5
696647,6966.47
696739,6967.39
696830,6968.3
696924,6969.24
697020,6970.2
697111,6971.11
697205,6972.05
697300,6973.0
697393,6973.93
697482,6974.82
697570,6975.7
697651,6976.51
697727,6977.27
697803,6978.03
697876,6978.76
697954,6979.54
698029,6980.29
698103,6981.03
698177,6981.77
698250,6982.5
698321,6983.21
698394,6983.94
698465,6984.65
698535,6985.35
698605,6986.05
698676,6986.76
698750,6987.5
698826,6988.26
698909,6989.09
699000,6990.0
699093,6990.93
699185,6991.85
699277,6992.77
699372,6993.72
699468,6994.68
699562,6995.62
699661,6996.61
699765,6997.65
699871,6998.71
699974,6999.74
700081,7000.81
700189,7001.89
700286,7002.86
700375,7003.75
700467,7004.67
700563,7005.63
700661,7006.61
700757,7007.57
700852,7008.52
700954,7009.54
701058,7010.58
701159,7011.59
701265,7012.65
701369,7013.69
701471,7014.71
701566,7015.66
701662,7016.62
701760,7017.6
701857,7018.57
701950,7019.5
702043,7020.43
702141,7021.41
702237,7022.37
702332,7023.32
702428,7024.28
702524,7025.24
702616,7026.16
702702,7027.02
702788,7027.88
702876,7028.76
702959,7029.59
703039,7030.39
703116,7031.16
703197,7031.97
703285,7032.85
703374,7033.74
703469,7034.69
703569,7035.69
703669,7036.69
703765,7037.65
703860,7038.6
703958,7039.58
704056,7040.56
704156,7041.56
704259,7042.59
704363,7043.63
704464,7044.64
704565,7045.65
704669,7046.69
704772,7047.72
704872,7048.72
704977,7049.77
705082,7050.82
705182,7051.82
705282,7052.82
705378,7053.78
705476,7054.76
705572,7055.72
705673,7056.73
705771,7057.71
705870,7058.7
705965,7059.65
706066,7060.66
706172,7061.72
706277,7062.77
706376,7063.76
706476,7064.76
706575,7065.75
706669,7066.69
706757,7067.57
706846,7068.46
706938,7069.38
707030,7070.3
707126,7071.26
707228,7072.28
707332,7073.32
707430,7074.3
707528,7075.28
707626,7076.26
707723,7077.23
707819,7078.19
707919,7079.19
708018,7080.18
708115,7081.15
708206,7082.06
708292,7082.92
708382,7083.82
708476,7084.76
708571,7085.71
708664,7086.64
708760,7087.6
708854,7088.54
708952,7089.52
709059,7090.59
709168,7091.68
709276,7092.76
709388,7093.88
709498,7094.98
709602,7096.02
709708,7097.08
709812,7098.12
709909,7099.09
710005,7100.05
710095,7100.95
710183,7101.83
710268,7102.68
710355,7103.55
710445,7104.45
710539,7105.39
710637,7106.37
710749,7107.49
710865,7108.65
710975,7109.75
711088,7110.88
711201,7112.01
711308,7113.08
711407,7114.07
711506,7115.06
711603,7116.03
711696,7116.96
711784,7117.84
711872,7118.72
711960,7119.6
712046,7120.46
712129,7121.29
712211,7122.11
712295,7122.95
712392,7123.92
712495,7124.95
712599,7125.99
712692,7126.92
712789,7127.89
712889,7128.89
712989,7129.89
713087,7130.87
713188,7131.88
713289,7132.89
713386,7133.86
713478,7134.78
713571,7135.71
713665,7136.65
713757,7137.57
713842,7138.42
713931,7139.31
714026,7140.26
714120,7141.2
714213,7142.13
714308,7143.08
714409,7144.09
714510,7145.1
714608,7146.08
714702,7147.02
714796,7147.96
714890,7148.9
714980,7149.8
715063,7150.63
715144,7151.44
715225,7152.25
715302,7153.02
715378,7153.78
715456,7154.56
715535,7155.35
715616,7156.16
715703,7157.03
715799,7157.99
715896,7158.96
715991,7159.91
716080,7160.8
716167,7161.67
716254,7162.54
716344,7163.44
716432,7164.32
716514,7165.14
716596,7165.96
716676,7166.76
716757,7167.57
716840,7168.4
716927,7169.27
717015,7170.15
717106,7171.06
717201,7172.01
717303,7173.03
717403,7174.03
717500,7175.0
717599,7175.99
717699,7176.99
717799,7177.99
717894,7178.94
717992,7179.92
718092,7180.92
718187,7181.87
718284,7182.84
718376,7183.76
718464,7184.64
718546,7185.46
718630,7186.3
718711,7187.11
718788,7187.88
718866,7188.66
718949,7189.49
719039,7190.39
719131,7191.31
719233,7192.33
719336,7193.36
719439,7194.39
719539,7195.39
719641,7196.41
719743,7197.43
719839,7198.39
719925,7199.25
720014,7200.14
720106,7201.06
720202,7202.02
720298,7202.98
720397,7203.97
720500,7205.0
720604,7206.04
720703,7207.03
720800,7208.0
720894,7208.94
720984,7209.84
721078,7210.78
721171,7211.71
721263,7212.63
721357,7213.57
721453,7214.53
721546,7215.46
721642,7216.42
721743,7217.43
721842,7218.42
721938,7219.38
722032,7220.32
722129,7221.29
722221,7222.21
722295,7222.95
722380,7223.8
722456,7224.56
722543,7225.43
722620,7226.2
722696,7226.96
722775,7227.75
722855,7228.55
722937,7229.37
723028,7230.28
723127,7231.27
723227,7232.27
723325,7233.25
723422,7234.22
723519,7235.19
723616,7236.16
723711,7237.11
723809,7238.09
723910,7239.1
724009,7240.09
724111,7241.11
724215,7242.15
724316,7243.16
724414,7244.14
724514,7245.14
724617,7246.17
724717,7247.17
724818,7248.18
724918,7249.18
725013,7250.13
725106,7251.06
725206,7252.06
725308,7253.08
725406,7254.06
725499,7254.99
725597,7255.97
725699,7256.99
725802,7258.02
725896,7258.96
725989,7259.89
726085,7260.85
726185,7261.85
726285,7262.85
726378,7263.78
726473,7264.73
726569,7265.69
726664,7266.64
726763,7267.63
726870,7268.7
726972,7269.72
727074,7270.74
727175,7271.75
727271,7272.71
727358,7273.58
727445,7274.45
727531,7275.31
727620,7276.2
727708,7277.08
727801,7278.01
727900,7279.0
728000,7280.0
728096,7280.96
728191,7281.91
728285,7282.85
728374,7283.74
728462,7284.62
728549,7285.49
728637,7286.37
728727,7287.27
728823,7288.23
728918,7289.18
729010,7290.1
729098,7290.98
729188,7291.88
729284,7292.84
729386,7293.86
729489,7294.89
729598,7295.98
729708,7297.08
729817,7298.17
729921,7299.21
730024,7300.24
730126,7301.26
730225,7302.25
730321,7303.21
730416,7304.16
730513,7305.13
730609,7306.09
730703,7307.03
730799,7307.99
730895,7308.95
730992,7309.92
731089,7310.89
731188,7311.88
731293,7312.93
731393,7313.93
731493,7314.93
731594,7315.94
731689,7316.89
731783,7317.83
731880,7318.8
731977,7319.77
732072,7320.72
732170,7321.7
732272,7322.72
732369,7323.69
732462,7324.62
732551,7325.51
732639,7326.39
732723,7327.23
732805,7328.05
732891,7328.91
732986,7329.86
733084,7330.84
733190,7331.9
733302,7333.02
733412,7334.12
733516,7335.16
733619,7336.19
733722,7337.22
733821,7338.21
733919,7339.19
734018,7340.18
734116,7341.16
734210,7342.1
734299,7342.99
734392,7343.92
734488,7344.88
734584,7345.84
734676,7346.76
734763,7347.63
734851,7348.51
734939,7349.39
735024,7350.24
735110,7351.1
735194,7351.94
735275,7352.75
735356,7353.56
735450,7354.5
735548,7355.48
735647,7356.47
735753,7357.53
735862,7358.62
735967,7359.67
736073,7360.73
736177,7361.77
736276,7362.76
736375,7363.75
736476,7364.76
736574,7365.74
736671,7366.71
736770,7367.7
736870,7368.7
736967,7369.67
737061,7370.61
737154,7371.54
737246,7372.46
737338,7373.38
737437,7374.37
737545,7375.45
737659,7376.59
737768,7377.68
737870,7378.7
737976,7379.76
738079,7380.79
738178,7381.78
738276,7382.76
738375,7383.75
738471,7384.71
738566,7385.66
738661,7386.61
738763,7387.63
738865,7388.65
738964,7389.64
739061,7390.61
739159,7391.59
739258,7392.58
739353,7393.53
739444,7394.44
739541,7395.41
739641,7396.41
739744,7397.44
739842,7398.42
739931,7399.31
740021,7400.21
740111,7401.11
740199,7401.99
740291,7402.91
740387,7403.87
740489,7404.89
740594,7405.94
740712,7407.12
740829,7408.29
740939,7409.39
741048,7410.48
741156,7411.56
741259,7412.59
741357,7413.57
741456,7414.56
741553,7415.53
741646,7416.46
741739,7417.39
741835,7418.35
741932,7419.32
742027,7420.27
742125,7421.25
742224,7422.24
742322,7423.22
742418,7424.18
742512,7425.12
742611,7426.11
742709,7427.09
742805,7428.05
742905,7429.05
743006,7430.06
743102,7431.02
743196,7431.96
743292,7432.92
743386,7433.86
743479,7434.79
743577,7435.77
743687,7436.87
743795,7437.95
743897,7438.97
743994,7439.94
744088,7440.88
744177,7441.77
744265,7442.65
744352,7443.52
744437,7444.37
744519,7445.19
744607,7446.07
744702,7447.02
744799,7447.99
744889,7448.89
744981,7449.81
745067,7450.67
745149,7451.49
745235,7452.35
745329,7453.29
745435,7454.35
745548,7455.48
745659,7456.59
745767,7457.67
745874,7458.74
745979,7459.79
746080,7460.8
746182,7461.82
746285,7462.85
746387,7463.87
746485,7464.85
746586,7465.86
746687,7466.87
746785,7467.85
746885,7468.85
746987,7469.87
747087,7470.87
747186,7471.86
747287,7472.87
747387,7473.87
747481,7474.81
747569,7475.69
747663,7476.63
747763,7477.63
747864,7478.64
747965,7479.65
748071,7480.71
748176,7481.76
748275,7482.75
748380,7483.8
748484,7484.84
748589,7485.89
748687,7486.87
748787,7487.87
748892,7488.92
748996,7489.96
749094,7490.94
749189,7491.89
749283,7492.83
749376,7493.76
749466,7494.66
749557,7495.57
749652,7496.52
749749,7497.49
749846,7498.46
749944,7499.44
750047,7500.47
750147,7501.47
750246,7502.46
750348,7503.48
750449,7504.49
750546,7505.46
750640,7506.4
750736,7507.36
750832,7508.32
750930,7509.3
751028,7510.28
751123,7511.23
751211,7512.11
751303,7513.03
751398,7513.98
