rr_interval_sec
0.86
0.86
0.89
0.9
0.89
0.91
0.91
0.92
0.88
0.87
0.9
0.89
0.85
0.79
0.78
0.76
0.8
0.85
0.9
0.92
0.88
0.89
0.9
0.9
0.86
0.86
0.85
0.8
0.8
0.48
0.59
0.6
0.71
0.79
0.79
0.8
0.8
0.82
0.8
0.84
0.85
0.8
0.78
0.79
0.74
0.81
0.74
0.74
0.79
0.8
0.77
0.77
0.79
0.8
0.79
0.75
0.73
0.73
0.72
0.72
0.73
0.71
0.71
0.71
0.71
0.71
0.69
0.68
0.73
0.76
0.83
0.85
0.85
0.86
0.85
0.83
0.79
0.78
0.75
0.78
0.86
0.9
0.93
0.86
0.88
0.87
0.84
0.79
0.81
0.86
0.92
0.88
0.88
0.85
0.78
0.74
0.73
0.75
0.85
0.9
0.85
0.79
0.77
0.79
0.79
0.7
0.91
0.91
0.77
0.75
0.75
0.63
0.94
0.88
0.91
0.91
0.84
0.73
0.84
1.03
0.91
0.74
0.97
0.75
0.91
0.89
1.04
0.89
0.99
0.93
0.92
0.83
0.7
0.95
0.85
0.84
0.78
0.78
0.71
0.85
0.9
1.08
1.02
1.03
0.97
0.95
0.94
0.9
0.88
0.89
0.84
0.86
0.88
0.82
0.83
0.91
0.68
0.92
0.8
0.82
0.8
0.82
0.68
0.96
0.79
0.8
0.8
0.76
0.8
0.83
0.87
0.86
0.68
0.96
0.8
0.7
0.88
0.88
0.92
1.05
0.95
0.93
0.91
0.92
0.93
0.72
0.89
0.89
0.88
0.84
0.86
0.88
0.84
0.84
0.85
0.83
0.87
1.01
0.69
0.93
0.69
0.86
0.87
0.83
0.96
0.81
0.76
0.78
0.62
0.74
0.9
0.87
0.91
0.9
0.81
0.79
0.79
0.64
0.8
0.83
1.0
0.74
0.8
0.79
0.84
1.04
0.92
0.87
0.85
0.86
0.82
0.8
0.83
0.83
0.88
0.94
0.75
0.84
1.04
0.96
0.91
0.9
0.92
0.83
0.81
0.9
0.89
0.88
0.94
0.95
0.93
0.91
0.91
0.7
1.02
0.91
0.9
0.72
1.06
0.94
0.9
0.89
0.88
0.7
1.0
0.88
0.72
0.81
0.78
0.99
0.71
0.79
0.94
0.91
0.92
0.92
0.9
0.86
0.7
0.95
0.7
0.94
0.69
1.02
0.89
0.73
1.0
0.71
0.72
0.91
0.71
0.92
0.72
0.73
0.91
0.92
0.9
0.82
0.69
0.82
0.85
0.99
0.85
0.69
0.92
0.67
0.81
0.9
0.97
1.08
1.03
0.86
0.85
0.65
0.75
0.75
0.83
0.86
0.89
1.12
1.0
0.95
0.91
0.69
0.95
0.84
0.79
1.1
0.99
0.61
1.0
1.01
0.84
0.72
0.85
0.79
0.82
1.02
0.88
0.92
0.87
0.92
0.92
0.88
0.87
0.9
0.89
0.96
0.88
0.91
0.74
1.01
1.02
0.76
1.1
0.97
0.92
0.6
0.84
0.92
0.74
0.87
1.1
0.96
0.72
0.81
0.77
0.97
1.0
0.98
0.95
0.94
0.9
0.9
0.92
0.89
0.94
0.95
0.87
0.84
0.89
0.91
0.89
0.93
0.93
0.88
0.9
0.7
1.03
0.75
0.75
0.87
0.91
0.81
0.93
0.79
0.64
0.95
0.62
0.93
0.76
0.73
0.76
0.7
0.61
0.79
0.84
1.0
0.89
0.85
0.77
0.62
0.73
0.73
0.91
0.72
0.86
0.84
1.0
0.73
0.91
0.79
0.81
0.86
0.77
0.96
0.79
0.86
0.92
0.83
0.78
0.78
0.71
0.9
1.03
0.87
0.69
0.88
0.76
0.78
0.81
0.73
0.98
0.73
0.91
0.8
0.8
0.73
0.75
0.62
0.82
0.78
0.88
0.74
0.67
1.02
0.93
0.92
0.91
0.73
0.93
0.69
0.88
0.99
1.07
0.9
0.85
0.8
0.77
0.78
0.7
0.89
1.06
0.91
0.89
0.85
0.83
0.85
0.83
0.89
0.76
0.86
0.82
0.79
0.85
0.86
0.67
0.83
0.9
1.05
0.97
0.96
0.92
0.95
1.02
0.94
0.92
0.84
0.86
0.9
0.95
0.82
0.85
0.83
0.89
0.87
0.83
0.86
0.74
0.9
0.9
0.86
0.87
0.87
0.89
0.89
0.86
0.89
0.88
0.89
0.91
0.83
0.85
0.85
0.89
0.87
0.72
0.73
0.82
0.77
0.76
0.52
0.53
0.64
0.66
0.75
0.5
0.56
0.42
0.42
0.5
0.5
0.56
0.57
0.44
0.44
0.47
0.48
0.69
0.69
0.82
0.47
0.47
0.54
0.64
0.63
0.65
0.54
0.91
0.91
0.83
0.87
0.83
0.8
0.76
0.45
0.51
0.51
0.68
0.69
0.68
0.67
0.68
0.65
0.67
0.67
0.65
0.82
0.9
0.92
0.85
0.82
0.79
0.75
0.72
0.71
0.73
0.73
0.78
0.83
0.85
0.84
0.81
0.78
0.76
0.76
0.8
0.81
0.8
0.77
0.8
0.82
0.82
0.79
0.83
0.87
0.83
0.81
0.8
0.85
0.88
0.62
0.62
0.72
0.88
0.81
0.8
0.78
0.8
0.81
0.77
0.78
0.79
0.83
0.81
0.81
0.83
0.88
0.86
0.82
0.85
0.87
0.85
0.83
0.83
0.85
0.84
0.81
0.81
0.85
0.91
0.89
0.88
0.89
0.88
0.85
0.87
0.85
0.8
0.82
0.87
0.85
0.82
0.81
0.76
0.77
0.81
0.79
0.83
0.83
0.89
0.9
0.87
0.82
0.79
0.78
0.78
0.81
0.88
0.89
0.94
0.94
0.89
0.88
0.84
0.78
0.76
0.8
0.56
0.65
0.7
1.1
1.11
0.51
0.51
0.74
0.75
0.65
0.66
0.87
0.78
0.84
0.87
0.87
0.9
0.92
0.91
0.87
0.9
0.95
0.94
0.88
0.91
0.96
0.92
0.85
0.84
0.85
0.8
0.8
0.91
0.9
0.89
0.87
0.9
0.89
0.84
0.86
0.88
0.9
0.93
1.0
1.0
0.92
0.94
0.91
0.83
0.81
0.88
1.06
1.08
1.04
0.89
0.81
0.81
0.83
0.83
1.0
1.07
1.07
1.01
0.98
0.94
0.85
0.82
0.83
0.92
0.96
0.99
0.98
0.91
0.92
0.93
0.92
0.93
0.93
0.89
0.9
0.98
1.01
0.99
0.92
0.93
0.94
0.9
0.87
0.85
0.8
0.9
1.02
1.02
1.01
0.97
0.91
0.94
0.98
1.0
0.98
0.93
0.92
0.97
0.97
0.97
0.97
0.96
0.9
0.91
0.97
1.0
0.99
0.97
0.93
0.88
0.92
0.97
0.95
0.87
0.79
0.78
0.83
0.89
0.95
0.93
0.91
0.86
0.88
0.88
0.9
0.88
0.87
0.88
0.96
0.99
0.99
0.94
0.89
0.9
0.92
0.89
0.81
0.79
0.86
0.88
0.9
0.95
0.9
0.9
0.9
0.84
0.85
0.82
0.85
0.82
0.88
0.94
0.67
0.59
0.65
0.57
0.61
0.61
0.92
0.9
0.85
0.82
0.84
0.99
1.04
0.95
0.99
0.95
0.93
0.91
0.86
0.91
0.91
0.94
0.97
0.89
0.8
1.06
1.07
0.71
0.72
0.82
0.78
0.8
0.86
0.9
0.87
0.85
0.86
0.9
0.96
0.98
0.95
0.93
0.91
0.86
0.83
0.87
0.99
1.04
1.04
0.96
0.98
0.88
0.79
0.82
0.85
0.85
0.94
0.95
1.01
1.05
0.97
0.97
0.95
0.91
0.9
0.94
0.97
0.92
0.98
0.99
0.92
0.93
0.93
0.91
0.91
0.94
0.99
1.03
0.97
1.03
1.02
0.97
0.96
0.96
0.89
0.81
0.81
0.86
0.88
0.92
0.89
0.87
0.97
1.05
0.96
1.03
0.92
0.9
0.96
0.97
0.99
0.99
0.98
1.07
0.94
0.97
0.92
0.85
0.79
0.87
0.92
0.99
1.09
1.01
1.02
1.0
0.88
0.89
0.93
0.96
0.9
0.96
1.01
0.99
0.91
0.9
0.95
0.93
0.83
0.81
0.86
0.93
0.88
0.83
0.84
0.9
0.96
0.98
0.94
0.97
0.98
0.95
0.89
0.92
0.95
0.97
0.96
0.94
1.0
1.02
0.99
0.94
0.96
0.96
0.89
0.88
0.87
0.94
0.92
0.86
0.82
0.82
0.92
0.93
0.91
0.96
0.98
0.94
0.9
0.91
0.92
0.89
0.92
0.99
1.23
1.23
1.06
0.61
0.62
0.64
0.69
0.78
0.79
0.84
0.83
0.8
0.83
0.83
0.8
0.82
0.85
0.87
0.83
0.8
0.78
0.87
0.95
0.9
0.94
0.96
0.94
0.88
0.85
0.86
0.9
0.87
0.87
0.92
0.98
0.95
0.9
0.91
0.89
0.86
0.88
0.95
0.95
0.89
0.85
0.88
0.91
0.95
0.88
0.95
0.97
0.91
0.89
0.93
0.94
0.92
0.95
1.01
0.97
0.89
0.81
0.82
0.89
0.89
0.97
0.98
0.95
0.93
0.93
0.87
0.83
0.8
0.75
0.77
0.83
0.96
1.02
1.0
0.85
0.83
0.83
0.79
0.78
0.86
0.9
0.86
0.89
0.92
0.9
0.83
0.78
0.77
0.83
0.86
0.87
0.91
0.99
1.01
0.99
0.98
0.94
0.89
0.95
1.0
1.05
1.03
0.98
0.91
0.9
0.93
0.97
0.98
1.0
1.0
0.96
0.9
0.93
0.97
0.96
0.85
0.8
0.83
0.87
0.9
0.97
1.02
1.01
0.93
0.93
0.92
0.91
0.86
0.89
0.93
0.92
0.88
0.91
0.91
0.87
0.88
0.92
0.91
0.85
0.86
0.87
0.87
0.85
0.88
0.93
0.9
0.9
0.92
0.94
0.9
0.85
0.79
0.77
0.78
0.85
0.88
0.95
0.99
0.99
0.92
0.94
0.92
0.91
0.9
0.84
0.88
0.93
0.92
0.87
0.91
0.96
0.93
0.91
0.95
0.95
0.89
0.91
0.93
0.91
0.88
0.96
1.0
0.96
0.96
0.98
0.97
0.93
0.94
0.97
0.95
0.92
0.93
0.95
0.95
0.91
0.96
0.97
0.96
0.9
0.92
0.94
0.96
0.9
0.91
0.94
0.91
0.86
0.82
0.79
0.88
0.92
0.9
0.9
0.99
0.99
0.94
0.91
0.91
0.85
0.9
0.98
0.96
0.9
0.93
0.98
0.96
0.92
0.92
0.95
0.95
0.91
0.95
0.97
0.94
0.97
0.99
1.0
0.97
0.97
0.95
0.88
0.87
0.91
0.98
0.99
0.9
0.91
0.88
0.8
0.78
0.82
0.96
0.95
1.02
1.01
0.98
0.99
0.99
0.91
0.89
0.93
0.94
0.93
0.96
0.96
0.96
0.88
0.93
0.95
0.94
0.94
0.91
0.89
0.85
0.84
0.81
0.82
0.98
0.94
0.96
0.98
0.91
0.83
0.79
0.77
0.79
0.8
0.81
0.79
0.8
0.81
0.81
0.85
0.86
0.92
0.95
0.92
0.94
0.97
0.99
0.96
0.98
0.99
0.92
0.91
0.95
0.96
0.91
0.94
0.99
0.95
0.97
1.0
0.95
0.94
0.98
0.99
0.92
0.96
0.97
0.92
0.87
0.84
0.8
0.8
0.87
0.88
0.82
0.97
0.95
0.88
0.86
0.88
0.85
0.88
0.91
0.93
0.88
0.88
0.91
0.89
0.89
0.85
0.84
0.83
0.89
0.93
0.95
0.88
0.9
0.94
0.87
0.87
0.88
0.89
0.87
0.83
0.84
0.87
0.85
0.9
0.89
0.94
0.94
0.91
0.79
0.85
0.86
0.85
0.85
0.8
0.83
0.87
0.81
0.82
0.81
0.8
0.81
0.82
0.85
0.8
0.8
0.82
0.77
0.79
0.79
0.78
0.74
0.79
0.82
0.85
0.88
0.89
0.92
0.94
0.94
0.85
0.77
0.75
0.75
0.74
0.78
0.76
0.78
0.78
0.79
0.74
0.72
0.72
0.72
0.72
0.73
0.68
0.69
0.69
0.67
0.68
0.81
0.79
0.87
0.93
0.94
0.83
0.83
0.83
0.83
0.85
0.59
0.6
0.87
0.87
0.82
0.82
0.8
0.8
0.78
0.74
0.73
0.74
0.72
0.72
0.8
0.87
0.77
0.77
0.88
0.79
0.79
0.66
0.72
0.73
0.86
0.76
0.77
0.86
0.99
0.96
0.95
0.93
0.9
0.86
0.82
0.77
0.79
0.76
0.83
0.79
0.86
0.88
0.86
0.79
0.82
0.81
0.77
0.79
0.81
0.8
0.81
0.9
0.98
0.9
0.85
0.87
0.86
0.81
0.82
0.83
0.82
0.83
0.9
0.95
0.88
0.88
0.9
0.87
0.86
0.9
0.89
0.91
0.92
0.74
0.81
0.81
1.0
0.92
0.94
0.92
0.89
0.85
0.79
0.75
0.61
0.73
0.89
0.79
0.75
0.94
0.84
0.85
0.84
0.79
0.79
0.65
0.86
0.87
0.81
0.54
0.61
0.62
0.91
0.91
0.9
0.9
0.75
0.89
0.9
0.81
0.85
0.83
0.84
0.84
0.94
0.91
0.89
0.82
0.83
0.76
0.75
0.75
0.96
0.82
0.97
0.97
0.76
0.94
0.94
0.83
0.84
0.86
0.88
0.86
0.86
0.9
0.85
0.86
0.8
0.83
0.8
0.87
0.93
0.95
0.99
0.94
0.9
0.85
0.76
0.76
0.78
0.86
1.04
0.98
0.97
0.89
0.9
0.91
0.85
0.81
0.76
0.79
0.82
0.85
0.94
0.93
0.92
0.83
0.68
0.89
0.89
0.69
0.57
0.57
0.57
0.84
0.89
0.87
0.87
0.85
0.82
0.81
0.83
0.79
0.8
0.83
0.89
0.89
0.88
0.86
0.9
0.87
0.92
0.86
0.86
0.74
0.53
0.54
0.74
0.74
0.97
0.97
0.75
0.81
0.64
0.65
0.81
0.82
0.71
0.7
0.7
0.7
0.91
0.83
0.83
0.82
0.81
0.79
0.78
0.77
0.78
0.77
0.77
0.87
0.87
0.77
0.77
0.83
0.74
0.74
0.76
0.8
0.82
0.79
0.75
0.76
0.76
0.77
0.79
0.76
0.77
0.8
0.76
0.75
0.76
0.77
0.8
0.79
0.77
0.8
0.83
0.83
0.86
0.87
0.89
0.82
0.81
0.81
0.81
0.78
0.79
0.71
0.71
0.83
0.74
0.74
0.75
0.72
0.8
0.67
0.68
0.74
0.72
0.78
0.76
0.78
0.8
0.83
0.83
0.76
0.74
0.72
0.68
0.69
0.67
0.67
0.69
0.75
0.76
0.81
0.89
0.81
0.76
0.71
0.56
0.88
1.02
1.02
0.96
0.95
0.96
0.91
0.9
0.87
0.79
0.76
0.75
0.77
0.72
0.61
0.62
0.48
0.48
0.57
0.64
0.47
0.47
0.6
0.82
0.83
0.78
0.73
0.72
0.79
0.85
0.85
0.6
0.6
0.75
0.55
0.56
0.57
0.57
0.75
0.74
0.8
0.91
0.92
0.92
0.93
0.9
0.85
0.79
0.74
0.77
0.92
0.81
0.83
0.83
0.8
0.84
0.9
0.92
0.91
0.87
0.89
0.84
0.79
0.79
0.83
0.91
0.88
0.92
0.96
0.97
0.96
0.89
0.87
0.94
0.92
0.86
0.85
0.94
0.98
1.03
0.77
0.81
0.8
0.82
0.79
0.83
0.8
0.8
0.84
0.94
0.94
0.89
0.9
0.85
0.86
0.85
0.83
0.82
0.78
0.79
0.76
0.73
0.76
0.64
0.65
0.73
0.78
0.78
0.72
0.69
0.67
0.67
0.64
0.66
0.65
0.68
0.9
0.92
0.87
0.79
0.8
0.83
0.98
0.88
0.88
0.93
0.93
0.91
0.91
0.88
0.81
0.8
0.81
0.94
0.96
0.94
0.89
0.89
0.87
0.81
0.81
0.86
0.84
0.79
0.75
0.79
0.81
0.81
0.85
0.9
0.9
0.86
0.81
0.82
0.83
0.86
0.81
0.85
0.91
0.96
0.9
0.92
0.91
0.87
0.88
0.89
0.95
0.88
0.88
0.85
0.78
0.78
0.54
0.55
0.61
0.68
0.68
0.74
0.74
0.75
0.82
0.89
0.85
0.89
0.88
0.89
0.85
0.83
0.84
0.85
0.82
0.85
0.88
0.91
0.88
0.93
0.97
0.92
0.93
0.93
0.89
0.87
0.9
0.92
0.89
0.9
0.91
0.88
0.82
0.84
0.85
0.88
0.84
0.88
0.9
0.9
0.88
0.9
0.87
0.84
0.91
0.95
0.91
0.9
0.89
0.89
0.86
0.89
0.95
0.96
0.86
0.8
0.76
0.79
0.92
0.91
1.01
1.05
1.05
1.0
0.99
0.98
0.91
0.91
0.92
0.91
0.87
0.9
0.95
0.9
0.82
0.87
0.92
0.95
0.9
0.9
0.91
0.94
0.92
0.99
1.01
0.97
0.95
0.98
0.96
0.93
0.93
0.95
0.96
0.93
0.95
0.97
0.94
0.85
0.82
0.78
0.75
0.76
0.85
0.95
0.96
1.01
0.99
0.92
0.92
0.9
0.86
0.84
0.91
1.0
0.97
0.93
0.98
1.01
0.98
0.95
0.93
0.85
0.82
0.84
0.93
0.93
0.95
0.98
0.93
0.89
0.91
0.91
0.89
0.91
0.97
0.96
0.93
0.95
0.9
0.82
0.79
0.82
0.83
0.9
0.92
0.9
0.88
0.9
0.92
0.85
0.86
0.88
0.89
0.86
0.91
0.94
0.9
0.93
0.95
0.95
0.9
0.95
0.94
0.89
0.9
0.9
0.92
0.84
0.9
0.91
0.91
0.87
0.89
0.95
0.96
0.94
0.87
0.86
0.89
0.96
0.91
0.88
0.93
0.96
0.98
0.94
0.9
0.96
0.97
0.91
0.84
0.82
0.84
0.83
0.91
0.99
0.99
0.98
0.92
0.92
0.88
0.81
0.84
0.89
0.97
0.93
0.96
0.96
0.92
0.91
0.92
0.93
0.91
0.94
0.98
0.98
0.92
0.94
0.95
0.91
0.91
0.92
0.95
0.87
0.91
0.93
0.92
0.88
0.9
0.91
0.86
0.86
0.88
0.89
0.88
0.92
0.98
1.01
0.95
0.95
0.93
0.88
0.82
0.78
0.76
0.76
0.82
0.89
0.86
0.91
0.91
0.91
0.87
0.88
0.89
0.91
0.87
0.84
0.88
0.97
1.02
1.02
0.95
0.96
0.98
0.99
0.93
0.93
0.94
0.9
0.88
0.87
0.84
0.84
0.92
0.93
0.89
0.91
0.92
0.87
0.82
0.8
0.79
0.76
0.79
0.84
0.92
0.92
0.93
0.98
0.93
0.95
0.96
0.94
0.9
0.92
0.96
0.92
0.83
0.79
0.81
0.92
0.93
0.93
0.99
1.0
0.94
0.98
0.98
0.92
0.91
0.96
0.96
0.92
0.93
0.97
1.0
0.95
0.99
0.98
0.99
0.91
0.92
0.92
0.92
0.9
0.95
1.0
0.96
0.9
0.86
0.87
0.84
0.86
0.9
0.94
0.89
0.9
0.92
0.91
0.85
0.88
0.94
0.93
0.95
1.03
1.08
1.02
0.99
0.99
0.92
0.91
0.95
0.94
0.91
0.96
1.0
1.01
0.95
0.98
0.98
0.93
0.91
0.91
0.85
0.8
0.77
0.78
0.88
0.92
0.96
0.99
0.99
0.93
0.96
0.97
0.98
0.92
0.92
0.94
0.96
0.91
0.95
1.01
1.01
0.97
1.02
1.06
1.02
0.98
0.97
0.9
0.8
0.77
0.85
1.07
0.99
1.1
1.1
1.1
0.97
0.98
0.99
0.97
0.97
0.95
0.97
0.95
0.95
0.85
0.82
0.82
0.88
0.92
0.93
0.84
0.82
0.88
0.94
0.92
0.93
0.96
0.99
0.94
0.92
0.94
0.95
0.95
0.94
0.99
0.99
0.93
0.96
0.99
0.94
0.92
0.98
1.01
0.97
0.97
0.97
0.98
0.93
0.96
0.98
0.97
0.93
0.96
0.97
0.91
0.81
0.76
0.75
0.82
0.86
0.9
0.9
0.86
0.85
0.82
0.79
0.78
0.74
0.73
0.76
0.87
0.91
0.97
1.01
1.03
1.01
0.98
0.95
0.92
0.87
0.82
0.89
0.9
0.93
0.86
0.88
0.87
0.84
0.82
0.84
0.89
0.96
0.96
1.01
0.99
1.03
0.98
1.04
1.04
0.96
0.95
0.99
0.96
0.93
0.98
0.97
0.93
0.95
0.95
0.94
0.94
0.99
0.97
0.92
0.89
0.83
0.8
0.81
0.8
0.79
0.79
0.88
0.98
0.91
0.89
0.83
0.79
0.79
0.81
0.86
0.91
0.97
0.97
0.93
0.92
0.94
0.99
0.99
0.99
1.05
1.09
1.02
0.96
0.95
0.95
0.95
0.95
1.0
1.08
1.04
1.07
0.99
0.94
0.94
0.96
0.98
0.98
1.01
0.91
0.9
0.93
0.93
0.91
0.83
0.81
0.77
0.74
0.85
0.98
0.98
0.91
0.97
0.98
1.0
0.96
0.98
0.96
0.93
0.91
0.95
1.01
0.94
0.96
0.99
0.95
0.91
0.94
0.93
0.84
0.66
0.67
0.78
0.78
0.67
0.68
0.97
0.8
0.8
0.76
0.73
0.76
0.88
0.77
0.96
0.97
0.81
0.81
0.81
0.81
0.77
0.87
0.77
0.76
0.61
0.93
0.95
1.02
1.0
0.9
0.82
0.78
0.79
0.84
0.94
0.97
0.7
1.06
1.06
0.91
0.89
0.85
0.69
1.05
0.92
0.86
0.82
0.79
0.79
0.82
0.98
0.99
1.0
1.01
0.97
0.95
0.91
0.87
0.85
0.94
1.0
1.05
1.02
0.97
1.2
0.47
0.49
0.39
0.57
0.38
0.92
0.84
0.84
0.83
0.31
0.48
0.75
0.77
0.57
0.39
0.73
0.5
0.7
0.71
0.7
0.71
0.67
0.68
0.36
0.33
0.67
0.68
0.66
0.69
0.66
0.67
0.47
0.78
0.78
1.18
1.19
1.02
0.87
0.82
0.86
0.79
1.18
1.03
0.97
0.91
0.82
0.82
0.87
0.92
0.98
1.0
0.96
0.93
0.88
0.88
1.0
1.08
1.09
1.04
0.97
0.92
0.9
0.86
0.82
0.8
0.81
0.94
0.96
0.94
0.64
0.64
0.64
0.65
0.69
0.69
0.6
0.61
1.21
0.8
0.84
0.8
0.83
0.84
0.82
0.79
0.77
0.63
0.69
0.78
0.6
0.61
0.87
0.89
0.92
0.89
0.85
0.83
0.82
0.82
0.79
0.76
0.74
0.74
0.77
0.87
0.94
0.94
0.85
0.8
0.78
0.76
0.78
0.81
0.91
0.96
0.98
1.01
0.97
0.93
0.89
0.82
0.82
0.86
0.85
0.86
0.95
0.97
0.89
0.91
0.91
0.85
0.78
0.78
0.72
0.73
0.78
0.85
0.86
0.91
0.87
0.82
0.83
0.81
0.81
0.78
0.79
0.81
0.82
0.78
0.76
0.79
0.82
0.81
0.78
0.77
0.81
0.84
0.83
0.86
0.87
0.87
0.84
0.87
0.87
0.86
0.87
0.82
0.85
0.87
0.91
0.88
0.88
0.93
0.85
0.85
0.84
0.87
0.89
0.87
0.89
0.85
0.83
0.84
0.88
0.86
0.92
0.97
0.92
0.86
0.86
0.85
0.87
0.81
0.8
0.82
0.83
0.8
0.76
0.76
0.77
0.77
0.76
0.88
0.84
0.81
0.78
0.78
0.79
0.83
0.81
0.78
0.78
0.8
0.81
0.82
0.81
0.85
0.85
0.86
0.85
0.85
0.86
0.86
0.81
0.9
0.94
0.95
0.95
0.89
0.94
0.96
0.91
0.85
0.86
0.88
0.84
0.8
0.78
0.82
0.84
0.87
0.89
0.92
0.88
0.81
0.84
0.86
0.88
0.86
0.84
0.81
0.77
0.81
0.79
0.81
0.78
0.75
0.73
0.75
0.8
0.86
0.89
0.9
0.88
0.82
0.78
0.8
0.83
0.82
0.56
0.57
0.67
0.72
0.65
0.73
0.85
0.65
0.85
0.68
0.79
0.73
0.7
0.74
0.72
0.7
0.71
0.5
0.51
0.55
0.56
0.61
0.69
0.69
0.71
0.66
0.64
0.65
0.65
0.64
0.65
0.67
0.66
0.63
0.64
0.76
0.71
0.75
0.79
0.85
0.87
0.85
0.82
0.83
0.82
0.77
0.74
0.73
0.7
0.72
0.73
0.81
0.87
0.71
0.72
0.9
0.9
0.75
0.7
0.65
0.65
0.76
0.76
0.69
0.69
0.73
0.74
0.78
0.77
0.8
0.84
0.87
0.84
0.82
0.83
0.83
0.83
0.79
0.82
0.84
0.85
0.82
0.79
0.76
0.73
0.72
0.73
0.74
0.81
0.9
0.9
0.84
0.83
0.83
0.84
0.81
0.79
0.82
0.85
0.89
0.87
0.9
0.93
0.93
0.86
0.86
0.84
0.83
0.79
0.83
0.83
0.88
0.86
0.87
0.87
0.81
0.79
0.77
0.79
0.81
0.83
0.85
0.96
1.13
1.13
1.09
1.02
0.9
0.82
0.73
0.74
0.72
0.74
0.74
0.74
0.78
0.91
0.91
0.99
0.99
0.96
0.9
0.91
0.9
0.89
0.87
0.97
1.0
0.92
0.88
0.89
0.9
0.9
0.95
0.99
0.99
0.89
0.89
0.87
0.82
0.86
0.87
0.92
0.88
0.95
0.95
0.87
0.84
0.83
0.83
0.86
0.88
0.82
0.85
0.91
0.94
0.9
0.96
0.95
0.94
0.93
0.96
0.94
0.88
0.89
0.88
0.97
0.98
0.99
0.97
0.93
0.87
0.88
0.92
1.0
0.95
0.96
0.95
0.92
0.85
0.89
0.91
0.93
0.94
0.98
0.99
0.94
0.92
0.89
0.88
0.82
0.83
0.83
0.85
0.84
0.84
0.91
0.99
0.97
0.95
0.95
0.95
0.91
0.91
0.87
0.86
0.82
0.91
0.94
0.91
0.82
0.8
0.84
0.88
0.86
0.88
0.92
0.94
0.91
0.96
1.0
0.97
0.92
0.93
0.99
1.01
0.95
1.0
1.0
0.93
0.99
1.01
1.01
0.94
0.96
0.97
1.01
0.96
0.96
0.95
0.96
0.87
0.8
0.81
0.97
1.06
1.06
1.01
0.92
0.91
0.9
0.93
0.91
0.87
0.84
0.81
0.83
0.81
0.85
0.88
0.92
0.93
0.93
0.92
0.88
0.85
0.9
0.83
0.83
0.84
0.79
0.77
0.77
0.77
0.79
0.79
0.8
0.79
0.77
0.78
0.74
0.73
0.7
0.73
0.79
0.78
0.83
0.93
0.95
0.98
0.93
0.82
0.82
0.9
0.82
0.83
0.89
1.04
1.02
1.04
1.0
0.93
0.89
0.89
0.88
0.83
0.84
0.85
0.89
0.86
0.85
0.81
0.76
0.75
0.75
0.78
0.81
0.82
0.79
0.79
0.84
0.9
0.89
0.93
0.87
0.85
0.89
0.96
0.9
0.93
0.95
0.95
0.92
0.94
0.95
0.91
0.94
0.97
0.96
0.89
0.94
1.01
0.96
0.89
0.9
0.93
0.88
0.86
0.92
0.96
0.91
0.97
0.98
0.92
0.9
0.93
0.93
0.9
0.94
0.95
0.91
0.84
0.81
0.84
0.94
0.94
0.98
1.02
0.95
0.92
0.84
0.78
0.79
0.81
0.91
1.04
0.97
0.97
0.99
0.94
0.9
0.9
1.0
0.95
0.89
0.95
0.98
0.98
0.97
1.03
1.03
0.97
0.97
0.95
0.91
0.93
0.9
0.91
0.92
0.9
0.87
0.88
0.89
0.91
0.9
0.89
0.86
0.86
0.88
0.87
0.86
0.85
0.83
0.81
0.81
0.79
0.81
0.83
0.81
0.8
0.81
0.82
0.82
0.79
0.83
0.81
0.79
0.81
0.8
0.79
0.82
0.86
0.86
0.88
0.85
0.8
0.78
0.79
0.78
0.79
0.79
0.8
0.76
0.75
0.74
0.71
0.72
0.7
0.71
0.72
0.75
0.75
0.76
0.78
0.76
0.74
0.74
0.77
0.74
0.75
0.71
0.72
0.77
0.71
0.7
0.69
0.7
0.73
0.72
0.75
0.79
0.85
0.6
0.61
0.86
0.8
0.89
0.87
0.89
0.89
0.87
0.53
0.54
0.53
0.77
0.79
0.79
0.81
0.82
0.77
0.73
0.75
0.83
0.77
0.76
0.77
0.81
0.85
0.83
0.85
0.92
0.92
0.86
0.88
0.89
0.95
0.89
0.93
0.94
0.86
0.88
0.89
0.87
0.78
0.79
1.13
1.01
0.95
0.93
0.95
0.91
0.91
0.94
0.82
0.92
0.93
0.95
0.95
0.65
0.65
0.65
0.65
0.89
0.89
0.5
0.42
0.48
0.38
0.42
0.46
0.85
0.92
0.87
0.87
0.9
0.87
0.84
0.91
0.94
0.93
0.89
0.93
0.95
0.87
0.68
0.68
0.62
0.44
0.44
0.44
0.76
0.69
0.8
0.75
0.75
0.78
0.73
0.87
0.78
0.74
0.74
0.74
0.73
0.87
0.96
0.89
0.88
0.93
1.01
1.0
0.96
0.91
0.8
0.76
0.75
0.75
0.81
0.79
0.8
0.81
0.86
0.91
0.93
0.93
0.91
0.85
0.84
0.92
1.04
1.04
1.0
0.97
0.93
0.89
0.87
0.86
0.88
0.86
0.9
0.8
0.91
0.92
0.75
0.8
0.8
0.57
0.58
0.66
0.8
0.81
0.84
0.79
0.79
0.9
0.84
0.83
0.82
0.83
0.84
0.87
0.81
0.83
0.83
0.78
0.78
0.96
0.87
0.88
0.9
0.93
0.92
0.89
0.92
0.89
0.83
0.83
0.82
0.81
0.81
0.78
0.78
0.81
0.76
0.77
0.77
0.81
0.82
0.82
0.92
0.92
0.77
0.74
0.72
0.73
0.77
0.8
0.8
0.87
0.94
0.95
0.92
0.87
0.86
0.94
1.0
0.99
0.98
0.96
1.01
1.02
0.86
0.86
0.93
0.93
0.88
0.91
0.9
0.96
0.99
0.95
0.95
0.95
0.94
0.92
0.95
0.98
0.94
0.92
0.92
0.92
0.87
0.88
0.94
0.94
0.88
0.87
0.85
0.83
0.79
0.81
0.81
0.84
0.83
0.81
0.83
0.83
0.79
0.74
0.73
0.73
0.82
1.0
1.0
1.03
1.03
1.01
0.96
0.98
0.97
0.9
0.92
0.97
0.93
0.93
1.01
1.03
0.97
1.0
1.0
0.94
0.91
0.93
0.93
0.86
0.88
0.92
0.91
0.87
0.82
0.78
0.84
0.9
0.88
0.88
0.91
0.92
0.89
0.95
0.97
0.97
0.92
0.95
1.02
1.0
0.98
1.02
1.0
0.94
0.92
0.94
0.89
0.97
1.02
1.0
0.96
0.99
1.0
0.96
0.93
0.94
0.92
0.86
0.88
0.91
0.87
0.81
0.8
0.78
0.9
1.03
1.0
1.01
0.98
0.88
0.87
0.9
0.92
0.89
0.9
0.91
0.93
0.87
0.99
1.08
1.02
1.0
1.02
0.99
0.96
1.0
0.99
0.93
0.91
0.95
0.9
0.91
0.98
1.03
0.99
0.97
0.97
0.93
0.89
0.96
1.03
0.96
0.97
1.02
0.99
0.93
0.97
1.01
1.0
0.9
0.89
0.83
0.79
0.78
0.87
0.96
1.05
1.06
1.03
0.96
0.96
0.95
0.93
0.97
1.02
1.01
1.0
1.05
1.0
0.88
0.81
0.81
1.0
1.06
1.09
1.05
0.99
0.87
0.84
0.9
0.92
0.98
0.99
0.98
1.0
1.0
1.05
0.95
1.06
0.92
0.85
0.89
0.92
1.0
0.92
0.92
0.97
0.94
0.96
1.04
0.96
0.96
0.83
0.84
0.83
0.84
0.8
0.8
0.77
0.75
0.75
2.24
2.24
1.19
1.2
0.67
0.68
1.16
1.02
1.1
0.98
0.89
0.82
0.81
0.89
0.94
0.98
1.02
1.04
0.99
0.95
0.95
0.95
0.94
0.88
0.93
1.06
1.07
0.99
0.96
0.97
0.89
0.84
0.84
0.87
0.9
0.86
0.92
1.02
0.99
0.92
0.89
0.87
0.81
0.76
0.76
0.76
0.77
0.81
0.87
0.91
0.86
0.89
0.9
0.9
0.92
0.95
0.99
0.95
0.94
0.94
0.89
0.85
0.91
0.98
0.95
1.07
1.03
0.94
0.92
0.87
0.79
0.77
0.73
0.73
0.76
0.75
0.76
0.71
0.72
0.83
0.76
0.76
0.8
0.8
0.81
0.87
0.93
0.9
0.92
0.95
0.9
0.87
0.9
0.92
0.93
1.02
1.03
0.97
1.01
1.03
0.97
1.0
1.02
0.98
0.94
0.97
0.95
0.87
0.87
0.89
0.81
0.78
0.79
0.83
0.88
0.97
1.02
1.01
0.91
0.93
0.92
0.84
0.8
0.79
0.96
0.97
0.89
0.89
0.91
0.91
0.9
0.84
0.79
0.8
0.82
0.82
0.82
0.84
0.86
0.89
0.91
0.91
0.88
0.95
1.0
1.02
0.95
0.99
0.99
0.99
0.94
1.0
1.02
0.97
0.9
0.95
0.99
0.93
0.89
0.88
0.83
0.77
0.77
0.87
0.93
1.02
1.06
1.03
0.91
0.92
0.89
0.84
0.88
0.94
0.99
0.96
0.99
1.0
0.95
0.96
0.94
0.88
0.86
0.91
0.99
0.93
0.92
0.95
0.92
0.91
0.91
0.96
0.89
0.9
0.87
0.84
0.8
0.82
0.83
0.87
0.88
0.93
0.88
0.82
0.88
0.95
0.9
0.96
0.97
0.92
0.91
0.91
0.93
0.91
0.97
1.0
0.96
1.0
1.02
0.96
0.91
0.92
0.91
0.88
0.97
1.06
1.06
0.99
1.0
0.99
0.95
0.96
0.99
0.93
0.85
0.84
0.88
1.0
1.05
1.02
1.02
0.98
0.99
0.96
0.93
0.91
0.88
0.85
0.83
0.81
0.79
0.79
0.8
0.82
0.84
0.84
0.6
0.6
0.67
0.69
0.67
0.67
0.67
0.71
0.71
0.77
0.83
0.83
1.35
1.36
1.05
0.73
0.71
0.72
0.73
0.73
0.75
0.65
0.89
0.9
0.77
0.78
0.75
0.76
0.85
0.79
0.81
0.79
0.78
0.77
0.74
0.72
0.71
0.72
0.74
0.75
0.79
0.85
0.85
0.8
0.83
0.81
0.81
0.81
0.87
0.97
1.01
0.92
0.89
0.95
0.95
0.89
0.83
0.85
0.84
0.84
0.82
0.87
0.98
0.99
0.93
0.96
0.97
0.9
0.93
0.92
0.88
0.87
0.92
0.93
0.89
0.88
0.88
0.85
0.79
0.79
0.85
0.85
0.9
0.93
0.94
0.89
0.86
0.85
0.81
0.86
0.9
0.97
0.91
0.96
0.97
0.93
0.91
0.95
0.98
0.93
0.94
0.96
0.98
0.91
0.93
0.94
0.98
0.92
0.96
0.97
0.9
0.9
0.92
0.92
0.9
0.93
0.96
0.98
0.94
0.91
0.91
0.95
0.98
0.94
0.97
0.97
0.94
0.91
0.94
0.95
0.9
0.91
0.93
0.91
0.88
0.88
0.96
1.0
0.97
0.98
0.95
0.93
0.85
0.89
0.89
0.89
0.88
0.83
0.85
0.99
1.06
1.08
1.05
1.02
1.0
0.94
0.9
0.83
0.85
0.88
0.95
0.91
0.88
0.84
0.8
0.78
0.75
0.74
0.76
0.81
0.82
0.83
0.91
0.97
0.92
0.98
0.99
0.89
0.91
0.92
0.93
0.94
0.97
1.02
0.99
1.01
0.99
0.92
0.91
0.95
0.96
0.9
0.79
0.8
1.12
1.12
0.94
0.87
0.93
0.98
1.0
0.97
0.99
0.95
0.95
0.92
0.95
0.93
0.88
0.89
0.9
0.86
0.92
0.91
0.93
0.94
0.98
1.02
0.98
1.01
1.01
0.97
0.96
0.93
0.92
0.9
0.94
0.96
0.91
0.95
0.96
0.95
0.92
0.95
0.94
0.9
0.93
0.94
0.92
0.9
0.93
0.94
0.88
0.91
0.93
0.92
0.89
0.93
0.94
0.95
0.94
0.98
0.98
0.92
0.93
0.91
0.91
0.89
0.92
0.92
0.9
0.86
0.86
0.79
0.77
0.83
0.93
0.9
0.95
0.98
0.99
0.93
0.94
0.95
0.94
0.9
0.94
0.96
0.93
0.88
0.88
0.88
0.86
0.9
0.96
1.01
0.97
1.01
1.04
0.98
1.01
1.01
0.99
0.94
0.91
0.91
0.93
0.92
0.98
0.99
1.01
0.94
0.96
0.98
0.98
0.95
0.92
0.99
1.02
1.02
0.94
0.95
0.94
0.94
0.92
0.93
0.94
0.98
0.92
0.85
0.79
0.79
0.89
0.98
1.04
1.0
1.0
0.93
0.85
0.78
0.76
0.72
0.7
0.69
0.68
0.67
0.68
0.73
0.79
0.56
0.57
0.6
0.61
0.72
0.83
0.77
0.88
0.77
0.8
0.81
0.82
0.79
0.78
0.81
0.88
0.94
0.91
0.93
0.98
1.01
0.99
0.91
0.98
1.02
1.0
0.97
1.04
1.06
1.0
0.92
0.92
0.89
0.84
0.85
0.87
0.93
0.92
0.97
1.01
0.98
0.94
0.95
0.93
0.92
0.96
0.97
0.91
0.91
0.96
0.95
0.92
0.92
0.91
0.85
0.9
0.91
0.89
0.88
0.81
0.78
0.85
0.89
0.9
0.95
1.0
0.98
0.96
0.99
0.99
0.94
0.96
0.96
1.02
0.99
1.02
1.02
1.0
0.94
0.88
0.93
0.98
1.04
1.05
1.03
0.95
0.98
1.01
1.04
1.0
1.0
1.03
1.05
1.03
0.99
1.02
1.03
1.02
0.96
0.96
0.98
0.99
0.96
0.95
1.01
1.01
0.97
0.93
0.96
1.0
1.06
1.03
1.01
1.06
1.09
1.07
1.01
0.98
0.98
0.96
0.93
0.88
0.83
0.88
1.0
1.0
0.93
0.82
0.83
1.01
1.02
0.94
0.98
1.0
1.01
0.96
0.96
0.96
0.94
0.88
0.92
0.95
0.98
0.94
1.04
1.05
1.03
0.96
1.02
1.02
0.97
0.95
0.95
1.0
0.95
0.93
1.01
1.07
1.06
1.03
1.01
0.96
0.93
0.96
1.01
0.96
1.0
1.0
0.98
0.93
0.93
0.94
0.87
0.91
0.91
0.84
0.8
0.8
0.87
0.87
0.92
0.96
0.98
0.96
0.91
0.94
0.94
0.92
0.94
0.96
0.97
0.93
0.95
1.0
1.03
0.96
0.94
0.93
0.94
0.92
1.01
1.04
1.07
1.04
1.07
1.06
1.01
0.93
0.92
0.9
0.92
0.88
0.95
0.99
1.0
0.98
0.99
1.01
0.96
0.92
0.95
0.97
0.94
0.91
0.94
0.97
0.97
0.95
0.98
1.01
1.0
0.95
0.96
0.97
0.98
0.93
0.92
0.93
0.94
0.94
0.92
0.98
0.99
0.97
0.97
1.0
1.01
0.95
0.95
0.95
0.94
0.91
0.91
0.96
1.0
0.94
0.89
0.83
0.79
0.78
0.81
0.88
0.88
0.96
1.01
1.02
0.92
0.94
0.95
0.95
0.89
0.9
0.92
0.96
0.94
0.89
0.9
0.91
0.92
0.86
0.9
0.94
1.02
0.96
0.93
0.93
0.95
0.94
0.91
0.96
0.98
0.93
0.92
0.97
0.98
0.92
0.94
1.01
1.04
1.01
1.03
1.02
0.99
0.93
0.93
0.95
0.93
0.92
0.95
0.99
1.0
0.91
0.83
0.82
0.85
0.92
0.85
0.8
0.81
0.97
0.96
0.92
0.93
1.03
1.03
1.0
0.93
0.9
0.89
0.9
0.89
1.01
1.13
1.1
1.05
0.99
1.0
1.01
1.0
0.99
0.99
0.97
0.92
0.92
0.97
1.0
1.04
0.99
1.04
1.07
1.04
0.95
0.94
0.96
0.96
0.97
0.94
0.96
1.0
1.01
0.97
0.96
0.98
0.98
0.94
0.94
0.94
0.94
0.93
0.95
0.97
1.0
0.96
0.97
0.96
0.92
0.86
0.86
0.84
0.78
0.77
0.84
0.93
0.95
1.0
1.02
0.94
0.91
0.93
0.96
0.95
0.92
0.97
0.98
0.92
0.86
0.88
0.92
0.97
0.94
1.01
1.02
1.0
1.02
1.03
1.01
0.94
0.93
0.96
0.98
0.89
0.85
0.88
0.88
0.99
0.98
1.03
1.04
1.04
0.97
0.97
0.97
0.86
0.8
0.81
0.83
0.89
0.92
0.92
0.95
0.93
0.95
0.87
0.83
0.81
0.77
0.75
0.74
0.74
0.83
0.96
0.92
0.98
0.99
1.02
0.93
0.91
0.88
0.88
0.88
0.84
0.88
0.91
0.94
0.88
0.81
0.81
0.93
1.05
0.98
0.93
0.96
0.99
0.96
0.9
0.85
0.84
0.88
0.95
1.02
1.01
0.94
0.89
0.88
0.86
0.81
0.78
0.77
0.83
0.87
0.89
1.02
1.02
0.99
0.91
0.87
0.87
0.86
0.9
0.89
0.85
0.95
1.0
1.0
0.96
0.99
0.99
0.98
0.91
0.91
0.93
0.94
0.97
0.91
0.97
0.96
0.96
0.87
0.84
0.82
0.81
0.79
0.78
0.83
0.89
0.93
0.82
0.81
0.77
0.73
0.71
0.72
0.7
0.7
0.7
0.63
0.64
0.8
0.7
0.68
0.68
0.7
0.64
0.65
0.84
0.74
0.78
0.83
0.78
0.84
0.81
0.79
0.79
0.91
0.95
0.98
0.98
0.98
0.94
0.86
0.9
0.95
1.0
1.01
0.97
0.99
1.01
0.98
0.92
0.86
0.93
1.01
1.07
1.0
0.97
0.96
0.95
0.91
1.01
1.07
1.07
1.05
1.05
1.05
1.01
0.96
0.99
1.0
0.96
0.94
0.98
1.01
1.01
0.97
1.01
1.01
0.96
0.86
0.86
0.86
0.94
0.98
0.99
1.12
1.13
1.08
1.07
1.05
1.03
0.97
0.91
0.92
0.95
0.94
0.92
0.92
0.96
0.99
1.02
1.0
1.01
1.0
0.95
0.9
0.92
0.93
0.9
0.87
0.89
0.92
0.85
0.82
0.85
0.85
0.87
0.95
0.99
0.93
0.88
0.88
0.88
0.89
0.88
0.95
0.98
0.97
0.94
0.98
0.97
0.93
0.91
0.95
0.99
0.94
0.95
0.95
0.97
0.92
0.94
0.95
0.93
0.91
1.0
1.04
1.02
1.0
1.03
1.04
0.96
0.93
0.92
0.92
0.89
0.87
0.88
0.92
0.94
0.92
0.98
1.0
0.94
0.92
0.94
0.96
0.92
0.92
0.96
0.94
0.9
0.92
0.96
1.01
0.95
0.96
1.0
1.03
1.0
0.99
1.0
1.01
1.0
0.9
0.87
0.9
1.04
1.06
1.03
1.08
1.06
1.05
1.01
1.0
0.99
0.97
0.94
0.9
0.89
0.9
0.87
0.85
0.9
0.91
0.8
0.8
0.84
0.86
0.89
0.94
0.94
0.86
0.87
0.85
0.84
0.83
0.87
0.9
0.92
0.88
0.91
0.94
0.98
0.92
0.91
0.84
0.81
0.76
0.79
0.78
0.76
0.75
0.74
0.77
0.79
0.81
0.78
0.76
0.76
0.82
0.94
0.92
0.92
0.97
1.01
1.01
0.98
0.93
0.97
1.04
1.06
1.05
0.95
0.91
0.88
0.83
0.77
0.77
0.8
0.84
0.85
0.92
0.98
0.94
0.86
0.91
0.98
0.98
0.91
0.9
0.9
0.89
0.85
0.85
0.81
0.77
0.78
0.88
0.86
0.92
0.96
0.96
0.89
0.9
0.93
0.97
0.93
0.98
0.99
1.0
0.97
0.95
0.97
0.95
0.91
0.87
0.84
0.87
0.88
0.86
0.91
0.93
0.92
0.88
0.94
0.97
0.96
0.95
0.96
0.96
0.9
0.91
0.87
0.82
0.77
0.75
0.78
0.86
0.86
0.96
1.03
1.04
0.97
0.99
0.95
0.95
0.87
0.87
0.88
0.9
0.89
0.88
0.95
1.0
1.04
0.95
0.98
1.01
0.99
0.96
0.99
1.01
0.95
0.95
0.97
0.97
0.9
0.83
0.83
0.85
0.9
0.9
0.92
1.05
1.09
1.03
1.04
1.01
0.97
0.91
0.9
0.91
0.98
0.95
0.88
0.96
1.0
1.0
0.92
0.87
0.87
0.9
0.87
0.86
0.91
0.97
0.98
0.86
0.87
0.8
0.78
0.76
0.83
0.88
0.9
0.97
1.02
0.91
0.85
0.82
0.82
0.87
0.85
0.94
0.98
0.98
0.89
0.87
0.84
0.83
0.77
0.81
0.79
0.79
0.83
0.8
0.85
0.89
0.92
0.89
0.87
0.87
0.88
0.89
0.84
0.87
0.88
0.91
0.91
0.93
0.98
1.01
0.98
0.99
0.98
0.97
0.94
0.97
1.0
1.02
0.96
0.96
1.0
0.98
0.93
0.9
0.82
0.77
0.78
0.83
0.86
0.83
0.94
1.03
1.03
0.93
0.92
0.92
0.96
0.94
1.0
1.04
1.04
0.99
0.97
0.97
0.93
0.9
0.96
1.03
1.03
1.01
1.0
1.0
1.01
0.98
1.0
1.01
0.99
0.96
0.96
0.96
0.96
0.93
0.93
0.93
0.94
0.89
0.9
0.93
0.89
0.83
0.84
0.81
0.79
0.77
0.81
0.86
0.87
0.9
0.92
0.92
0.87
0.85
0.87
0.89
0.88
0.92
0.97
0.97
0.91
0.96
0.98
0.94
0.88
0.9
0.91
0.88
0.92
0.98
0.97
0.92
0.94
0.98
0.96
0.98
0.99
0.97
0.89
0.86
0.87
0.94
0.97
0.93
0.96
0.93
0.94
0.88
0.92
0.94
0.93
0.91
0.96
0.95
0.93
0.9
0.93
0.97
0.97
0.93
0.97
0.97
0.96
0.87
0.88
0.89
0.92
0.89
0.92
1.01
1.05
1.02
1.01
1.02
0.97
0.93
0.93
0.96
0.97
0.93
0.96
0.97
0.94
0.9
0.89
0.89
0.93
0.93
0.97
1.08
1.09
1.04
0.95
0.96
0.98
0.99
0.97
1.0
1.01
1.01
0.98
0.99
1.0
0.99
1.01
1.02
1.01
0.97
0.97
0.97
0.96
0.94
0.96
0.97
0.99
0.95
0.96
0.96
0.97
0.93
0.91
0.93
0.93
0.91
0.88
0.93
0.98
1.03
1.01
1.06
1.04
1.03
0.98
0.98
0.98
0.94
0.94
0.9
0.88
0.82
0.82
0.86
0.82
0.79
0.93
1.09
1.04
1.12
1.13
1.11
0.99
0.96
0.92
0.89
0.84
0.88
1.03
1.07
1.0
0.99
1.01
1.04
1.03
0.96
0.98
0.99
0.99
0.97
1.0
1.02
1.03
1.0
1.01
1.03
1.02
1.0
1.01
1.01
0.99
0.98
0.96
0.96
0.95
1.05
1.09
1.07
1.08
1.06
1.04
1.03
1.04
1.05
1.02
0.99
0.97
0.89
0.82
0.89
1.03
1.1
1.05
1.1
1.11
1.08
1.07
1.05
1.02
1.01
1.0
0.96
0.95
0.94
0.94
0.98
0.98
1.03
1.05
1.07
1.03
1.05
1.04
1.01
0.96
0.98
0.99
1.02
0.99
1.02
1.07
1.08
1.03
1.01
1.0
0.99
0.97
1.0
1.02
1.05
1.01
1.01
1.02
1.03
1.0
1.02
1.04
1.05
1.05
1.04
1.03
0.98
0.99
1.0
1.0
0.97
1.01
1.01
1.03
0.99
0.99
1.01
0.99
0.95
0.88
0.89
0.91
1.1
1.07
1.11
1.13
1.09
1.07
1.07
1.03
0.98
0.98
0.98
0.97
0.94
0.94
0.95
0.93
0.9
0.93
0.96
1.0
1.0
0.96
1.01
1.02
1.01
1.05
1.11
1.11
1.05
1.05
1.02
0.99
0.97
1.0
1.04
1.03
0.98
1.0
1.03
1.03
1.0
1.02
1.01
1.02
1.07
1.16
1.13
1.14
1.13
1.13
1.06
1.05
1.02
0.96
0.91
0.94
0.96
0.93
0.92
0.95
0.98
0.98
0.88
0.88
1.01
1.16
1.1
1.07
1.15
1.12
1.1
1.09
1.06
0.99
1.0
1.01
1.01
0.96
0.95
1.01
1.03
1.04
0.99
1.04
1.09
1.09
1.03
1.08
1.12
1.06
1.04
1.03
1.04
1.01
0.99
1.03
1.02
1.01
1.02
1.0
1.0
0.94
0.96
0.96
0.99
0.96
1.01
1.03
1.04
1.01
1.04
1.03
1.02
0.98
0.97
1.04
1.08
1.06
1.03
1.03
1.06
1.05
0.99
0.94
0.92
0.96
0.96
1.03
1.06
1.02
0.97
1.02
1.04
1.0
0.97
0.98
1.05
1.02
1.05
1.09
1.05
0.99
0.97
0.96
0.91
0.95
0.98
1.0
0.96
0.96
1.01
1.05
1.0
0.99
1.03
1.06
1.04
1.07
1.04
1.01
0.97
0.97
0.97
0.99
0.96
0.97
0.98
0.96
1.0
0.98
0.95
0.96
0.97
0.94
1.06
1.07
1.03
1.03
1.06
1.05
1.0
1.05
0.99
0.96
0.91
0.98
1.05
1.06
1.01
1.03
1.05
0.98
0.98
0.99
0.92
0.86
0.89
0.95
0.97
1.0
1.1
1.11
1.06
0.98
0.98
0.98
1.02
0.98
1.04
1.06
1.01
1.0
1.01
1.0
0.94
0.97
1.02
1.03
0.98
1.01
1.05
1.03
1.01
1.05
1.07
1.07
0.96
0.96
0.95
0.93
1.03
1.12
1.11
1.05
1.05
1.08
1.07
1.02
0.98
0.94
0.95
1.0
1.06
1.02
1.07
1.04
0.99
1.01
1.05
0.99
1.0
1.01
1.02
0.93
0.93
0.96
1.02
1.03
1.08
1.11
1.08
1.06
1.08
1.11
1.06
1.04
1.05
1.02
0.97
0.95
0.96
0.98
0.92
0.97
1.01
1.03
1.0
0.94
1.01
1.08
1.07
1.0
1.04
0.97
1.0
0.96
0.93
0.96
1.02
1.01
1.07
1.08
1.04
1.02
1.04
1.04
1.0
0.95
0.88
0.87
0.95
1.03
1.02
1.02
1.06
1.06
1.01
1.02
1.03
0.96
0.92
0.95
1.0
0.97
1.0
1.05
1.07
1.02
0.94
0.94
1.0
0.98
0.94
0.92
1.02
1.03
0.89
0.82
0.8
0.79
0.83
0.84
0.92
0.93
0.86
0.99
1.03
0.97
0.99
1.0
0.97
0.92
0.98
0.99
0.94
0.86
0.84
0.88
0.93
0.96
0.96
0.96
1.0
1.01
0.92
0.87
0.82
0.79
0.76
0.78
0.77
0.76
0.77
0.75
0.75
0.74
0.78
0.79
0.75
0.76
0.78
0.79
0.82
0.79
0.78
0.76
0.77
0.79
0.77
0.83
0.88
0.94
0.94
0.95
1.0
1.02
0.96
0.98
1.02
1.05
1.03
0.99
1.0
0.96
0.86
0.84
0.88
0.95
1.03
1.01
1.09
1.14
1.14
1.02
1.05
1.08
1.09
1.06
1.08
1.07
1.04
1.07
1.03
1.01
0.96
0.99
0.97
0.95
0.96
1.03
1.01
0.94
0.95
0.96
1.01
0.99
1.03
1.1
1.13
1.07
1.05
1.06
1.08
1.03
1.07
1.12
1.1
1.02
1.03
1.01
1.02
1.02
1.12
1.13
1.11
1.07
1.03
0.96
0.94
1.0
1.05
1.06
0.99
0.97
1.0
1.04
1.16
1.2
1.21
1.13
1.13
1.07
1.0
0.97
0.96
0.95
0.92
0.91
0.98
0.99
1.05
1.16
1.11
1.0
1.01
1.08
1.13
1.1
1.16
1.16
1.12
1.08
1.09
1.09
1.07
1.01
0.99
0.97
0.94
0.9
0.88
0.89
1.0
1.08
1.07
0.99
0.95
0.84
0.8
0.82
0.87
0.94
0.92
0.92
0.85
0.8
0.79
0.75
0.76
0.75
0.75
0.81
0.82
0.87
0.96
0.95
0.96
0.9
0.93
0.98
1.01
1.0
0.98
1.04
1.08
1.04
0.96
0.88
0.94
1.13
1.22
1.11
1.11
1.07
1.04
1.03
1.1
1.13
1.06
1.07
1.08
1.06
1.03
1.04
1.02
1.02
0.99
1.01
1.08
1.08
1.08
1.06
1.0
0.95
1.04
1.09
1.05
1.03
0.98
0.97
0.95
1.0
1.01
1.0
0.94
1.0
1.1
1.1
0.97
0.93
0.96
1.03
1.03
1.19
1.18
1.16
1.12
1.11
1.08
1.07
1.02
1.04
1.07
1.03
0.98
0.99
0.99
1.01
0.98
1.01
1.0
1.01
1.01
1.09
1.12
1.11
1.04
1.05
1.06
1.04
0.99
0.94
0.99
1.0
0.96
0.98
1.0
0.94
0.85
0.79
0.77
0.75
0.75
0.91
0.83
0.92
1.0
1.01
0.88
0.83
0.81
0.82
0.77
0.76
0.75
0.75
0.75
0.75
0.76
0.79
0.81
0.81
0.79
0.8
0.82
0.85
0.88
0.81
0.82
0.79
0.78
0.83
0.84
0.84
0.84
0.9
0.92
0.89
0.86
0.91
0.95
1.0
0.96
0.94
0.97
0.94
0.92
0.87
0.94
0.96
0.99
0.98
1.06
1.07
0.99
0.93
0.93
1.03
1.07
1.03
1.05
1.03
1.03
0.95
0.9
0.94
1.05
1.06
0.95
0.99
1.06
1.1
1.07
1.09
1.11
1.05
0.96
0.92
0.91
0.95
0.99
1.01
1.1
1.11
1.09
1.04
1.01
1.0
0.94
0.91
0.91
0.98
1.01
1.07
1.07
1.01
0.97
1.0
1.05
1.07
0.98
1.0
1.07
1.07
1.09
1.09
1.05
1.04
1.02
0.97
0.92
0.98
1.06
1.1
1.08
1.1
1.08
1.06
1.09
1.1
1.06
1.03
1.04
0.99
0.93
0.86
0.9
0.99
1.06
1.04
1.11
1.1
1.1
1.03
0.98
0.99
0.97
0.92
0.85
0.87
0.97
1.1
1.09
1.13
1.14
1.1
1.07
1.06
1.03
0.98
0.87
0.89
0.84
0.84
0.83
0.88
1.06
1.2
1.21
1.24
1.21
1.15
1.12
1.06
1.07
1.09
1.09
1.02
0.97
0.98
1.01
0.96
1.04
1.06
1.0
0.96
1.01
1.05
1.01
1.02
1.03
1.05
0.98
1.04
1.1
1.09
1.1
1.06
0.98
0.91
0.93
1.02
1.09
1.04
1.11
1.09
1.07
1.06
1.12
1.15
1.1
1.07
1.05
1.0
0.92
0.93
0.94
0.92
0.97
1.0
1.0
0.98
0.96
1.01
1.04
1.03
1.05
1.07
1.06
1.04
1.06
1.0
0.97
1.01
0.97
0.91
0.87
0.94
1.1
1.11
1.15
1.14
1.11
1.07
1.04
0.99
0.9
0.9
0.92
1.01
1.02
1.06
1.1
1.08
1.02
1.03
1.05
1.04
0.98
0.96
0.98
1.03
1.0
1.03
1.06
1.05
0.97
0.93
0.94
0.94
0.93
0.98
1.04
1.09
1.05
1.11
1.12
1.09
1.01
0.98
0.96
1.0
1.0
1.07
1.12
1.09
1.04
1.04
1.05
1.02
1.0
1.02
1.04
1.03
1.06
1.09
1.1
1.07
1.06
1.04
1.02
0.99
0.97
0.94
0.91
0.96
1.03
1.05
1.03
1.05
1.08
0.98
0.96
0.95
0.95
0.92
0.92
0.96
1.08
1.04
1.06
1.07
1.03
1.03
1.05
1.03
1.0
1.02
1.03
0.97
0.92
0.96
1.02
0.99
0.95
0.97
0.99
0.98
0.97
1.02
1.04
1.02
0.99
0.98
0.99
0.98
0.94
0.96
0.95
0.96
0.93
0.91
0.95
0.95
0.93
0.99
1.02
1.02
1.02
1.08
1.09
1.04
1.05
1.05
1.05
1.03
1.02
1.05
1.04
0.94
0.94
0.97
1.0
1.0
1.02
1.02
1.01
0.96
0.97
0.95
0.93
0.94
0.98
0.94
0.92
0.98
1.05
1.03
0.98
1.04
1.06
1.04
1.02
1.03
1.01
0.96
1.0
1.0
0.99
0.9
0.91
0.97
0.99
0.96
0.99
1.03
1.05
1.02
1.06
1.05
1.04
0.99
1.02
0.97
0.91
0.89
0.91
0.96
0.97
0.94
0.95
1.0
1.01
0.97
0.98
0.99
0.99
0.95
0.94
0.95
0.96
1.01
1.03
1.06
0.97
0.99
0.99
0.99
0.98
0.99
1.04
1.07
1.02
1.06
1.06
1.06
1.0
1.01
1.02
1.01
0.97
1.01
1.05
1.02
0.98
0.98
0.98
0.97
0.97
1.0
1.01
0.97
1.02
1.05
1.03
1.03
1.01
0.96
0.94
0.96
1.0
0.99
0.99
1.03
1.02
0.95
0.95
0.98
0.99
0.95
0.98
1.02
0.99
0.95
0.97
0.98
0.93
0.96
0.97
0.96
0.95
1.01
1.0
0.97
0.95
0.91
0.9
0.84
0.81
0.88
0.95
0.95
1.07
1.17
1.12
1.1
1.12
1.1
1.09
1.04
1.01
0.97
0.99
1.04
1.07
0.98
1.0
1.02
1.04
1.01
1.04
1.04
1.03
1.02
1.06
1.05
1.05
1.08
1.06
0.99
0.97
0.99
0.96
0.94
1.0
1.01
0.98
0.99
1.03
1.02
1.04
1.05
1.01
0.95
0.98
1.04
0.98
1.0
0.99
0.99
0.97
0.99
1.01
0.96
0.91
0.92
0.93
0.94
0.88
0.88
0.99
1.17
1.13
1.17
1.16
1.1
1.07
1.06
0.99
0.93
0.91
0.94
0.92
0.96
1.0
1.0
0.97
0.97
0.99
0.96
1.02
1.02
1.02
1.0
1.02
0.99
0.96
0.89
0.91
0.94
0.94
0.94
1.02
1.04
1.0
1.02
1.0
1.0
1.01
1.05
1.07
1.01
0.95
0.93
0.92
0.88
0.84
0.9
0.98
1.0
1.11
1.19
1.21
1.14
1.15
1.11
1.04
1.01
1.0
0.97
0.95
1.0
0.98
0.98
0.98
1.01
0.97
0.96
1.0
1.07
0.98
0.96
0.99
1.03
1.01
1.05
1.06
1.02
1.01
1.05
1.06
0.99
0.99
0.97
0.96
0.99
1.0
1.09
1.1
1.05
1.02
1.06
1.04
1.01
1.0
0.99
0.97
1.0
0.99
0.98
1.01
0.97
0.97
0.98
0.96
0.93
0.96
1.0
1.0
1.03
1.06
1.03
0.98
0.99
0.97
0.96
1.0
0.98
0.97
1.01
1.04
0.99
1.01
1.03
1.03
1.0
0.99
1.0
1.01
0.99
1.01
1.06
1.08
1.04
1.05
1.06
1.02
1.02
1.01
1.04
1.02
0.98
1.01
1.03
0.96
0.95
0.94
0.94
0.92
0.95
1.01
0.99
0.95
0.97
0.99
0.96
0.94
0.93
0.96
0.95
0.94
1.0
1.04
1.06
0.98
0.99
0.99
0.99
0.97
0.99
0.98
0.96
0.98
1.01
1.02
0.97
0.98
1.0
0.98
1.0
1.0
1.03
1.0
1.03
1.03
1.01
0.98
0.99
0.98
0.98
0.95
1.0
1.01
0.98
0.98
1.04
1.02
0.99
1.05
1.07
1.03
1.03
1.03
1.03
0.96
0.97
1.0
0.99
0.97
0.99
1.0
1.04
0.99
1.02
0.98
0.93
0.88
0.89
0.93
0.93
0.94
1.0
0.98
0.92
0.92
0.92
0.95
0.93
0.97
0.98
0.96
0.91
0.94
0.97
0.93
0.88
0.89
0.95
0.94
0.99
1.02
1.03
0.99
1.0
1.01
0.95
0.95
0.95
0.96
0.93
0.99
1.05
1.02
1.0
1.01
1.01
0.95
0.92
0.98
1.05
0.97
0.98
0.99
0.99
0.94
0.98
1.03
1.01
1.05
1.06
1.02
0.97
0.96
0.95
0.9
0.94
0.99
1.02
1.01
1.07
1.07
1.03
1.06
1.05
1.0
0.99
1.01
1.01
0.97
0.98
1.01
1.05
0.99
1.02
1.05
1.04
0.98
0.96
0.94
0.96
0.94
0.97
1.0
0.97
0.95
0.97
0.99
0.96
0.96
0.98
0.97
0.97
1.02
1.02
0.95
0.97
0.97
1.0
0.99
0.99
1.02
1.03
0.99
0.99
1.0
0.98
0.96
0.98
1.0
0.98
0.99
0.98
0.98
0.97
1.0
0.94
0.9
0.89
0.93
0.94
0.96
1.0
0.98
0.96
1.0
1.01
0.95
0.9
0.94
0.95
0.91
0.95
0.95
0.93
0.96
0.95
0.98
0.94
0.95
0.97
0.95
0.94
0.97
0.96
0.95
0.97
0.97
0.99
0.94
0.95
0.95
0.93
0.93
0.96
0.97
0.95
0.95
0.98
1.01
0.99
0.97
1.01
1.01
0.99
0.98
0.98
0.99
0.95
0.96
0.97
0.96
0.97
1.05
1.07
1.02
0.99
1.03
1.02
0.98
0.96
0.98
1.0
1.0
0.96
1.01
1.0
0.99
0.95
0.98
1.0
0.97
0.98
1.0
1.0
0.98
0.99
1.02
1.02
1.0
1.04
1.02
1.01
0.97
1.03
1.02
0.98
0.97
0.97
0.96
0.94
0.9
0.94
0.99
1.0
1.03
1.05
1.05
1.0
0.97
1.0
0.99
0.95
0.95
0.97
0.97
0.96
0.95
0.97
0.98
0.93
0.92
0.94
0.95
0.98
1.01
1.02
0.98
1.0
0.99
0.94
0.95
0.96
0.95
0.92
0.94
0.95
0.97
0.98
1.0
1.03
1.05
1.0
0.96
0.97
0.95
0.95
0.94
0.97
1.01
0.96
0.97
0.97
0.99
0.98
0.98
1.01
0.99
0.96
0.92
0.93
0.95
0.93
0.95
0.98
0.98
0.97
0.98
0.98
1.0
0.95
0.99
1.0
0.95
0.94
0.95
0.97
0.96
1.01
1.02
1.01
0.98
1.01
1.02
0.99
1.02
1.05
1.04
1.0
0.99
1.01
0.98
0.94
0.96
0.96
0.97
1.02
1.01
1.0
1.06
1.02
0.97
0.97
0.96
0.92
0.95
0.96
0.95
0.93
0.93
0.98
0.98
0.95
0.96
0.99
1.0
0.94
0.99
0.98
1.01
0.98
0.99
0.98
0.96
0.9
0.96
0.94
0.95
0.98
1.03
1.0
0.97
1.0
1.0
0.98
0.94
0.96
1.0
0.95
0.93
0.98
1.0
0.99
0.96
0.98
1.0
0.97
0.99
1.02
0.98
0.95
0.97
0.99
0.96
1.04
1.05
1.07
1.02
1.02
1.02
0.98
0.95
0.97
0.98
0.94
0.96
0.97
0.99
0.97
1.01
1.03
1.03
1.01
1.0
1.02
0.95
0.92
0.91
0.92
0.92
0.91
0.98
1.0
1.0
1.04
1.01
0.98
0.97
1.01
1.01
0.98
0.98
1.01
1.0
0.94
0.95
0.98
0.99
0.95
0.97
0.96
0.99
0.94
0.94
0.97
0.95
0.91
0.92
0.95
0.99
0.98
0.97
0.99
1.01
1.0
1.02
1.0
0.96
0.97
0.95
0.94
0.96
0.98
1.0
0.99
1.03
1.0
0.98
0.97
0.96
0.97
0.97
1.0
1.0
0.97
0.97
0.97
0.94
0.95
0.99
0.98
0.94
0.97
1.01
1.0
0.98
1.01
1.04
0.97
0.96
0.96
0.96
0.94
0.98
1.0
0.97
0.96
1.0
1.01
0.99
0.95
0.96
0.99
0.97
0.97
0.98
0.99
0.95
0.96
0.96
0.95
0.92
0.98
1.03
1.01
1.03
1.07
0.99
0.94
0.95
0.95
1.0
0.99
1.0
1.02
1.01
0.96
0.95
0.94
0.94
0.92
0.96
0.95
0.93
0.95
0.99
0.95
0.95
0.97
1.0
0.98
1.0
0.98
0.96
0.99
0.99
0.96
0.93
0.96
0.98
0.97
0.93
0.95
0.97
0.98
0.93
0.95
0.98
0.97
0.96
0.96
0.96
0.94
0.94
0.94
0.93
0.96
1.01
1.01
0.96
0.97
0.99
1.0
0.96
0.97
0.96
0.94
0.91
0.92
0.95
0.95
0.92
0.9
0.94
0.98
0.98
1.0
1.0
0.96
0.95
0.93
0.92
0.93
0.98
1.01
0.96
0.96
0.97
0.98
0.95
0.98
0.99
0.99
0.97
0.98
1.05
1.02
0.98
0.99
0.99
0.95
0.97
0.99
0.98
0.97
0.96
0.94
0.92
0.95
0.97
0.93
0.93
0.95
0.95
0.93
0.96
1.01
0.99
0.96
0.97
0.97
0.93
0.93
0.96
1.02
1.0
1.03
1.0
0.96
0.87
0.82
0.78
0.74
0.71
0.71
0.72
0.8
0.76
0.76
0.79
0.82
0.81
0.81
0.76
0.73
0.71
0.7
0.71
0.71
0.73
0.75
0.83
0.92
0.94
0.89
0.81
0.77
0.75
0.74
0.74
0.75
0.75
0.74
0.73
0.71
0.71
0.67
0.66
0.62
0.55
0.67
0.67
0.63
0.62
0.63
0.62
0.63
0.62
0.61
0.6
0.61
0.61
0.62
0.63
0.63
0.64
0.65
0.71
0.8
0.79
0.76
0.78
0.88
0.94
0.88
0.89
1.0
0.97
0.92
0.91
0.94
0.96
0.91
0.94
0.95
0.93
0.89
0.88
0.81
0.76
0.76
0.73
0.78
0.75
0.74
0.74
0.73
0.71
0.73
0.71
0.7
0.7
0.71
0.74
0.76
0.83
0.91
0.93
0.92
0.92
0.95
0.96
0.94
0.99
1.04
1.06
1.03
1.07
1.08
0.97
0.89
0.92
0.96
0.98
0.96
0.95
1.02
1.04
1.01
1.06
1.04
1.02
0.95
0.96
0.98
0.97
0.93
0.93
0.98
0.96
0.95
0.96
0.96
0.92
0.86
0.86
0.88
0.83
0.8
0.77
0.81
0.88
0.89
0.95
1.0
1.0
0.96
0.95
0.98
0.98
1.0
1.03
1.04
1.01
1.01
1.04
1.03
1.0
1.05
1.05
1.0
1.0
0.96
0.98
0.96
1.01
0.98
0.99
0.95
1.01
1.06
1.05
0.99
1.0
0.99
0.94
0.88
0.89
0.92
0.92
0.96
1.02
1.04
0.98
0.98
0.98
0.97
0.96
1.0
0.99
0.97
0.91
0.86
0.9
0.94
0.95
0.93
0.96
0.94
0.98
1.07
1.09
1.08
1.12
1.1
1.04
1.06
1.04
0.97
0.96
0.9
0.88
0.85
0.87
0.9
0.94
0.98
1.12
1.16
1.1
1.13
1.13
1.07
0.99
0.99
0.97
0.93
0.88
0.88
0.88
0.86
0.83
0.82
0.84
0.97
1.03
1.04
0.93
0.97
1.0
1.0
0.98
1.01
1.01
0.97
0.92
0.93
0.94
0.92
0.85
0.89
0.95
0.94
0.93
0.95
1.01
1.01
0.98
0.94
0.94
0.94
0.9
0.83
0.81
0.81
0.77
0.76
0.78
0.79
0.81
0.87
0.96
0.97
0.95
0.89
0.87
0.87
0.9
0.88
0.82
0.82
0.8
0.81
0.83
0.87
0.88
0.91
0.95
1.02
1.0
0.97
0.99
1.0
1.0
0.95
0.98
1.0
0.95
0.97
0.92
0.88
0.82
0.84
0.81
0.77
0.78
0.83
0.9
0.92
1.02
1.03
1.03
1.0
1.02
1.02
0.96
0.86
0.89
0.92
0.96
0.96
0.99
1.03
1.04
0.99
0.97
0.94
0.9
0.94
0.93
0.92
0.94
0.96
0.93
0.96
1.01
0.99
0.96
0.94
0.97
0.92
0.74
0.85
0.76
0.87
0.77
0.76
0.79
0.8
0.82
0.91
0.99
1.0
0.98
0.97
0.97
0.97
0.95
0.98
1.01
0.99
1.02
1.04
1.01
0.98
1.0
1.03
1.0
1.01
1.0
0.95
0.93
1.0
1.02
0.98
0.93
0.98
1.02
1.03
0.94
0.93
0.96
1.0
1.0
0.93
0.95
0.96
0.95
0.99
1.07
1.02
1.02
1.01
0.96
0.87
0.87
0.86
0.89
0.88
0.93
0.99
1.0
0.96
0.95
0.94
0.89
0.88
0.87
0.88
0.9
0.96
0.95
0.92
0.88
0.9
0.96
1.02
1.03
1.09
1.1
1.09
1.04
1.03
1.02
0.99
0.96
0.95
0.97
0.96
0.94
0.96
0.96
0.97
0.97
0.99
1.05
1.0
1.0
1.01
0.95
0.94
0.97
0.97
0.95
0.98
1.02
0.97
0.93
0.89
0.88
0.84
0.82
0.86
0.95
0.98
1.06
1.12
1.1
1.04
1.03
1.03
0.99
0.98
0.99
0.98
0.94
0.89
0.93
0.96
0.96
0.92
0.87
0.88
0.88
0.85
0.86
0.84
0.81
0.81
0.94
0.98
0.99
1.06
1.09
1.05
1.06
1.04
0.99
0.99
1.01
0.98
0.97
0.99
1.0
0.97
0.94
0.93
0.92
0.92
0.99
1.08
1.14
1.09
1.02
1.06
1.03
0.99
0.98
0.99
0.96
0.95
0.95
1.02
1.02
0.99
0.97
0.98
0.99
0.95
0.91
0.97
1.0
1.03
0.98
0.89
0.9
0.9
0.88
0.92
0.96
1.02
1.05
1.18
1.17
1.1
1.09
1.08
1.03
0.98
0.99
0.97
0.93
0.93
0.96
0.97
0.95
0.98
0.99
0.98
0.96
0.94
0.99
0.98
0.96
1.0
1.01
0.96
0.94
0.96
0.94
0.93
0.98
1.1
1.08
1.02
0.97
0.94
0.89
0.88
0.87
0.85
0.82
0.88
0.95
0.97
0.9
0.92
0.86
0.82
0.86
0.94
1.06
1.13
1.11
1.08
1.07
1.05
1.01
1.02
1.03
1.02
0.98
1.01
1.01
0.98
1.0
1.02
1.0
0.99
1.01
1.0
0.94
0.88
0.94
1.0
1.01
1.01
1.06
1.05
0.99
1.05
1.04
1.05
0.98
1.0
1.05
1.04
0.98
0.95
0.94
0.93
0.9
0.91
0.95
0.97
0.97
0.98
1.03
1.0
0.99
1.02
1.01
0.97
0.94
0.96
0.96
0.98
0.98
0.95
0.88
0.92
0.95
1.0
0.96
0.99
1.04
1.02
1.01
1.03
1.02
0.97
0.96
0.95
0.94
0.89
0.92
1.0
1.01
0.99
1.0
1.01
0.95
0.97
0.97
0.91
0.87
0.86
0.85
0.82
0.81
0.87
0.85
0.81
0.87
0.94
1.02
1.15
1.17
1.08
1.08
1.07
1.03
1.05
1.07
1.01
1.01
1.03
1.07
1.03
1.06
1.09
1.01
0.94
0.89
0.93
1.0
1.03
1.13
1.16
1.14
1.14
1.12
1.05
1.06
1.05
1.03
1.02
1.03
1.01
0.98
0.96
1.0
1.01
0.99
1.02
1.01
0.96
0.87
0.88
0.95
1.09
1.17
1.17
1.23
1.23
1.12
1.1
1.06
1.0
1.01
1.01
0.99
0.96
1.01
1.04
1.02
1.0
1.01
1.03
1.04
1.01
1.05
1.04
1.02
0.98
1.01
1.03
1.0
0.97
0.99
1.02
0.95
0.91
0.91
0.89
0.84
0.83
0.88
0.91
1.01
1.19
1.16
1.08
1.11
1.08
1.02
1.02
1.02
1.0
0.94
0.96
0.99
0.99
0.95
0.95
0.94
0.91
0.9
0.9
0.89
0.86
0.89
1.02
1.09
1.11
1.24
1.21
1.14
1.06
1.01
0.89
0.86
0.85
0.79
0.78
0.82
0.93
1.18
1.27
1.2
1.17
1.18
1.13
1.07
1.08
1.06
1.06
0.99
1.01
1.02
1.0
0.96
0.99
1.03
1.0
1.06
1.03
0.97
0.87
0.87
0.96
1.05
1.09
1.18
1.24
1.18
1.21
1.17
1.08
1.08
1.05
1.01
0.92
0.95
0.97
0.98
0.95
0.98
0.99
0.95
1.01
1.01
1.0
0.96
0.99
1.01
0.94
0.93
0.98
1.0
0.95
1.01
1.06
1.0
0.96
0.93
0.95
0.96
0.92
0.9
0.88
0.81
0.79
0.82
0.91
1.03
1.15
1.14
1.04
0.91
0.9
0.94
1.02
0.99
1.1
1.14
1.07
1.03
1.06
1.02
0.96
0.93
0.9
0.9
0.9
0.95
0.98
1.0
1.1
1.21
1.19
1.12
1.14
1.13
1.07
1.02
0.98
0.91
0.85
0.9
0.95
0.95
0.9
0.98
1.08
1.08
1.15
1.19
1.14
1.09
1.1
1.09
1.05
1.02
1.03
0.98
1.02
1.03
1.02
0.97
0.95
0.99
1.0
0.98
0.99
1.01
1.0
0.95
0.93
0.95
0.92
0.84
0.83
0.85
0.81
0.79
0.77
0.79
0.95
1.03
1.2
1.2
1.11
1.14
1.15
1.11
1.06
1.07
1.03
1.0
1.03
1.02
0.96
0.98
1.02
1.05
1.02
0.99
1.05
1.1
1.05
0.97
0.99
0.99
0.95
0.95
0.99
0.97
0.96
0.97
0.96
0.91
0.92
0.95
0.93
0.98
1.04
1.04
0.98
1.01
1.01
0.96
0.91
0.88
0.85
0.84
0.97
1.15
1.15
1.09
1.09
1.06
0.95
0.96
1.05
1.11
1.12
1.03
1.03
1.1
1.08
1.0
1.0
1.02
0.95
0.92
0.94
1.02
1.12
1.08
1.06
1.12
1.09
1.05
1.06
1.05
0.98
0.96
0.97
0.99
0.96
0.98
1.02
1.04
1.0
0.96
0.99
1.01
0.97
0.93
0.94
0.96
0.97
0.96
0.99
1.04
1.01
0.97
1.0
1.02
0.96
0.92
0.92
0.95
0.94
0.91
0.9
0.88
0.84
0.92
1.06
1.09
1.09
1.13
1.07
1.07
1.12
1.12
1.03
1.04
1.03
1.0
0.99
1.03
1.03
0.98
1.0
1.05
1.03
1.02
1.04
1.02
0.99
0.98
0.99
0.98
0.96
0.99
0.99
0.97
0.95
0.93
0.93
0.92
0.92
0.98
1.05
1.06
1.09
1.09
1.03
1.01
1.03
1.0
1.03
1.08
1.07
1.01
0.98
0.95
0.95
0.94
0.99
1.04
1.03
0.97
0.94
0.93
0.89
0.97
1.08
1.07
1.04
1.07
1.03
0.98
1.0
1.08
1.1
1.09
1.1
1.16
1.09
1.06
1.07
1.02
1.0
1.02
1.03
0.99
0.93
0.93
0.99
0.98
1.02
1.07
1.06
0.99
1.03
1.03
0.98
0.95
0.92
0.88
0.86
0.9
1.06
1.1
1.07
1.06
1.01
0.94
0.9
0.96
1.03
0.99
1.01
1.07
1.05
0.98
0.96
0.96
0.9
0.91
0.98
1.04
1.03
1.04
1.06
1.05
0.97
0.96
1.01
1.03
0.99
0.96
1.0
1.0
0.93
0.95
0.97
0.94
0.91
0.91
0.94
0.94
0.94
0.94
0.94
0.88
0.89
1.05
1.12
1.05
1.09
1.11
1.04
1.05
1.07
1.01
0.98
1.03
1.03
0.99
0.95
0.99
1.04
1.02
0.98
0.95
0.94
0.91
0.92
1.01
1.05
1.06
1.01
1.04
1.06
1.05
0.99
0.97
0.95
0.98
0.96
0.97
0.96
0.94
0.89
0.85
0.87
0.92
0.97
1.11
1.2
1.14
1.09
1.14
1.09
1.02
1.03
1.02
0.96
0.91
0.95
0.96
0.91
0.91
0.93
0.99
0.95
0.98
1.03
1.02
0.99
0.93
0.95
0.96
0.98
0.94
1.0
1.07
1.04
0.99
0.95
0.96
1.01
0.96
0.97
1.03
1.04
0.97
0.97
1.0
0.98
0.91
0.92
0.94
0.95
0.96
0.99
0.99
0.95
1.0
1.03
0.97
0.97
0.97
0.96
0.92
0.96
1.01
0.97
0.97
1.02
1.05
0.96
0.99
0.99
0.95
0.9
0.92
0.89
0.85
0.79
0.79
0.94
0.89
0.96
1.16
1.17
1.09
1.09
1.09
1.03
0.97
0.97
0.99
0.95
0.95
1.0
1.0
0.98
0.95
0.95
0.92
0.86
0.9
0.92
0.95
0.93
1.01
1.06
1.03
0.96
0.97
0.98
1.0
0.98
0.91
0.97
1.02
0.99
1.0
1.05
1.06
1.02
1.05
1.08
1.03
0.97
0.97
0.99
0.94
0.97
1.0
0.96
0.93
0.99
1.0
0.98
0.99
1.02
1.04
0.95
0.97
0.97
0.98
0.9
0.92
0.98
0.96
0.93
1.01
1.04
0.98
0.96
1.0
0.99
0.94
1.0
1.0
0.94
0.96
0.99
0.93
0.88
0.89
0.91
0.89
0.91
0.97
0.96
0.93
0.91
0.98
0.97
0.89
0.9
0.94
0.98
0.93
0.96
1.01
1.01
0.94
0.9
0.91
0.91
0.88
0.95
1.01
0.99
0.95
0.98
1.06
1.07
1.01
1.02
1.0
0.95
0.92
0.98
0.97
0.91
0.94
0.99
1.0
0.94
0.94
1.01
1.01
0.94
0.96
0.98
1.0
0.92
0.91
0.95
0.96
0.91
0.88
0.91
0.97
1.0
0.94
0.96
1.0
0.98
0.92
0.9
0.92
0.9
0.86
0.86
0.91
0.94
0.94
0.94
0.96
1.02
0.99
0.95
0.9
0.93
0.96
0.93
0.97
1.06
1.06
1.0
1.0
1.02
0.99
0.94
0.98
1.0
0.95
0.99
1.03
1.0
0.93
0.93
0.95
0.96
0.91
0.94
0.97
0.98
0.91
0.9
0.94
0.96
0.95
0.91
0.98
1.01
0.99
0.96
0.98
1.01
0.97
0.93
0.92
0.99
0.99
0.93
0.94
0.97
1.0
0.95
0.94
0.94
0.95
0.91
0.94
1.01
1.0
0.96
1.0
1.01
0.96
0.92
0.97
1.0
0.96
0.93
0.94
0.97
0.93
0.95
0.97
0.99
0.95
0.96
0.99
1.0
0.95
0.93
0.97
0.95
0.91
0.95
0.99
0.98
0.94
0.94
0.98
0.98
0.93
0.94
0.99
1.0
0.93
0.95
0.98
0.98
0.94
0.9
0.94
0.97
0.92
0.92
0.95
0.96
0.93
0.94
0.96
0.97
0.93
0.94
0.98
0.99
0.96
1.03
1.04
0.99
0.99
1.06
1.02
0.96
0.95
0.95
0.89
0.92
0.95
0.94
0.97
0.99
0.98
1.03
1.0
0.93
0.92
0.94
0.94
0.92
0.95
0.98
0.95
0.94
0.98
0.98
0.94
0.96
0.97
0.94
0.92
0.96
1.0
0.97
0.99
1.02
0.99
1.0
0.99
0.98
0.92
0.91
0.94
0.98
0.95
0.96
1.02
1.06
1.02
1.01
1.04
1.02
0.97
0.94
0.98
0.98
0.96
0.91
0.93
0.95
0.97
0.96
0.97
1.0
0.97
0.92
0.96
0.99
0.98
0.93
0.96
0.98
0.94
0.91
0.95
0.95
0.9
0.9
0.95
0.97
0.91
0.92
0.95
0.95
0.93
0.93
0.97
0.99
0.95
0.95
0.99
0.99
0.94
0.96
1.01
0.98
0.97
1.02
1.02
0.95
0.98
0.99
0.93
0.91
0.96
0.95
0.91
0.89
0.94
0.94
0.92
0.99
0.97
0.95
0.92
0.97
0.97
0.94
0.88
0.92
0.95
0.92
0.88
0.93
0.94
0.89
0.89
0.94
0.96
0.93
0.92
0.94
0.94
0.9
0.89
0.96
0.99
0.95
0.93
0.99
0.98
0.91
0.89
0.95
0.94
0.93
0.9
0.94
1.02
1.0
0.93
0.93
0.92
0.95
0.92
0.97
1.04
1.04
0.95
1.02
1.02
0.96
0.94
0.97
0.99
0.93
0.89
0.9
0.94
0.9
0.92
0.96
0.97
0.91
0.94
0.96
0.94
0.91
0.94
0.95
0.96
0.92
0.95
0.99
1.02
0.95
0.96
1.03
1.05
0.98
0.96
0.98
0.99
0.92
0.89
0.96
0.98
0.93
0.94
1.0
1.02
0.97
0.93
0.97
0.99
0.92
0.93
0.97
0.97
0.92
0.87
0.92
0.94
0.95
0.91
0.94
1.01
1.03
0.98
1.05
1.06
1.02
0.91
0.93
0.94
0.88
0.87
0.94
0.97
0.93
0.95
1.0
1.0
0.92
0.93
0.95
0.96
0.88
0.89
0.96
0.99
0.94
0.91
0.92
0.98
0.98
0.95
1.01
1.05
1.03
0.98
1.01
1.02
0.97
0.92
0.96
0.97
0.95
0.87
0.87
0.93
0.94
0.91
0.93
0.94
0.97
0.91
0.93
0.96
0.99
0.92
0.94
1.0
1.03
0.96
0.95
0.99
0.99
0.93
0.94
0.97
0.96
0.91
0.91
0.94
0.93
0.9
0.87
0.89
0.94
0.93
0.92
0.96
1.01
1.03
0.98
0.98
1.03
1.02
0.96
0.95
0.93
0.95
0.89
0.88
0.96
1.01
0.95
0.98
1.04
1.03
0.95
0.9
0.88
0.88
0.84
0.92
0.91
0.82
0.77
0.75
0.77
0.79
0.88
0.93
0.89
0.82
0.8
0.79
0.77
0.76
0.77
0.75
0.75
0.7
0.71
0.52
0.53
1.05
0.66
0.63
0.64
0.64
0.61
0.63
0.59
0.6
0.69
0.65
0.67
0.78
0.91
0.89
0.9
0.86
0.8
0.8
0.79
0.78
0.75
0.72
0.76
0.83
0.89
0.89
0.89
0.91
0.79
0.8
0.84
0.84
0.74
0.73
0.7
0.7
0.68
0.69
0.69
0.7
0.69
0.7
0.7
0.71
0.72
0.75
0.78
0.86
0.92
0.88
0.92
0.96
0.96
0.88
0.89
0.9
0.95
0.91
0.89
0.92
0.96
0.93
0.87
0.91
0.94
0.93
0.87
0.9
0.94
0.97
0.95
1.01
1.06
1.07
1.06
0.98
0.95
0.98
1.04
1.05
1.0
0.95
0.92
0.91
0.89
0.89
0.94
1.0
0.99
1.02
1.06
1.05
0.97
0.98
0.99
0.99
0.94
1.0
1.02
1.01
0.92
0.89
0.93
0.99
0.97
0.95
1.04
1.13
1.08
1.06
1.07
1.08
1.05
1.07
1.08
1.05
1.03
0.98
0.98
0.97
1.05
1.12
1.08
1.06
1.07
1.06
0.98
0.96
0.95
0.93
0.89
0.9
0.86
0.81
0.89
1.13
1.13
1.18
1.15
1.03
1.0
0.96
0.9
0.92
0.97
1.02
1.04
1.0
1.03
1.08
1.01
0.95
0.96
1.02
1.03
1.0
0.98
0.99
0.97
1.04
1.08
1.06
1.08
1.11
1.06
1.07
1.05
0.96
0.89
0.91
0.97
0.99
0.99
1.06
1.1
1.08
1.14
1.12
1.1
1.08
1.07
1.03
0.96
0.98
1.03
1.02
1.01
0.97
0.94
0.91
0.95
1.01
1.05
1.12
1.16
1.1
1.08
1.11
1.05
0.98
0.95
0.94
0.97
0.98
1.02
1.06
1.08
1.01
1.01
1.02
1.0
0.96
0.95
0.93
0.74
0.74
0.79
0.8
0.67
0.69
0.72
0.75
0.69
0.7
0.7
0.66
0.66
0.66
0.64
0.63
0.62
0.63
0.64
0.61
0.63
0.62
0.63
0.67
0.65
0.7
0.71
0.71
0.75
0.79
0.81
0.78
0.81
0.88
0.98
0.94
1.0
1.05
1.01
0.98
1.03
1.01
0.97
0.97
1.04
1.07
1.0
1.01
1.0
1.0
0.95
0.98
0.89
0.83
0.8
0.86
0.96
0.96
1.02
1.05
1.04
1.02
1.07
1.09
1.06
1.03
1.07
1.11
1.06
0.98
0.93
0.95
1.02
1.02
1.06
1.11
1.13
1.06
1.04
1.02
0.98
0.97
0.98
0.95
0.91
0.96
1.04
1.01
0.96
0.98
1.05
1.1
1.06
1.01
0.99
1.0
0.96
0.98
1.02
1.03
0.99
0.99
0.98
0.93
0.94
0.97
1.04
1.05
1.07
1.03
1.0
1.03
1.06
1.06
1.03
1.04
1.08
1.06
1.06
1.03
1.02
0.95
0.94
0.94
0.93
1.03
1.12
1.09
1.11
1.12
1.09
1.03
1.0
0.98
0.94
0.93
0.99
1.02
1.0
0.95
0.95
0.95
0.96
0.94
0.96
1.0
0.96
1.01
1.04
0.99
0.95
0.97
1.0
0.94
0.95
0.95
0.95
0.9
0.87
0.87
0.9
0.94
0.97
0.95
0.96
0.97
1.06
1.12
1.07
1.08
1.09
1.04
1.05
1.01
0.98
0.93
0.9
0.92
0.92
0.95
1.03
1.07
1.07
1.05
1.09
1.04
0.97
0.96
0.93
0.89
0.84
0.84
0.84
0.83
0.92
1.0
0.92
0.98
0.93
0.86
0.88
0.93
0.93
0.97
0.98
0.98
0.94
0.98
1.0
0.98
1.01
1.05
1.1
1.05
0.97
0.92
0.89
0.9
0.95
1.0
1.01
0.9
0.91
1.04
0.86
0.83
0.81
0.86
0.95
0.94
0.99
1.05
1.07
1.04
1.09
1.1
1.09
1.04
1.05
1.03
0.96
0.91
0.95
0.99
1.0
1.04
1.13
1.1
1.06
1.01
1.0
0.96
0.99
1.04
1.01
0.95
0.98
1.01
1.06
1.03
1.05
1.09
0.99
0.94
0.92
0.92
0.92
1.01
1.05
1.02
1.0
1.01
1.01
1.0
1.04
0.99
0.96
0.95
0.96
0.97
0.98
1.0
1.0
1.02
1.04
1.0
1.01
1.0
0.97
0.96
0.94
0.99
1.01
0.99
0.95
0.93
0.9
0.86
0.89
0.97
1.0
1.01
1.09
1.15
1.14
1.15
1.09
1.01
0.99
0.94
0.9
0.87
0.93
0.99
0.99
1.03
1.04
1.02
0.98
1.01
0.97
0.94
0.91
0.95
1.0
0.97
0.92
0.97
1.08
1.15
1.11
1.17
1.17
1.03
0.97
0.93
0.91
0.9
0.93
1.03
1.1
1.07
1.05
1.06
0.97
0.94
0.95
0.96
0.92
0.9
0.93
0.92
0.94
0.97
0.94
0.91
0.9
0.9
0.89
0.9
1.02
1.1
1.09
1.08
1.09
1.05
1.01
1.0
1.03
1.04
0.97
1.0
1.03
1.03
0.99
0.99
1.01
0.96
0.93
0.98
1.02
1.0
0.93
0.92
0.94
0.95
0.95
0.99
1.08
1.07
1.14
1.13
1.06
1.0
1.0
1.0
0.94
0.94
0.97
0.98
0.98
0.93
0.96
0.99
0.98
0.96
0.96
0.97
0.95
0.96
0.99
0.98
0.94
0.95
0.99
0.97
0.96
0.99
0.99
0.97
0.93
0.92
0.95
0.94
0.9
0.91
0.91
0.92
0.87
0.85
0.88
0.93
0.99
1.15
1.23
1.16
1.13
1.12
1.11
1.01
0.96
0.97
1.0
0.98
0.98
0.97
1.0
0.95
0.94
0.95
0.91
0.89
0.9
0.89
0.91
0.95
1.02
1.07
1.02
1.02
1.02
0.96
0.9
0.92
0.97
0.96
0.99
1.05
1.12
1.1
1.02
1.03
1.01
0.97
0.93
0.95
0.98
0.95
0.95
1.0
1.01
0.96
0.92
0.93
0.97
0.96
0.9
0.91
0.93
0.89
0.92
0.92
0.97
0.99
1.1
1.17
1.08
1.03
1.01
1.0
0.96
0.96
0.99
1.03
0.98
0.98
1.0
1.01
0.93
0.93
0.96
0.97
0.96
0.99
1.02
1.03
1.0
1.01
1.01
0.99
0.91
0.92
0.97
0.97
0.97
0.97
1.01
0.97
0.97
1.02
1.01
0.95
0.92
0.95
0.97
0.92
0.93
0.94
0.93
0.9
0.88
0.88
0.88
0.88
0.89
0.95
1.03
1.01
1.04
0.97
0.91
0.88
0.84
0.83
0.92
0.96
1.05
1.12
1.15
1.09
1.02
1.04
1.02
1.0
0.95
0.95
0.98
1.05
1.02
1.02
0.96
0.98
0.97
1.0
1.06
1.09
1.03
1.06
1.07
1.05
0.99
0.98
0.99
1.01
0.98
0.93
0.94
0.93
0.89
0.98
1.12
1.12
1.06
1.04
1.08
1.05
1.0
1.04
0.99
0.91
0.87
0.87
0.89
0.9
0.9
0.92
0.94
0.91
0.91
1.02
1.07
1.03
1.09
1.13
1.09
1.03
1.01
1.0
0.97
0.97
1.0
1.0
0.98
0.94
0.99
0.96
0.91
0.88
0.93
1.03
1.05
1.05
1.07
1.08
1.05
1.03
1.01
0.99
0.96
0.94
0.96
0.93
0.97
1.01
1.02
0.99
0.98
1.0
0.98
0.93
0.94
0.94
0.91
0.86
0.86
0.86
0.92
1.02
1.17
1.15
1.08
1.11
1.12
1.06
0.98
0.97
0.96
0.95
0.98
1.04
1.05
1.01
1.03
1.05
1.02
1.05
1.01
0.99
0.94
0.96
0.96
0.95
0.99
1.02
1.0
0.99
0.99
1.02
0.99
0.95
0.96
0.93
0.96
0.99
0.97
1.01
1.07
1.04
0.97
0.97
0.97
0.94
0.95
0.95
0.92
0.94
0.96
0.99
0.97
0.98
1.01
0.96
0.9
0.85
0.83
0.83
0.82
0.85
0.98
1.21
1.21
1.28
1.21
1.13
1.1
1.07
1.03
0.98
0.94
0.93
0.89
0.96
1.03
1.08
1.01
0.97
0.96
0.96
0.97
1.03
1.04
1.0
1.01
1.01
1.01
0.96
0.96
0.95
0.94
0.98
1.05
1.02
0.96
0.97
0.99
0.99
0.96
0.91
0.89
0.85
0.89
1.0
1.11
1.13
1.18
1.15
1.05
1.06
1.0
0.94
0.93
0.94
0.91
0.91
0.91
0.94
0.92
0.96
1.09
1.12
1.06
1.09
1.07
1.01
0.94
0.93
0.96
0.93
0.92
1.0
1.03
0.98
0.98
0.99
0.98
0.93
0.91
0.92
0.89
0.91
0.94
1.02
1.04
1.08
1.09
1.05
1.0
1.01
0.97
0.93
0.91
0.9
0.86
0.87
0.98
1.09
1.05
1.11
1.14
1.05
1.0
0.98
0.95
0.89
0.95
1.01
1.0
0.97
1.0
1.02
0.98
0.99
1.01
1.03
0.97
0.98
1.02
0.99
0.98
0.98
1.0
0.96
0.94
0.98
1.02
1.0
1.02
1.03
1.01
0.95
0.97
0.98
0.99
0.95
0.98
1.02
1.0
0.98
0.99
0.99
0.96
0.97
1.0
1.0
0.98
0.99
1.01
0.97
0.95
0.97
1.0
0.99
0.96
0.99
1.02
1.03
0.98
0.99
1.02
1.0
0.96
0.99
1.0
0.97
0.98
1.01
0.97
0.94
0.99
1.01
0.99
0.98
1.02
1.01
0.96
0.92
0.91
0.91
0.87
0.9
0.92
0.89
0.91
0.95
1.03
0.98
1.01
1.04
1.03
0.97
0.97
0.98
0.99
0.95
0.96
0.99
1.03
0.99
0.98
1.01
1.02
0.98
1.0
1.04
1.04
0.99
1.01
1.03
1.04
1.01
1.03
1.01
1.0
0.93
0.96
0.98
0.99
0.95
0.96
1.01
1.03
0.97
0.98
0.99
1.0
0.93
0.95
1.0
0.99
0.94
0.93
0.95
0.96
0.94
0.91
0.93
0.95
0.94
0.91
0.9
0.91
0.9
0.89
0.91
0.95
0.96
0.94
0.96
1.01
0.95
0.95
0.97
0.98
0.93
0.94
0.95
0.91
0.93
0.95
0.98
0.94
0.96
0.98
1.01
0.96
0.97
0.97
0.96
0.92
0.94
0.97
0.99
0.96
0.95
0.97
0.94
0.89
0.88
0.91
0.94
0.92
0.97
1.02
1.02
0.97
0.94
0.97
0.96
0.9
0.92
0.94
0.92
0.89
0.91
0.95
0.96
0.93
0.91
0.88
0.81
0.8
0.78
0.76
0.75
0.76
0.77
0.78
0.79
0.83
0.88
0.86
0.9
0.93
0.93
0.86
0.81
0.79
0.77
0.75
0.74
0.75
0.69
1.44
1.24
1.98
0.73
0.71
0.7
0.71
0.69
0.68
0.67
0.66
0.67
0.66
0.67
0.69
0.71
0.75
0.77
0.78
0.81
0.49
0.49
0.68
0.84
0.87
0.89
0.94
1.04
1.08
1.09
1.15
1.19
1.11
1.03
1.01
1.0
1.02
1.12
1.07
1.02
1.0
1.0
1.03
1.06
1.13
1.15
1.09
1.1
1.1
1.07
1.08
1.03
1.01
1.05
1.04
1.01
1.01
1.03
1.03
1.01
0.99
0.97
0.95
0.98
1.06
1.12
1.11
1.12
1.15
1.12
1.1
1.09
1.06
1.0
1.02
1.07
1.05
1.01
1.01
1.03
1.04
1.04
1.09
1.09
1.06
1.01
1.01
0.94
0.89
0.92
0.94
0.94
1.03
1.09
1.0
0.96
1.0
1.11
1.11
1.13
1.11
1.01
0.95
0.9
0.91
0.93
0.98
1.06
1.16
1.05
0.98
0.98
0.98
0.95
0.88
0.88
0.9
0.83
0.81
0.83
0.86
0.91
1.0
1.14
1.08
1.03
0.96
0.96
0.96
0.97
0.98
1.06
1.16
1.18
1.13
1.15
1.14
1.1
1.06
1.08
1.12
1.07
1.1
1.09
1.06
1.06
1.07
1.09
1.04
1.01
1.04
0.98
1.0
1.0
0.96
0.9
0.84
0.83
0.81
0.79
0.8
0.92
1.04
1.13
1.17
1.13
1.2
1.13
1.06
1.0
1.0
1.0
0.98
0.98
0.97
0.97
0.95
1.0
1.07
1.13
1.06
1.07
1.04
1.02
1.06
1.03
1.04
1.07
1.04
1.05
1.08
1.02
0.98
1.02
1.07
1.04
1.0
1.04
1.04
1.05
1.01
1.0
1.02
1.04
1.01
0.98
0.96
0.92
0.88
0.93
1.0
1.05
1.19
1.29
1.21
1.16
1.17
1.1
1.0
0.96
0.96
0.95
0.94
1.0
1.1
1.1
1.13
1.1
1.05
1.07
1.06
1.03
0.98
0.99
1.01
0.99
1.02
1.04
1.02
1.0
1.03
1.03
1.04
0.97
0.93
0.98
1.02
1.04
1.03
1.07
1.13
1.11
1.08
1.04
0.96
0.89
0.86
0.9
0.98
1.15
1.11
1.18
1.05
1.04
1.1
1.1
1.06
1.09
1.05
1.07
1.09
1.05
1.06
1.02
1.04
1.02
1.0
1.02
1.03
0.99
0.99
1.05
1.04
0.97
0.95
0.99
1.02
1.05
1.11
1.18
1.17
1.1
1.11
1.13
1.08
1.05
0.94
0.94
0.96
0.97
0.92
0.93
0.91
0.94
1.03
1.1
1.12
1.17
1.14
1.03
0.98
0.97
0.99
0.95
0.94
1.0
1.03
1.0
0.99
1.05
1.08
1.13
1.16
1.13
1.1
1.08
1.06
1.05
1.05
1.03
1.02
1.07
1.05
1.04
1.08
1.1
1.06
1.04
1.04
1.01
0.95
0.92
0.95
0.98
1.03
1.12
1.09
1.06
1.1
1.09
1.05
1.0
1.02
1.03
1.0
0.96
0.96
0.98
0.95
0.94
0.95
0.95
0.88
0.86
0.86
0.82
0.81
0.87
0.97
0.99
1.06
1.09
1.07
1.06
1.11
1.11
1.11
1.12
1.11
1.07
1.1
1.07
1.07
0.99
0.98
1.01
1.05
1.16
1.18
1.18
1.13
1.18
1.14
1.09
1.05
1.08
1.1
1.12
1.04
1.03
1.05
1.07
1.1
1.09
1.01
1.02
1.0
0.98
0.92
0.91
0.97
1.01
0.98
1.06
1.13
1.14
1.03
1.08
1.14
1.11
1.07
1.09
1.11
1.02
0.93
0.94
1.0
1.06
1.2
1.28
1.2
1.17
1.18
1.11
1.08
1.06
1.07
1.02
1.0
1.01
0.96
0.96
0.97
1.03
1.08
1.13
1.22
1.18
1.09
1.12
1.14
1.1
1.03
1.05
1.05
1.02
0.97
1.03
1.06
1.07
1.02
1.08
1.08
1.06
1.11
1.1
1.01
1.0
1.0
0.99
0.96
0.94
0.94
0.91
0.96
0.95
0.92
0.93
1.0
0.96
0.89
0.88
0.85
0.86
0.93
0.98
1.15
1.16
1.07
1.03
1.03
1.01
0.95
0.97
0.99
0.97
1.01
1.06
1.05
1.0
1.01
1.06
1.08
1.07
1.04
1.04
1.05
1.03
1.09
1.12
1.08
1.07
1.1
1.15
1.09
1.06
1.04
1.04
1.0
0.98
0.97
0.95
0.89
0.91
0.95
0.98
1.06
1.25
1.24
1.16
1.08
1.05
0.98
0.91
0.96
1.08
1.05
0.99
0.99
1.09
1.17
1.1
1.17
1.18
1.11
1.1
1.1
1.03
1.03
1.03
0.97
0.99
1.0
1.09
1.1
1.05
1.09
1.1
1.07
1.02
1.04
1.06
1.02
1.0
0.99
1.03
1.04
1.03
1.09
1.07
1.04
1.07
1.04
1.0
1.05
1.07
1.02
1.07
1.08
1.08
1.02
1.01
0.99
1.01
1.02
0.99
0.95
0.91
0.92
0.91
0.86
0.86
0.9
0.99
0.95
0.9
0.92
0.89
0.85
0.86
0.85
0.85
0.91
0.98
1.07
1.06
1.14
1.17
1.14
1.11
1.18
1.15
1.11
1.04
1.06
1.03
1.0
1.05
1.09
1.05
1.08
1.12
1.08
1.03
1.07
1.04
1.02
1.06
1.05
1.02
1.08
1.08
1.05
0.97
1.01
1.08
1.09
1.03
1.06
1.1
1.1
1.09
1.13
1.08
1.03
1.02
1.03
1.0
1.02
1.0
0.97
1.02
1.09
1.01
1.02
1.03
1.02
1.0
1.02
1.04
1.02
0.98
0.98
0.99
0.95
0.99
0.98
0.92
0.89
0.87
0.89
0.9
0.76
0.85
0.83
0.84
0.96
1.05
1.26
1.27
1.17
1.22
1.18
1.13
1.06
1.13
1.13
1.1
1.05
1.09
1.14
1.1
1.1
1.13
1.14
1.17
1.13
1.07
1.1
1.14
1.11
1.03
1.0
1.02
1.03
1.14
1.2
1.17
1.11
1.15
1.13
1.08
1.11
1.12
1.05
1.04
1.05
1.04
1.0
0.99
1.01
1.01
1.02
1.06
1.11
1.08
1.08
1.1
1.07
1.06
1.08
1.05
1.0
1.04
1.06
1.02
1.09
1.09
1.06
1.08
1.1
1.06
1.06
1.04
1.04
1.01
1.03
1.05
1.03
1.02
1.02
0.97
0.93
0.94
1.05
1.12
1.11
1.12
1.08
1.17
1.22
1.18
1.18
1.16
1.08
1.06
1.06
1.03
1.02
1.05
1.09
1.06
1.08
1.08
1.05
1.0
1.01
1.01
0.99
0.98
1.06
1.08
1.05
1.07
1.09
1.05
1.03
1.1
1.12
1.09
1.07
1.06
1.03
1.02
1.06
1.09
1.05
1.07
1.09
1.05
1.08
1.08
1.06
1.04
1.06
1.07
1.05
1.04
1.04
1.03
0.98
0.99
0.99
1.0
0.97
0.97
1.0
1.03
1.02
1.07
1.11
1.07
1.01
1.03
0.98
0.96
0.95
1.01
1.05
1.03
1.09
1.12
1.07
1.01
1.05
1.07
1.0
1.02
1.03
1.0
0.97
0.98
1.0
0.99
0.98
1.0
0.98
0.95
0.95
1.01
1.05
1.03
1.11
1.11
1.08
1.05
1.07
1.05
1.06
1.03
1.08
1.08
1.05
1.05
1.11
1.05
1.01
1.03
1.02
0.98
1.02
1.06
1.08
1.04
1.08
1.09
1.02
1.01
1.02
0.96
0.99
1.04
1.01
0.98
1.01
1.02
0.97
0.99
0.99
0.98
1.04
1.09
1.09
1.05
1.06
1.07
1.01
1.03
1.05
1.02
0.99
1.01
1.02
0.99
0.99
1.04
1.02
1.03
1.07
1.07
1.02
1.0
1.03
1.03
0.99
1.02
1.06
1.08
1.04
1.06
1.06
1.05
1.02
1.03
1.03
1.0
1.0
1.02
1.01
0.99
1.0
1.05
1.01
1.01
1.05
1.0
0.97
0.99
0.98
0.96
0.97
1.02
1.07
1.03
1.05
1.04
1.02
0.97
1.0
1.03
1.01
0.95
0.96
0.99
1.04
1.03
1.01
1.03
1.02
1.01
1.02
1.03
1.01
1.04
1.04
1.02
1.02
1.06
1.08
1.05
1.05
1.03
1.0
0.94
0.94
0.97
0.95
0.96
1.01
1.04
1.0
1.03
1.06
1.07
1.01
0.99
1.0
1.01
0.96
0.98
1.01
0.99
0.95
0.97
1.01
0.97
0.97
1.0
1.03
1.01
1.07
1.09
1.07
1.09
1.13
1.07
1.02
1.03
1.04
1.0
1.01
1.03
1.0
1.01
1.03
1.04
1.0
0.99
1.03
1.02
0.97
0.98
0.99
0.97
0.97
1.01
1.0
0.98
1.0
1.01
1.0
0.93
0.92
0.94
0.95
0.92
0.98
1.01
1.0
1.03
1.06
1.05
1.01
0.99
1.01
1.01
0.98
0.99
1.04
1.04
1.0
1.03
1.08
1.0
1.01
1.03
1.03
1.0
1.04
1.05
1.03
0.99
0.99
1.03
1.01
1.0
1.03
1.04
1.0
0.97
0.98
1.01
0.97
1.0
1.05
1.04
1.0
1.01
1.0
0.99
0.94
0.95
0.96
0.98
1.0
1.06
1.07
1.03
1.04
1.05
1.02
0.99
0.99
1.02
0.99
0.97
1.02
1.04
1.01
1.02
1.0
1.01
1.0
1.04
1.06
1.04
1.01
1.02
1.05
1.03
1.04
1.05
0.97
0.99
1.02
1.03
1.01
1.02
1.06
1.04
1.03
1.05
1.03
1.01
1.01
1.02
0.97
0.97
0.99
1.0
0.97
0.98
1.01
0.99
1.04
1.04
1.0
0.97
1.01
1.03
1.0
0.97
1.02
1.05
1.02
1.02
1.07
1.05
1.01
1.02
1.01
0.97
0.97
0.97
0.97
0.99
1.03
1.02
1.0
1.02
1.05
0.98
1.0
1.01
0.95
0.96
0.99
1.01
1.0
0.97
1.05
1.09
1.04
1.02
1.07
1.02
1.03
1.07
1.06
1.01
1.04
1.03
0.99
0.96
0.98
0.97
0.93
0.94
0.96
0.97
0.95
0.98
1.03
1.0
1.02
1.03
1.01
0.96
0.96
0.99
0.97
1.0
1.06
1.1
1.05
1.05
1.05
1.04
1.02
0.95
0.94
0.98
1.02
0.98
1.0
1.05
1.04
1.0
1.01
1.02
0.99
1.0
1.03
1.06
1.01
1.04
1.04
1.03
0.99
0.99
1.01
0.96
0.96
0.97
0.98
0.95
0.94
1.0
1.03
1.01
1.0
1.03
1.02
1.01
0.98
1.0
1.01
0.99
0.98
1.0
1.02
0.97
0.97
1.03
1.01
1.03
1.05
1.08
1.04
1.05
1.06
1.05
1.02
1.04
1.05
1.04
0.97
1.0
1.03
1.04
0.98
1.01
1.04
1.04
1.03
1.08
1.05
1.02
1.04
1.06
1.05
1.0
1.0
1.02
1.01
0.98
1.01
1.06
1.02
1.02
1.03
1.01
1.0
1.06
1.08
1.04
1.03
1.02
0.99
0.98
0.98
1.0
0.97
1.03
1.03
1.0
1.03
1.02
1.0
0.98
0.99
1.01
0.98
0.99
1.02
1.01
1.0
1.03
1.03
0.97
0.99
1.01
0.98
1.01
1.03
1.0
1.0
1.0
0.95
0.94
0.98
0.97
0.93
0.96
0.99
1.01
1.0
1.04
1.04
1.01
0.95
0.97
0.99
0.98
0.99
1.07
1.07
1.02
1.01
1.02
1.03
0.96
0.92
0.96
0.98
0.99
1.02
1.06
1.03
1.02
1.04
0.98
1.0
1.02
1.02
0.97
1.0
1.04
1.04
1.06
1.08
1.06
1.01
1.01
0.97
0.92
0.91
0.92
0.92
0.91
0.96
1.03
1.03
1.01
1.05
1.05
1.0
1.0
1.02
0.99
0.97
0.99
1.04
1.01
1.0
1.04
1.04
1.0
1.04
1.06
1.03
1.03
1.08
1.05
1.0
1.03
1.03
1.07
1.01
1.04
1.06
1.04
0.99
0.99
1.0
0.99
1.01
1.05
1.03
1.01
1.04
1.0
0.98
1.0
1.0
0.97
1.01
1.02
0.99
1.03
1.03
0.99
0.99
1.03
1.02
0.96
0.96
0.97
0.98
0.97
1.0
1.02
0.97
0.98
0.99
0.99
0.96
0.98
1.02
1.04
0.97
0.98
1.0
1.02
0.98
1.02
1.02
0.99
0.98
1.04
1.01
1.02
1.02
0.99
1.03
1.03
0.99
0.96
1.0
1.03
0.97
0.96
1.01
0.99
0.97
0.98
1.0
1.03
1.01
1.01
1.05
1.01
1.02
1.01
1.0
0.97
0.96
0.99
1.01
0.97
1.01
1.03
1.0
1.0
1.02
1.03
0.98
0.96
0.98
0.99
0.96
1.0
1.03
0.99
1.04
1.06
1.02
1.04
1.06
1.02
0.99
1.0
1.04
1.02
1.0
1.0
0.99
0.98
0.97
1.02
1.07
1.02
1.03
1.04
1.02
0.98
0.99
1.02
0.99
1.03
1.07
1.03
0.98
1.03
1.04
0.95
0.96
0.96
0.97
0.94
1.01
1.03
1.04
1.05
1.08
1.02
1.01
1.06
1.05
1.0
0.99
1.0
1.02
0.96
0.96
0.96
1.01
0.96
1.0
1.02
1.06
1.01
1.06
1.06
1.03
1.0
1.0
0.97
0.94
0.97
1.02
0.97
1.01
1.04
1.01
0.98
1.01
1.03
1.0
0.98
1.0
1.04
0.98
0.97
0.99
0.98
0.98
1.08
1.08
1.02
1.0
1.02
1.01
0.94
0.97
0.99
0.96
0.96
1.01
1.01
0.99
1.0
1.03
1.07
0.99
1.0
1.06
1.02
1.04
1.13
1.16
1.09
1.1
1.11
1.08
1.08
1.07
1.06
1.01
1.03
1.02
0.98
0.95
0.97
0.99
0.95
1.01
1.05
1.01
0.97
0.99
0.98
0.96
0.97
1.03
1.03
1.05
1.12
1.13
1.05
1.04
1.05
1.05
1.0
1.01
1.02
0.97
0.99
0.98
0.99
0.96
0.98
1.02
1.0
0.97
1.04
1.04
1.01
1.03
1.05
1.04
1.06
1.05
0.99
1.0
1.03
0.98
0.99
1.06
1.06
1.01
1.02
1.03
1.01
0.95
0.96
0.99
0.99
0.98
1.08
1.08
1.01
1.03
1.03
1.01
0.98
1.02
1.0
1.02
1.02
0.98
1.0
1.03
0.99
0.99
1.0
1.01
0.96
0.98
0.99
0.99
0.95
0.96
0.98
1.0
0.98
0.97
0.99
1.02
0.99
0.98
1.02
1.01
0.99
1.02
1.07
1.04
1.0
1.01
1.05
1.01
0.99
1.03
1.01
0.99
1.02
1.0
0.97
0.96
0.99
1.01
0.99
1.0
0.99
1.01
0.98
1.0
1.01
0.99
0.96
0.99
1.0
0.97
1.0
1.04
1.01
0.97
1.0
1.01
0.97
0.98
1.0
1.01
0.97
0.95
1.0
1.02
0.98
0.98
1.0
0.99
0.97
1.02
1.03
0.99
1.0
1.01
1.05
0.96
0.96
0.96
0.99
0.96
0.97
1.01
1.03
1.02
1.08
1.13
1.06
1.01
1.01
1.02
1.0
0.97
0.99
1.0
0.98
1.03
1.05
1.01
0.97
0.98
1.0
0.95
0.97
1.01
0.98
0.97
0.98
0.98
0.96
0.99
1.03
0.99
0.98
1.07
1.09
1.03
0.99
1.03
1.0
0.98
0.99
1.0
0.95
0.96
0.99
1.0
0.99
1.01
1.04
1.01
0.97
0.96
0.97
0.97
0.94
0.96
0.98
0.98
0.96
1.0
1.0
0.99
0.98
1.02
1.04
0.96
0.97
0.99
1.01
0.97
1.01
1.04
1.02
1.02
1.08
1.1
1.01
0.99
1.02
1.05
1.03
1.04
1.13
1.09
1.09
1.12
1.09
1.03
1.0
1.02
1.02
0.98
1.0
1.04
1.02
1.0
0.97
1.0
1.0
1.0
1.04
1.08
1.07
1.02
1.07
1.04
1.0
0.98
0.99
0.95
0.96
1.0
1.04
1.0
1.02
1.05
1.03
0.99
0.99
1.01
1.0
0.97
0.95
0.97
1.0
0.98
1.02
1.07
1.03
1.01
1.02
1.01
0.98
0.97
1.01
0.95
0.99
1.05
1.07
1.02
1.02
1.06
1.06
0.99
1.01
1.01
0.97
1.0
1.01
1.04
0.99
1.0
1.03
1.01
1.02
1.07
1.04
1.02
1.06
1.05
1.01
1.04
1.06
1.03
0.99
1.0
1.03
1.04
0.99
0.98
1.04
1.05
1.03
1.04
1.07
1.06
0.98
1.0
1.02
1.02
1.04
1.12
1.16
1.11
1.15
1.16
1.08
1.01
1.0
0.98
0.96
0.98
1.02
0.97
0.99
1.03
1.04
1.0
1.03
1.06
1.03
0.96
1.0
0.99
0.99
0.99
1.01
1.08
1.04
1.03
1.06
1.06
1.0
1.04
1.05
1.03
1.0
1.05
1.08
1.02
1.06
1.06
1.04
0.98
0.98
1.01
1.01
0.97
0.96
1.01
1.03
0.99
1.0
1.04
1.01
0.98
1.01
1.0
0.95
0.96
1.0
1.07
1.01
1.0
1.04
1.04
1.01
1.04
1.08
1.04
0.99
0.98
0.99
0.97
0.94
0.98
1.01
0.96
0.96
0.98
1.0
0.97
0.98
1.02
1.0
0.99
1.02
0.99
0.96
0.99
0.98
0.96
0.93
0.99
1.04
0.99
0.98
1.02
1.06
1.01
1.02
1.07
1.05
1.06
1.04
1.03
0.99
1.01
1.07
1.05
1.01
1.06
1.08
1.03
1.0
1.01
1.04
0.99
0.98
1.0
1.0
0.96
1.0
1.01
0.99
0.97
0.99
1.03
1.02
1.0
1.05
1.06
0.99
0.97
0.98
0.99
0.99
1.03
1.07
1.06
1.01
1.08
1.02
0.98
1.0
1.06
1.08
1.01
1.02
1.07
1.05
1.05
1.06
1.05
0.99
1.01
1.02
1.01
0.94
0.95
0.97
0.99
0.94
0.94
0.98
1.02
1.0
0.97
0.98
1.01
0.98
1.01
1.04
1.06
1.01
1.05
1.06
1.01
1.0
1.03
1.05
1.02
1.04
1.06
1.05
0.97
0.98
1.03
1.04
0.98
1.02
1.04
1.03
1.02
1.05
1.01
0.98
1.0
1.01
0.98
0.97
0.99
1.0
1.0
0.96
0.99
1.02
0.98
0.97
1.02
1.07
1.02
1.03
1.1
1.11
1.04
0.98
0.99
0.98
0.99
1.03
1.06
1.01
1.01
1.03
1.0
0.99
1.03
1.03
1.01
1.01
1.08
1.07
0.99
0.99
0.98
0.95
0.91
0.87
0.86
0.87
0.99
1.0
0.93
0.93
1.06
1.01
0.96
0.87
0.86
0.83
0.81
0.81
0.8
0.78
0.77
0.77
0.75
0.83
0.84
0.63
0.64
0.76
0.72
0.7
0.7
0.7
0.69
0.69
0.69
0.68
0.69
0.71
0.7
0.72
0.73
0.76
0.77
0.84
0.9
0.86
0.84
0.85
0.9
0.94
0.97
0.99
1.03
1.05
1.06
1.12
1.1
1.08
1.08
1.11
1.07
0.98
0.98
1.03
1.12
1.08
1.09
1.09
1.1
1.06
1.13
1.13
1.1
1.09
1.13
1.11
1.13
1.09
1.08
1.08
1.08
1.04
1.04
1.03
1.07
1.06
1.07
1.04
0.98
0.91
0.89
0.84
0.82
0.89
1.16
1.24
1.3
1.17
1.12
1.05
0.99
0.95
0.93
0.93
1.0
1.02
1.2
1.18
1.13
1.14
1.08
1.09
1.06
1.13
1.18
1.2
1.14
1.2
1.18
1.13
1.12
1.12
1.05
1.05
1.09
1.12
1.1
1.13
1.09
1.04
1.07
1.11
1.05
1.05
1.1
1.11
1.06
1.11
1.08
1.04
1.0
1.04
1.08
0.98
0.93
0.92
0.9
0.93
0.94
0.96
1.03
1.09
1.18
1.22
1.16
1.17
1.13
1.07
1.07
1.04
1.03
1.01
1.05
1.08
1.07
1.07
1.11
1.11
1.06
1.11
1.14
1.02
0.96
0.93
0.88
0.89
0.99
1.0
1.06
1.23
1.23
1.17
1.16
1.12
1.05
1.03
1.04
1.09
1.05
1.06
1.05
1.0
1.01
1.0
0.99
1.03
1.11
1.11
1.0
0.94
0.93
0.96
0.98
0.99
0.98
1.01
1.14
1.22
1.21
1.16
1.18
1.11
1.1
1.1
1.09
1.13
1.18
1.12
1.06
1.09
1.07
1.07
1.03
1.09
1.09
1.04
1.1
1.13
1.08
1.09
1.1
1.11
1.04
1.1
1.12
1.09
1.13
1.14
1.0
0.92
0.92
0.97
1.02
1.2
1.32
1.25
1.19
1.2
1.17
1.1
1.08
1.08
1.03
1.03
1.04
1.04
1.01
1.03
1.08
1.08
1.05
1.09
1.09
1.07
1.06
1.05
0.98
0.93
0.94
0.98
0.93
0.94
0.94
1.0
1.02
1.09
1.14
1.14
1.19
1.17
1.12
1.13
1.07
1.04
1.05
1.02
1.0
1.04
1.07
1.06
1.1
1.14
1.09
1.05
1.08
1.14
1.1
1.09
1.13
1.16
1.07
1.04
1.05
1.03
1.01
1.04
1.04
0.98
0.96
0.97
1.03
1.07
1.21
1.24
1.22
1.27
1.2
1.09
1.08
1.06
1.01
1.04
1.04
1.02
1.06
1.1
1.06
1.09
1.07
1.05
1.03
1.02
1.01
0.98
0.93
0.92
0.93
0.93
1.06
1.23
1.23
1.24
1.2
1.17
1.16
1.11
1.08
1.1
1.06
1.1
1.1
1.08
0.98
0.97
0.96
0.98
1.12
1.26
1.2
1.2
1.26
1.23
1.15
1.13
1.12
1.07
1.05
1.1
1.03
1.0
0.95
0.94
0.9
0.9
0.93
1.02
1.11
1.29
1.27
1.19
1.19
1.15
1.09
1.05
1.04
1.05
1.01
1.0
1.03
1.06
1.06
1.06
1.12
1.01
0.97
0.95
1.03
1.07
1.1
1.16
1.21
1.14
1.11
1.06
1.0
0.93
0.91
0.87
0.9
1.05
1.22
1.26
1.18
1.21
1.21
1.15
1.1
1.13
1.15
1.12
1.07
1.08
1.03
0.95
0.9
0.87
0.91
1.04
1.12
1.33
1.34
1.25
1.23
1.23
1.12
1.08
1.08
1.04
1.05
1.07
1.01
0.95
0.96
1.02
1.09
1.13
1.19
1.2
1.13
1.15
1.13
1.09
1.08
1.11
1.0
0.98
1.0
1.01
1.0
0.99
1.1
1.14
1.11
1.15
1.12
1.08
1.08
1.12
1.08
1.04
1.05
1.08
1.0
0.97
0.95
1.01
1.06
1.05
1.14
1.12
1.07
1.04
1.08
1.07
1.07
1.06
1.08
1.08
1.06
1.06
1.1
1.03
0.99
1.01
1.06
1.11
1.1
1.13
1.14
1.1
1.06
1.06
1.04
1.01
1.01
1.06
1.04
1.0
1.02
1.03
0.98
0.93
0.91
0.95
1.02
1.1
1.22
1.22
1.17
1.18
1.14
1.06
0.99
1.01
1.01
0.98
1.01
1.01
0.97
0.96
0.96
1.04
1.1
1.12
1.16
1.14
1.06
1.02
0.99
1.01
1.03
1.05
1.16
1.17
1.12
1.12
1.14
1.13
1.05
1.03
1.06
1.09
1.08
1.11
1.1
1.04
1.03
1.06
1.06
1.04
1.06
1.09
1.07
1.01
1.06
1.06
1.02
1.04
1.03
1.02
0.99
0.99
1.0
1.02
1.03
1.08
1.07
1.06
1.01
1.04
1.05
1.03
1.02
1.06
1.07
1.07
1.08
1.11
1.06
1.03
1.05
1.04
1.05
1.01
1.06
1.1
1.08
1.08
1.1
1.06
1.06
1.13
1.13
1.07
1.08
1.08
1.07
1.04
1.06
1.06
1.03
1.02
1.05
1.06
1.03
1.04
1.06
1.05
1.04
1.06
1.06
1.04
1.0
1.01
1.04
1.01
1.07
1.18
1.11
1.09
1.12
1.1
1.04
1.02
1.0
0.97
1.0
0.96
0.99
1.0
0.99
1.0
0.98
0.95
0.94
1.0
1.08
1.12
1.13
1.21
1.17
1.13
1.13
1.24
1.34
1.26
1.15
1.03
0.99
0.95
0.99
1.04
0.96
1.33
1.33
1.35
1.27
1.19
1.2
1.19
1.11
1.07
1.04
1.0
0.96
0.97
1.01
1.04
1.05
1.11
1.12
1.08
1.05
1.07
1.13
1.22
0.97
0.97
0.83
0.84
0.7
0.68
0.69
0.68
0.69
0.79
0.83
0.78
0.8
0.88
0.9
0.9
0.89
0.86
0.88
0.9
0.94
1.0
1.01
1.08
1.12
1.12
1.13
1.18
1.15
1.11
1.11
1.1
1.05
1.03
1.05
1.06
1.04
1.04
1.09
1.19
1.15
1.09
1.14
1.13
1.07
1.05
1.08
1.07
1.04
1.02
1.04
1.05
1.03
1.04
1.1
1.09
1.11
1.13
1.12
1.09
1.09
1.09
1.05
1.05
1.07
1.06
1.05
1.07
1.05
1.03
1.02
1.01
0.98
0.97
1.03
1.03
0.97
0.94
0.94
0.95
0.97
1.01
1.03
1.05
1.03
1.01
0.98
0.99
0.94
0.9
0.86
0.82
0.84
0.8
0.79
0.77
0.77
0.68
0.69
0.83
0.84
0.73
0.73
0.69
0.7
0.74
0.7
0.68
0.68
0.68
0.68
0.63
0.64
0.74
0.69
0.67
0.7
0.73
0.73
0.75
0.78
0.78
0.79
0.77
0.77
0.78
0.78
0.8
0.82
0.84
0.84
0.82
0.84
0.82
0.85
0.88
0.91
0.89
0.85
0.89
0.9
0.92
0.9
0.96
1.02
1.02
1.01
1.06
1.07
1.01
0.93
0.94
0.96
1.01
1.0
1.09
1.07
1.01
0.98
0.99
0.99
0.98
0.94
0.94
0.96
0.98
0.95
0.98
0.98
0.99
0.97
0.96
0.96
0.91
0.91
0.92
0.91
0.96
1.01
1.01
0.97
0.92
0.9
0.88
0.89
0.89
0.85
0.86
0.79
0.79
0.9
0.83
0.82
0.8
0.81
0.82
0.81
0.81
0.86
0.89
0.96
0.99
0.97
1.05
1.05
1.05
1.03
1.07
1.07
1.04
1.08
1.08
1.1
1.05
1.09
1.08
1.06
1.04
1.09
1.1
1.05
0.97
0.94
0.97
1.04
1.0
1.11
1.11
1.08
1.02
1.05
1.05
1.05
1.0
0.96
0.97
0.99
0.96
1.01
1.02
1.05
0.99
0.94
0.93
0.92
0.9
0.93
0.99
1.01
0.98
1.02
1.08
1.01
1.01
1.03
1.03
0.98
0.98
0.99
1.03
1.01
0.98
0.97
1.0
1.04
1.0
1.04
1.08
1.04
1.05
1.03
0.99
0.94
0.96
0.95
0.99
0.93
0.96
0.98
0.98
0.94
0.91
0.91
0.94
0.93
0.97
1.09
1.15
1.11
1.14
1.15
1.09
1.11
1.08
1.08
1.0
1.01
1.04
1.02
1.07
1.07
1.04
1.0
1.05
1.02
1.0
0.94
0.96
1.05
1.11
1.23
1.28
1.22
1.17
1.14
1.1
1.02
0.99
0.98
1.0
0.97
1.01
0.99
0.98
0.94
0.95
0.91
0.88
0.83
0.8
0.8
0.83
0.91
1.09
1.2
1.18
1.2
1.17
1.11
1.02
1.01
1.04
0.99
1.02
1.08
1.13
1.12
1.13
1.11
1.06
1.08
1.06
1.02
0.99
1.0
1.07
1.1
1.08
1.08
1.11
1.07
0.99
1.01
1.0
0.96
0.96
1.01
1.01
1.01
0.99
1.04
1.04
1.01
1.01
1.0
1.02
0.98
0.94
0.97
1.04
1.01
0.97
0.98
1.02
1.01
0.98
1.0
1.01
0.99
0.97
1.03
1.05
0.99
0.99
1.0
1.06
1.06
1.13
1.05
0.99
1.01
1.08
1.09
1.17
1.18
1.15
1.12
1.11
1.05
0.99
1.02
0.97
0.94
0.97
1.0
1.07
1.09
1.06
1.04
1.03
0.99
0.97
0.97
1.01
1.01
1.02
1.03
0.97
1.01
1.03
1.01
0.98
1.0
1.06
1.01
0.99
1.01
1.12
1.2
1.13
1.19
1.12
1.22
1.29
1.24
1.25
1.24
1.21
1.23
1.28
1.28
1.22
1.19
1.18
1.15
1.09
1.07
1.05
0.98
0.98
0.98
0.97
0.93
0.94
0.92
0.9
0.89
0.88
0.89
0.86
0.85
0.86
0.85
0.87
0.86
0.88
0.89
0.91
0.88
0.87
0.88
0.87
0.86
0.88
0.91
0.97
0.98
0.97
0.98
0.92
0.92
0.88
0.9
0.92
0.94
0.96
0.97
0.99
0.99
0.95
0.9
0.89
0.85
0.84
0.82
0.82
0.81
0.81
0.82
1.03
1.01
1.11
1.1
1.11
1.06
1.01
0.94
0.94
0.94
0.95
0.92
0.93
0.95
0.99
1.0
0.96
0.96
0.94
0.93
0.89
0.87
0.9
0.95
0.94
1.05
1.14
1.17
1.18
1.19
1.22
1.2
1.18
1.23
1.13
1.11
1.12
1.1
1.07
1.08
1.04
1.02
0.99
0.96
0.94
0.96
0.97
0.94
0.93
0.92
0.91
0.91
0.88
0.89
0.86
0.86
0.85
0.83
0.85
0.86
0.87
0.86
0.87
0.88
0.87
0.87
0.84
0.87
0.86
0.88
0.87
0.87
0.89
0.89
0.9
0.88
0.9
0.91
0.91
0.88
0.88
0.89
0.89
0.93
0.94
0.96
1.02
1.08
1.13
1.13
1.05
1.04
1.01
0.97
0.99
1.0
0.97
1.0
1.01
1.0
0.97
0.95
0.94
0.93
0.9
0.92
0.92
0.9
0.93
0.92
0.91
0.92
0.94
0.95
1.0
1.04
0.95
0.89
0.88
0.88
0.91
1.01
1.03
0.99
0.96
0.98
0.99
0.93
0.91
0.89
0.89
0.86
0.87
0.86
0.86
0.84
0.87
0.87
0.87
0.86
0.89
0.89
0.89
0.86
0.88
0.87
0.88
0.87
0.86
0.85
0.85
0.84
0.84
0.84
0.84
0.85
0.83
0.84
0.84
0.85
0.88
0.92
0.99
1.02
0.99
0.98
0.98
0.97
0.96
0.93
0.93
0.93
0.93
0.92
0.93
0.93
0.93
0.91
0.91
0.94
0.98
0.99
0.94
0.96
0.96
0.94
0.9
0.9
0.89
0.88
0.87
0.88
0.9
0.88
0.89
0.9
0.92
0.97
1.0
1.01
1.02
0.96
0.95
0.94
0.96
0.96
0.94
0.97
0.96
0.99
0.94
0.96
0.97
0.98
1.07
1.25
1.25
1.22
1.23
1.23
1.27
1.16
1.11
1.05
1.07
1.1
1.05
1.02
1.02
0.99
0.93
0.92
0.89
0.89
0.86
0.86
0.84
0.85
0.86
0.85
0.87
0.88
0.9
0.89
0.89
0.9
0.92
0.97
0.93
0.94
0.95
0.91
0.88
0.91
0.91
0.91
0.9
0.91
0.91
0.92
0.93
0.91
0.93
0.9
0.91
0.9
0.89
0.88
0.89
0.89
0.88
0.91
0.93
0.95
0.94
0.97
0.99
0.94
0.93
0.93
0.91
0.91
0.94
0.98
0.97
0.97
1.0
1.0
1.03
1.03
0.99
1.0
0.98
0.97
0.96
0.97
0.97
0.97
0.93
0.94
0.92
0.9
0.86
0.85
0.83
0.83
0.86
0.88
0.9
0.94
0.99
0.97
0.96
0.95
0.95
0.91
0.92
0.9
0.91
0.92
0.89
0.91
0.94
0.93
0.91
0.91
0.9
0.91
0.91
0.91
0.93
0.93
0.93
0.95
0.97
0.95
0.97
0.96
0.97
0.93
0.94
0.92
0.91
0.88
0.86
0.86
0.83
0.83
0.86
0.94
1.0
1.02
1.04
1.08
1.01
1.01
0.97
0.93
0.91
0.88
0.88
0.89
0.9
0.88
0.88
0.89
0.95
0.95
1.02
1.05
1.02
1.03
1.04
1.0
1.03
1.06
1.04
1.1
1.11
1.08
1.15
1.16
1.08
1.14
1.15
1.15
1.19
1.14
1.09
1.04
1.03
1.01
1.0
1.0
1.01
1.02
0.99
0.97
0.96
0.94
0.9
0.89
0.88
0.87
0.87
0.89
0.91
0.93
0.94
0.97
0.97
0.94
0.97
0.95
0.97
0.97
0.95
0.95
0.96
0.96
0.95
0.95
0.96
0.98
0.96
0.96
0.95
0.93
0.93
0.91
0.91
0.88
0.87
0.87
0.87
0.85
0.85
0.83
0.84
0.82
0.84
0.84
0.87
0.89
0.88
0.88
0.88
0.85
0.84
0.85
0.84
0.84
0.86
0.84
0.84
0.85
0.85
0.84
0.82
0.84
0.83
0.83
0.84
0.86
0.87
0.89
0.87
0.88
0.89
0.88
0.87
0.88
0.88
0.86
0.86
0.88
0.92
0.9
0.93
0.95
0.94
0.92
0.95
0.97
0.98
1.05
1.11
1.16
1.15
1.08
1.09
1.06
1.19
1.19
1.17
1.14
1.11
1.13
1.11
1.08
1.04
1.03
1.03
0.99
1.01
0.98
0.97
1.02
1.06
1.1
1.09
1.02
1.0
0.99
1.02
1.04
1.04
1.03
0.99
0.95
0.92
0.91
0.89
0.87
0.86
0.84
0.83
0.81
0.79
0.79
0.78
0.76
0.75
0.74
0.74
0.73
0.73
0.72
0.72
0.72
0.71
0.72
0.73
0.73
0.72
0.75
0.75
0.77
0.78
0.79
0.78
0.78
0.76
0.78
0.79
0.81
0.81
0.82
0.83
0.83
0.83
0.85
0.83
0.84
0.84
0.85
0.85
0.83
0.82
0.82
0.81
0.81
0.8
0.82
0.83
0.82
0.81
0.81
0.79
0.81
0.8
0.8
0.81
0.81
0.84
0.84
0.86
0.88
0.87
0.87
0.87
0.86
0.84
0.85
0.87
0.9
0.91
0.89
0.91
0.9
0.92
0.91
0.9
0.87
0.84
0.85
0.84
0.84
0.84
0.83
0.84
0.83
0.83
0.83
0.82
0.84
0.84
0.83
0.84
0.84
0.86
0.86
0.89
0.87
0.89
0.9
0.91
0.9
0.89
0.88
0.89
0.89
0.86
0.87
0.89
0.9
0.91
0.88
0.87
0.87
0.86
0.87
0.87
0.88
0.88
0.9
0.89
0.87
0.88
0.87
0.88
0.88
0.87
0.87
0.89
0.89
0.86
0.85
0.83
0.82
0.8
0.81
0.84
0.87
0.88
0.86
0.9
0.91
0.86
0.85
0.83
0.82
0.81
0.79
0.79
0.75
0.74
0.74
0.73
0.72
0.72
0.71
0.72
0.72
0.69
0.69
0.69
0.71
0.69
0.72
0.72
0.73
0.74
0.73
0.73
0.72
0.71
0.7
0.69
0.68
0.68
0.69
0.68
0.71
0.73
0.77
0.8
0.8
0.82
0.83
0.86
0.85
0.85
0.89
0.87
0.85
0.87
0.87
0.83
0.83
0.83
0.89
0.92
1.01
1.05
1.02
0.98
0.98
0.99
1.03
0.99
1.0
0.97
1.0
1.0
1.06
1.08
1.05
0.99
1.0
1.0
1.01
0.98
1.0
1.04
0.99
0.96
0.95
0.96
0.91
0.91
0.9
0.9
0.9
0.87
0.88
0.89
0.91
0.91
0.91
0.89
0.88
0.85
0.84
0.86
0.88
0.85
0.82
0.82
0.8
0.78
0.78
0.76
0.76
0.76
0.74
0.7
0.76
0.74
0.73
0.72
0.73
0.71
0.7
0.69
0.71
0.67
0.69
0.7
0.71
0.8
0.94
1.03
1.02
1.11
1.07
1.03
0.93
0.89
0.86
0.82
0.79
0.79
0.8
0.88
0.92
1.02
1.09
1.08
0.99
0.95
0.96
0.99
1.0
0.97
0.99
1.03
1.03
1.02
1.04
1.06
1.0
0.94
0.94
0.98
1.06
1.05
1.09
1.07
1.03
1.0
1.0
0.96
0.94
0.94
0.94
0.91
0.89
0.93
0.94
0.95
0.92
0.92
0.93
0.96
0.95
0.9
0.85
0.84
0.82
0.79
0.8
0.77
0.87
0.88
0.62
0.63
0.84
0.85
0.78
0.75
0.74
0.75
0.74
0.73
0.73
0.72
0.72
0.72
0.74
0.77
0.81
0.89
0.92
0.9
0.9
0.92
0.97
0.98
0.88
0.93
0.86
0.86
0.93
0.9
1.03
1.03
0.82
0.82
0.95
0.96
0.86
0.86
0.84
0.81
0.82
0.8
0.83
0.85
0.93
0.94
0.92
0.91
0.9
0.86
0.83
0.84
0.81
0.82
0.83
0.89
0.95
0.95
0.92
0.88
0.88
0.88
0.88
0.86
0.83
0.84
0.83
0.82
0.82
0.82
0.81
0.83
0.84
0.87
0.88
0.88
0.86
0.84
0.83
0.83
0.82
0.8
0.78
0.77
0.76
0.73
0.73
0.73
0.72
0.53
0.53
0.57
0.56
0.57
0.71
0.73
0.62
0.73
0.74
0.64
0.89
0.89
0.75
0.87
0.75
0.75
0.81
0.81
0.58
0.59
0.59
0.59
0.74
0.76
0.64
0.71
0.81
0.88
0.78
0.84
0.68
0.68
0.75
0.74
0.73
0.85
0.65
0.66
0.72
0.74
0.77
0.79
0.83
0.85
0.86
0.94
0.97
0.94
0.91
0.91
0.92
0.9
0.88
0.93
0.94
0.86
0.82
0.84
0.81
0.85
0.83
0.87
0.87
0.86
0.84
0.84
0.89
0.94
0.95
0.91
0.96
0.97
0.98
0.92
0.96
0.97
0.99
0.93
0.9
0.98
0.98
0.89
0.88
0.82
0.66
0.76
0.75
0.76
0.74
0.73
0.71
0.76
0.76
0.67
0.79
0.87
0.95
0.92
0.91
0.92
0.9
0.86
0.91
0.94
0.95
0.9
0.91
0.93
0.93
0.89
0.83
0.78
0.77
0.88
0.73
0.73
0.95
1.07
1.12
1.05
1.05
1.03
0.98
0.92
0.95
0.98
1.04
0.99
1.0
1.1
1.15
1.05
0.99
1.01
1.01
1.05
0.98
0.98
1.03
1.06
1.0
0.94
0.93
0.97
1.04
1.04
0.98
1.0
1.0
0.98
0.92
0.94
0.95
0.98
0.92
0.94
0.94
0.95
0.9
0.97
1.03
1.05
1.01
0.98
0.99
0.99
0.96
0.97
0.98
0.98
0.95
0.91
0.99
1.05
1.03
1.01
1.02
1.01
0.96
0.91
0.92
0.87
0.82
0.79
0.8
0.89
0.92
1.02
1.06
1.17
0.99
0.69
0.69
0.83
0.7
0.74
0.86
0.71
0.65
0.78
0.72
0.59
0.8
0.8
0.68
0.93
0.93
0.93
0.88
0.83
0.96
0.87
0.87
1.05
1.01
1.01
1.04
1.01
0.97
0.92
0.83
0.83
0.79
0.92
0.69
0.99
1.05
1.01
1.07
1.05
1.04
0.91
0.9
0.86
0.82
0.94
0.8
0.71
0.93
0.98
1.08
1.09
1.02
0.99
1.0
0.98
0.94
0.95
0.99
1.0
0.97
0.95
0.99
1.0
0.93
0.9
0.88
0.89
0.94
0.91
0.93
1.0
0.9
0.98
0.82
0.69
0.86
0.88
0.96
1.05
1.06
1.02
0.99
1.0
1.04
1.02
0.97
1.02
1.04
1.04
0.98
1.02
1.04
1.04
0.98
0.97
0.96
0.97
0.91
0.89
0.92
0.89
0.83
0.82
0.87
0.91
1.01
0.93
0.83
0.98
0.98
0.79
0.73
0.84
0.69
0.7
0.9
0.78
0.63
0.84
0.85
0.76
1.01
0.97
1.03
1.02
1.0
0.94
1.0
0.99
0.99
0.89
0.9
0.9
0.84
0.81
0.8
0.86
0.91
0.94
1.03
0.94
0.99
0.99
0.9
0.85
0.83
0.98
0.81
0.81
0.92
1.02
1.06
1.03
0.99
1.01
1.01
1.04
0.97
0.97
1.01
1.06
0.99
0.97
1.0
1.03
1.0
0.97
0.99
0.91
0.84
0.82
0.96
0.8
0.8
0.96
1.05
1.02
0.97
0.96
1.01
1.03
0.97
0.97
0.96
0.93
0.85
0.82
0.84
0.86
0.87
0.91
0.95
0.99
0.96
0.9
0.89
0.87
0.86
0.83
0.81
0.78
0.62
0.53
0.54
0.75
0.86
0.93
0.81
0.91
0.92
0.81
0.63
0.78
0.9
0.76
0.75
0.75
0.6
0.75
0.76
0.78
0.8
0.83
0.82
0.84
0.85
0.82
0.81
0.79
0.84
1.0
1.06
1.02
1.06
1.01
0.99
1.0
0.85
0.84
0.82
0.77
0.77
0.86
0.87
0.89
0.93
0.94
0.93
0.91
0.94
0.97
0.96
0.91
0.93
0.87
0.84
0.81
0.8
0.85
0.97
1.0
1.12
1.12
1.08
1.01
1.01
0.99
0.95
0.91
0.91
0.95
0.93
0.87
0.85
0.93
1.01
0.99
1.04
1.07
1.06
1.01
0.95
0.98
0.98
1.01
0.98
0.96
1.03
1.06
1.04
0.98
1.01
0.99
0.97
0.93
0.95
1.01
1.04
0.99
1.02
1.03
0.99
0.97
0.99
1.0
0.99
0.92
0.97
1.02
1.05
0.98
1.02
1.04
1.01
0.96
1.0
1.02
0.93
0.88
0.81
0.8
0.83
0.89
0.84
0.89
0.9
0.86
0.84
0.87
0.83
0.76
0.93
0.92
0.97
1.03
1.04
1.03
0.98
1.02
1.05
1.03
0.92
0.93
0.97
1.01
0.92
0.84
0.83
0.88
0.99
1.0
1.12
1.11
1.08
0.93
0.9
0.89
0.84
0.82
0.81
0.89
1.04
1.07
1.12
1.15
0.94
0.9
0.87
0.84
0.8
0.93
0.83
0.76
0.8
0.99
0.88
0.98
0.81
0.74
0.87
0.69
0.87
0.93
0.95
0.91
0.86
0.85
0.89
0.99
1.05
0.99
1.01
1.0
0.99
0.9
0.96
0.8
0.82
0.74
0.9
1.01
1.05
0.98
0.95
0.89
0.84
0.86
0.9
0.94
0.95
0.92
1.02
1.0
0.92
0.86
0.97
0.78
0.79
0.91
1.01
1.02
1.0
1.0
1.01
0.99
0.94
0.93
0.92
0.9
0.84
0.95
0.85
0.68
0.98
0.98
0.74
0.74
0.9
0.91
0.7
0.71
0.61
0.5
0.45
0.76
0.73
0.71
0.71
0.69
0.77
0.51
0.52
0.46
0.46
0.66
0.56
0.76
0.69
0.54
1.11
1.12
0.93
0.96
0.87
0.89
0.96
1.03
0.98
0.94
0.83
0.86
0.81
0.88
0.88
0.88
0.85
0.82
0.78
0.77
0.77
0.76
0.76
0.66
1.04
0.97
0.95
0.87
0.87
0.87
0.89
0.92
0.92
0.89
0.83
0.78
0.8
0.76
0.76
0.74
0.75
0.76
0.8
0.83
0.89
0.98
1.03
0.99
0.91
0.91
0.91
0.91
0.9
0.88
0.98
1.06
1.07
0.95
0.97
0.99
0.96
0.9
0.9
0.85
0.83
0.79
0.78
0.82
0.93
0.97
0.95
1.0
0.9
0.92
0.87
0.84
0.82
0.8
0.81
0.78
0.77
0.77
0.84
0.95
1.04
1.11
1.12
1.02
1.02
1.02
1.01
0.98
0.95
0.99
1.04
1.02
0.99
0.94
1.02
1.07
1.05
1.01
0.96
0.98
0.96
0.96
0.91
0.93
0.92
0.89
0.85
0.82
0.82
0.89
0.97
0.95
1.0
0.98
0.92
0.92
0.9
0.87
0.85
0.9
0.94
0.94
0.99
1.05
1.04
0.98
0.98
0.98
1.0
0.94
0.96
0.97
1.03
1.04
1.08
1.07
1.03
1.0
1.02
1.03
1.0
0.98
1.02
1.03
0.97
0.87
0.85
0.89
0.88
0.9
0.98
1.0
0.97
0.9
0.91
0.95
0.98
0.97
0.95
1.03
1.09
1.09
1.03
1.04
1.04
1.01
0.95
0.94
0.96
1.08
1.08
1.11
1.12
1.11
1.07
1.07
1.05
0.99
0.93
0.94
0.89
0.85
0.81
0.82
0.93
1.03
1.02
1.09
1.16
1.07
0.98
0.9
0.82
0.8
0.75
0.76
0.82
0.93
1.07
1.09
1.03
1.05
1.04
0.89
0.9
0.92
0.87
0.85
0.81
0.79
0.78
0.79
0.77
0.8
0.89
1.07
1.09
1.03
1.0
0.99
0.88
0.84
0.85
0.92
1.02
1.05
1.03
1.05
1.01
0.91
0.84
0.85
0.92
1.0
0.99
1.01
1.01
0.97
0.88
0.83
0.86
0.88
0.9
1.0
1.02
0.96
0.91
0.94
0.91
0.85
0.83
0.86
0.88
0.94
1.01
1.04
1.0
1.02
1.02
1.0
0.94
0.97
0.96
1.0
0.97
1.02
1.06
1.07
1.02
1.05
1.07
1.05
1.03
1.05
1.07
1.03
1.03
1.03
0.99
0.95
1.01
1.06
1.05
1.04
1.06
1.06
1.03
0.98
1.01
1.02
1.0
0.96
0.97
0.98
1.0
1.01
1.03
1.05
1.02
0.98
1.03
1.05
1.05
1.01
1.05
1.05
1.02
0.99
1.02
1.03
0.99
1.03
1.08
1.07
1.06
1.06
1.0
0.95
0.9
0.94
0.98
0.91
0.83
0.84
0.87
0.87
0.85
0.82
0.81
0.81
0.81
0.8
0.81
0.8
0.78
0.77
0.75
0.73
0.74
0.67
0.68
0.76
0.76
0.72
0.71
0.75
0.77
0.83
0.83
0.81
0.79
0.81
0.78
0.79
0.77
0.76
0.8
0.85
0.86
0.9
1.0
1.07
1.01
0.93
0.95
0.98
1.01
0.96
1.01
1.03
1.06
0.99
1.05
1.1
1.06
1.07
1.09
1.09
1.05
1.05
1.08
1.11
1.06
1.06
1.08
1.05
1.03
1.06
1.08
1.04
1.05
1.08
1.05
0.98
0.99
1.0
0.97
0.88
0.84
0.89
1.08
1.08
1.13
1.14
1.1
1.03
1.01
1.02
0.98
0.95
1.03
1.09
1.06
1.04
1.1
1.11
1.07
1.08
1.07
1.04
1.02
1.03
1.05
0.98
0.95
0.91
0.88
0.81
0.79
0.78
0.84
1.05
1.06
0.89
0.97
0.89
0.91
0.92
0.98
1.01
0.99
0.94
0.98
1.06
1.02
0.93
0.9
0.87
0.83
0.82
0.87
1.06
1.08
1.09
1.13
1.15
1.09
1.03
1.07
1.13
1.15
1.12
1.13
1.13
1.1
1.02
1.02
1.07
1.08
1.06
1.1
1.11
1.05
1.09
1.07
1.07
1.03
1.07
1.12
1.1
1.06
1.08
1.08
1.05
1.08
1.1
1.09
1.06
1.06
1.07
1.05
1.01
1.02
1.04
1.01
1.04
1.08
1.09
1.06
1.08
1.08
1.03
1.04
1.05
1.04
1.01
1.01
1.03
1.03
0.97
0.94
0.98
1.05
1.06
1.08
1.14
1.14
1.06
1.1
1.08
1.02
1.06
1.06
1.05
1.02
1.03
1.07
1.03
1.01
1.02
1.01
0.99
1.06
1.09
1.08
1.08
1.1
1.1
1.08
1.03
1.01
1.02
0.96
0.95
1.01
1.03
1.0
1.04
1.03
1.02
1.01
1.03
1.04
1.01
1.04
1.09
1.11
1.04
1.07
1.1
1.08
1.11
1.09
1.07
1.09
1.06
1.04
1.08
1.04
1.0
1.04
1.08
1.06
1.0
1.03
1.05
1.02
1.0
1.08
1.18
1.14
1.17
1.19
1.18
1.08
1.09
1.08
1.05
1.02
1.03
1.03
1.0
1.01
1.05
1.05
1.05
1.07
1.06
1.03
1.01
1.04
1.07
1.05
1.04
1.05
1.07
1.03
1.05
1.03
0.98
0.94
0.98
1.03
1.04
1.05
1.09
1.08
0.99
1.02
0.95
0.89
0.88
0.86
0.83
0.83
0.93
1.07
1.23
1.22
1.2
1.18
1.17
1.11
1.1
1.04
1.04
1.06
1.05
0.96
0.98
1.04
1.1
1.25
1.28
1.26
1.21
1.23
1.21
1.12
1.06
1.06
1.12
1.1
1.15
1.18
1.14
1.1
1.11
1.13
1.08
1.03
1.05
1.02
0.98
1.04
1.06
1.02
1.04
1.1
1.11
1.1
1.12
1.1
1.02
1.02
1.06
1.03
1.03
1.08
1.13
1.12
1.11
1.1
1.04
1.05
1.06
1.05
1.0
1.04
1.1
1.11
1.05
1.09
1.09
1.05
1.08
1.1
1.11
1.07
1.11
1.13
1.04
1.01
0.99
0.93
0.92
0.89
0.89
0.84
0.82
0.81
0.83
0.81
0.83
0.8
0.81
0.82
0.98
0.82
0.81
0.79
0.8
0.82
0.84
0.93
1.04
1.1
1.13
1.17
1.21
1.23
1.2
1.15
1.16
1.15
1.11
1.13
1.09
1.02
0.96
0.98
1.11
1.22
1.12
1.08
1.18
1.2
1.16
1.14
1.19
1.17
1.12
1.04
1.05
1.08
1.05
1.14
1.06
1.02
0.95
0.88
0.9
0.93
0.93
0.91
1.27
1.25
1.25
1.27
1.19
1.1
1.1
1.09
1.03
1.02
1.03
1.08
1.08
1.18
1.19
1.16
1.09
1.08
1.09
1.14
1.04
1.01
1.09
1.15
1.15
1.16
1.17
1.13
1.11
1.09
1.08
1.04
1.08
1.07
1.09
1.03
1.02
1.04
1.02
1.08
1.09
1.11
1.13
1.08
1.1
1.09
1.11
1.03
1.0
0.96
0.93
0.86
0.85
0.89
1.02
1.08
1.08
1.08
1.04
1.05
1.02
1.0
0.89
0.83
0.8
0.8
0.78
0.76
0.78
0.83
1.02
1.03
1.12
1.21
1.2
1.11
1.09
1.06
1.05
1.02
1.07
1.16
1.1
1.07
1.01
1.01
1.13
1.16
1.16
1.19
1.2
1.15
1.09
1.1
1.08
1.03
1.02
1.15
1.2
1.16
1.16
1.15
1.11
1.01
0.98
0.97
1.0
0.97
1.04
1.11
1.14
1.1
1.14
1.12
1.07
1.07
1.08
1.08
1.02
1.07
1.09
1.05
1.06
1.08
1.04
0.99
1.02
1.05
1.04
1.02
1.04
1.08
1.03
1.07
1.08
1.02
0.93
0.92
0.94
0.97
1.07
1.17
1.18
1.11
1.16
1.15
1.09
1.13
1.13
1.13
1.12
1.1
1.04
0.99
0.99
1.0
1.14
1.22
1.18
1.2
1.18
1.11
1.1
1.11
1.09
1.03
1.04
1.09
1.08
1.09
1.11
1.12
1.06
1.09
1.04
1.02
1.02
1.07
1.09
1.1
1.16
1.15
1.07
1.0
1.0
1.05
0.93
0.89
0.9
0.93
0.95
1.07
1.11
1.03
1.08
1.0
0.91
0.89
0.86
0.83
0.82
0.78
0.78
0.77
0.78
0.79
0.8
0.85
0.9
1.01
1.0
0.95
1.0
1.01
1.02
0.9
0.88
0.89
0.95
1.07
1.08
1.16
1.17
1.14
1.08
1.12
1.13
1.1
1.05
1.12
1.13
1.09
0.99
1.02
1.08
1.08
1.08
1.1
1.11
1.11
1.12
1.16
1.12
1.04
0.98
0.98
0.96
0.98
0.96
1.0
1.06
1.01
0.98
0.93
0.89
0.84
0.87
1.02
1.05
1.13
1.18
1.17
1.13
1.1
1.08
1.02
1.03
1.07
1.11
1.08
1.09
1.08
1.07
1.0
1.0
1.03
1.1
1.06
1.08
1.12
1.09
1.05
1.08
1.06
1.06
1.02
1.05
1.04
1.0
0.98
1.03
1.02
0.99
0.99
1.05
1.12
1.15
1.22
1.23
1.14
1.16
1.11
1.05
0.99
1.0
1.04
1.06
1.09
1.06
1.09
1.12
1.1
1.02
1.03
1.01
0.99
1.02
1.12
1.13
1.09
1.09
1.14
1.1
1.03
1.05
1.06
1.07
1.04
1.06
1.08
0.99
1.03
1.03
0.98
1.0
1.02
1.05
1.04
1.06
1.1
1.05
1.07
1.09
1.08
1.05
1.01
0.99
0.97
1.0
0.96
0.95
0.94
0.98
1.0
1.0
0.98
1.0
0.93
0.87
0.87
0.83
0.82
0.79
0.78
0.76
0.73
0.74
0.73
0.74
0.73
0.72
0.74
0.74
0.73
0.73
0.73
0.71
0.71
0.72
0.72
0.74
0.79
0.85
0.99
0.96
0.96
0.99
1.06
1.04
1.01
1.1
1.1
1.01
0.94
0.96
0.94
0.86
0.84
0.75
0.75
0.91
0.91
0.85
0.8
0.82
0.86
1.06
1.04
1.12
1.14
1.11
1.08
1.13
1.16
1.08
1.08
1.13
1.18
1.13
1.13
1.14
1.07
1.02
1.05
1.12
1.15
1.12
1.19
1.23
1.18
1.12
1.09
1.09
1.03
1.08
1.13
1.12
1.04
1.06
1.09
1.13
1.07
1.06
1.08
1.08
1.03
1.09
1.12
1.1
1.13
1.12
1.1
1.03
1.02
1.04
0.97
0.94
0.95
0.92
0.88
0.91
0.93
0.88
0.88
0.98
1.05
1.02
1.09
1.0
0.91
0.85
0.83
0.85
1.04
1.1
1.14
1.19
1.18
1.13
1.16
1.09
1.06
1.02
1.09
1.19
1.14
1.1
1.13
1.14
1.04
1.06
1.05
1.05
1.09
1.1
1.06
1.13
1.15
1.12
1.02
1.05
1.12
1.12
1.17
1.21
1.16
1.14
1.12
1.13
1.09
1.08
1.09
1.07
1.03
1.05
1.03
1.0
0.96
0.96
0.97
1.06
1.1
1.16
1.14
1.11
1.11
1.12
1.13
1.15
1.19
1.08
1.03
1.03
1.0
0.97
0.96
1.03
0.98
0.86
0.82
0.87
1.05
1.16
1.34
1.28
1.2
1.12
1.11
1.05
1.06
0.97
1.0
1.07
1.05
0.97
1.04
1.07
1.13
1.12
1.18
1.19
1.13
1.13
1.1
1.03
1.07
1.19
1.21
1.16
1.2
1.2
1.15
1.09
1.09
1.12
1.05
0.96
0.97
0.98
1.03
1.08
1.28
1.31
1.21
1.21
1.17
1.12
1.07
1.04
1.06
1.04
1.02
1.06
1.13
1.17
1.08
1.03
1.03
1.08
1.05
1.04
1.05
1.02
1.08
1.11
1.13
1.09
1.1
1.05
0.94
0.88
0.9
0.99
1.08
1.19
1.34
1.34
1.32
1.31
1.23
1.16
1.13
1.09
1.03
0.98
1.02
1.02
1.02
1.06
1.04
0.98
0.99
1.04
1.05
1.1
1.16
1.12
1.09
1.07
1.03
1.01
1.06
1.09
1.08
1.07
1.11
1.12
1.05
1.0
1.0
1.03
1.08
1.17
1.23
1.13
1.14
1.13
1.09
1.06
1.0
0.97
1.01
1.14
1.22
1.15
1.18
1.13
1.09
1.12
1.1
1.05
1.04
1.03
0.99
1.0
0.98
0.94
0.9
0.91
0.94
0.97
1.16
1.31
1.26
1.28
1.26
1.11
1.04
1.06
1.07
1.1
1.11
1.15
1.17
1.12
1.08
1.08
1.07
1.06
1.1
1.1
1.05
1.08
1.07
1.08
1.04
1.06
1.03
0.97
0.9
0.91
0.96
1.05
1.18
1.31
1.31
1.31
1.33
1.22
1.13
1.11
1.08
1.04
1.08
1.07
1.05
1.06
1.03
1.04
1.08
1.11
1.05
1.1
1.09
1.03
0.99
1.01
1.06
1.07
1.18
1.22
1.19
1.21
1.21
1.12
1.11
1.1
1.09
1.06
1.09
1.09
1.07
1.11
1.14
1.11
1.04
1.02
1.01
1.01
1.0
1.14
1.22
1.17
1.12
1.13
1.09
1.03
1.04
1.03
0.96
0.94
0.96
1.0
1.01
1.1
1.15
1.07
1.02
0.99
0.94
0.93
0.96
1.06
1.13
1.1
1.15
1.13
1.09
1.03
0.96
0.87
0.83
0.81
0.84
0.9
1.06
1.03
0.91
0.88
0.93
1.08
1.09
1.14
1.17
1.2
1.11
1.15
1.17
1.06
0.97
0.99
1.13
1.2
1.12
1.16
1.21
1.15
1.04
0.98
0.96
0.97
1.18
1.23
1.16
1.1
1.12
1.11
1.07
1.01
0.96
0.96
0.92
0.9
0.96
1.11
1.12
1.09
1.23
1.29
1.21
1.22
1.18
1.13
1.15
1.12
1.05
1.0
0.98
1.01
1.03
0.97
0.9
0.86
0.88
0.89
0.93
0.97
1.02
0.95
0.88
0.92
1.02
1.06
1.14
1.17
1.17
1.1
1.15
1.15
1.12
1.07
1.05
1.08
1.06
1.08
1.14
1.13
1.09
1.19
1.2
1.06
0.98
0.93
0.92
0.91
0.89
0.93
1.31
1.29
1.24
1.27
1.29
1.25
1.21
1.2
1.14
1.05
1.04
1.05
1.06
1.03
1.03
1.05
1.05
1.0
1.0
0.96
0.97
0.95
1.05
1.24
1.28
1.25
1.28
1.21
1.18
1.16
1.13
1.04
1.06
1.03
0.99
0.97
1.04
1.02
0.93
0.92
1.01
1.18
1.25
1.33
1.27
1.26
1.23
1.16
1.17
1.12
1.1
1.07
1.08
1.0
1.03
1.06
1.03
1.02
0.97
0.94
0.92
0.99
1.2
1.21
1.23
1.26
1.18
1.1
1.09
1.06
0.98
1.01
1.01
1.01
0.98
1.01
1.01
0.96
0.9
0.86
0.88
0.93
1.21
1.3
1.3
1.38
1.22
1.15
1.19
1.16
1.11
1.16
1.16
1.05
0.98
0.98
1.01
1.12
1.21
1.32
1.25
1.22
1.18
1.14
1.1
1.01
0.93
0.96
1.06
1.21
1.21
1.24
1.23
1.17
1.18
1.15
1.09
1.11
1.09
1.02
1.0
1.0
0.98
1.04
1.11
1.13
1.17
1.18
1.16
1.1
1.12
1.05
0.97
0.92
0.98
1.13
1.14
1.17
1.18
1.18
1.11
1.09
1.08
1.01
1.02
1.02
1.01
1.01
1.04
1.04
1.01
1.01
1.05
1.02
0.92
0.89
0.86
0.86
0.88
1.07
1.29
1.31
1.33
1.3
1.19
1.17
1.14
1.06
1.07
1.09
1.11
1.06
1.09
1.11
1.11
1.07
1.06
1.04
0.92
0.88
0.89
0.92
0.99
1.25
1.19
1.25
1.25
1.25
1.22
1.2
1.17
1.1
1.05
1.07
1.09
1.07
1.08
1.03
0.98
0.99
1.02
1.07
1.06
1.08
1.09
1.04
0.99
0.94
0.91
0.87
0.84
0.75
0.75
0.95
0.86
0.87
0.85
0.82
0.82
0.82
0.72
0.72
0.86
0.87
0.67
0.76
0.74
0.73
0.73
0.72
0.72
0.69
0.97
1.05
0.69
0.68
0.72
0.73
0.62
0.75
0.8
0.83
0.6
0.73
0.88
0.72
0.68
0.7
0.71
0.71
0.69
0.69
0.7
0.56
0.85
0.72
0.6
0.61
0.76
0.77
0.98
0.75
0.77
0.81
0.81
0.69
0.94
0.83
0.8
0.78
0.76
0.75
0.76
0.75
0.76
0.76
0.66
0.86
0.62
0.75
0.76
0.83
0.92
0.9
0.95
0.68
0.78
0.75
0.73
0.72
0.71
0.71
0.75
0.81
0.95
0.99
0.92
0.92
0.96
0.98
0.88
0.83
0.8
0.79
0.79
0.83
0.88
0.88
0.92
1.06
1.0
1.0
0.81
0.81
0.92
0.8
0.63
0.64
0.5
0.51
0.7
0.74
0.72
0.71
0.69
0.68
0.8
0.63
0.63
0.76
0.96
1.07
1.0
0.94
0.96
0.98
0.89
0.87
0.9
0.96
0.97
0.94
0.99
1.04
0.99
0.96
1.0
1.04
0.99
0.94
0.98
1.01
1.0
0.97
1.03
1.09
1.09
1.02
1.07
1.07
1.04
0.95
1.0
1.02
1.04
0.98
1.04
1.1
1.09
1.02
0.92
0.89
0.88
0.84
0.82
0.79
0.81
1.04
1.14
1.07
1.12
1.18
1.17
1.1
1.09
1.06
1.06
1.0
1.06
1.13
1.08
1.07
1.12
1.09
1.05
1.06
1.11
1.05
1.1
1.12
1.03
0.93
0.93
1.04
1.14
1.13
1.23
1.21
1.14
1.13
1.12
1.06
1.03
1.07
1.1
1.07
1.02
0.97
0.99
1.03
1.04
1.01
1.06
1.07
1.05
1.04
1.05
1.03
0.98
0.93
0.96
0.98
0.99
0.94
0.9
0.95
0.99
0.96
0.94
0.97
0.96
0.95
0.92
0.94
0.96
0.96
0.9
0.87
0.89
0.94
0.94
0.92
0.96
1.01
1.03
0.96
0.92
0.96
1.03
1.0
0.94
0.99
1.11
1.1
1.04
1.08
1.1
1.07
1.02
1.06
1.12
1.08
1.03
1.0
0.98
0.95
0.9
0.91
0.86
0.94
0.83
0.83
1.01
1.09
1.12
1.06
1.0
0.96
1.0
0.99
0.97
0.92
1.02
1.15
1.12
1.09
1.12
1.12
1.05
1.0
1.04
1.09
1.02
1.0
1.08
0.99
0.99
0.97
1.12
1.2
1.16
1.08
1.13
1.11
1.07
1.08
1.11
1.12
1.08
1.1
1.1
1.08
1.02
1.04
1.03
0.96
0.91
1.01
1.13
1.12
1.23
1.29
1.25
1.2
1.18
1.12
1.04
1.05
1.07
1.09
1.04
1.04
1.1
1.09
1.05
1.02
0.99
0.93
0.96
1.1
1.16
1.19
1.24
1.15
1.15
1.14
1.08
1.06
1.06
1.05
1.05
1.01
1.09
1.11
1.04
1.08
1.06
1.04
1.04
1.02
0.99
0.95
0.95
0.93
0.87
0.83
0.88
1.02
0.93
0.99
1.02
1.02
0.98
1.0
0.97
0.99
0.98
1.07
1.16
1.17
1.13
1.15
1.13
1.12
1.15
1.12
1.13
1.14
1.09
1.03
1.06
1.12
1.18
1.12
1.15
1.16
1.11
1.07
1.13
1.14
1.11
1.18
1.17
1.11
1.08
1.01
0.97
0.91
0.91
1.05
1.21
1.23
1.42
1.42
1.14
1.14
1.19
1.15
1.09
1.06
1.05
1.0
0.95
1.0
1.04
1.07
1.04
1.08
1.08
1.04
1.01
1.03
1.07
1.05
1.02
1.03
0.98
0.92
0.94
0.9
0.86
0.89
0.98
1.02
1.06
1.19
1.24
1.26
1.17
1.2
1.16
1.11
1.11
1.13
1.03
1.02
1.06
1.07
1.06
1.11
1.12
1.08
1.1
1.13
1.16
1.1
1.12
1.14
1.15
1.15
1.14
1.07
0.97
0.89
0.91
1.03
1.13
1.19
1.25
1.38
1.35
1.29
1.29
1.22
1.13
1.12
1.11
1.09
1.02
1.04
1.08
1.07
1.03
1.03
1.02
0.93
0.9
0.91
0.87
0.83
0.9
1.2
1.43
1.26
1.37
1.23
1.24
1.17
1.12
1.14
1.12
1.03
1.02
1.1
1.12
1.07
1.07
1.12
1.14
1.09
1.12
1.15
1.1
1.11
1.1
1.08
1.05
1.01
1.03
1.0
1.09
1.11
1.05
1.08
1.12
1.1
1.09
1.17
1.09
1.09
1.03
0.99
0.99
1.07
1.13
1.11
1.19
1.2
1.1
1.1
1.12
1.09
1.03
1.05
1.0
0.94
0.92
1.0
1.1
1.09
1.14
1.12
1.03
1.06
1.12
1.09
1.13
1.16
1.11
1.05
1.09
1.09
1.06
0.99
1.02
1.12
1.12
1.15
1.16
1.14
1.1
1.12
1.07
1.01
1.04
1.15
1.11
1.1
1.13
1.07
1.02
1.04
1.07
1.0
1.07
1.1
1.13
1.09
1.07
1.13
1.08
1.02
1.07
1.14
1.04
0.99
0.92
0.92
0.86
0.87
0.92
0.93
0.97
1.12
1.28
0.61
0.62
1.27
1.29
1.18
1.12
1.09
1.05
0.97
0.98
0.97
1.0
1.19
1.2
1.25
1.24
1.2
1.12
1.11
1.1
1.02
1.01
1.05
1.1
1.03
1.05
1.08
1.01
0.97
0.96
1.01
1.02
1.14
1.24
1.16
1.21
1.23
1.08
1.1
1.13
1.12
1.05
1.13
1.12
1.06
1.05
1.08
1.1
0.99
0.98
0.98
0.97
0.91
0.95
1.11
1.21
1.43
1.34
1.28
1.1
1.25
1.2
1.11
1.06
1.11
1.07
1.11
1.12
1.09
1.09
1.15
1.15
1.08
1.13
1.08
1.0
0.97
1.06
1.21
1.12
1.16
1.16
1.1
1.03
1.1
1.11
1.07
1.15
1.23
1.23
1.18
1.22
1.24
1.08
1.06
1.1
1.11
1.23
1.19
1.08
0.97
0.99
1.16
1.18
1.15
1.21
1.2
1.13
1.11
1.14
1.1
1.04
1.07
1.04
1.02
0.95
0.96
1.07
1.08
1.18
1.24
1.18
1.18
1.16
1.03
0.96
0.98
1.09
1.08
1.16
1.15
1.11
1.11
1.1
1.07
1.16
1.22
1.18
1.14
1.17
1.1
1.04
1.06
1.13
1.09
1.09
1.15
1.12
1.05
1.02
0.99
0.93
0.95
1.14
1.21
1.21
1.26
1.2
1.11
1.12
1.09
1.06
1.1
1.08
1.11
1.16
1.1
1.01
0.92
0.87
0.88
0.95
1.34
1.32
1.38
1.39
1.27
1.24
1.25
1.2
1.09
1.09
1.09
1.06
1.05
1.06
1.08
1.03
1.05
1.04
0.99
0.95
0.92
0.95
0.96
0.98
1.15
1.16
1.1
1.12
1.15
1.1
1.08
1.14
1.06
1.01
1.09
1.11
1.1
1.15
1.16
1.12
1.14
1.15
1.05
0.99
0.94
0.97
1.01
1.15
1.16
1.16
1.1
1.13
1.16
1.12
1.17
1.11
1.09
1.12
1.13
1.06
1.07
1.04
0.99
0.96
0.94
0.92
0.95
1.27
1.33
1.24
1.3
1.24
1.19
1.17
1.19
1.09
1.05
1.08
1.1
1.07
1.08
1.15
1.15
1.08
1.12
1.06
0.98
0.97
1.08
1.17
1.13
1.16
1.14
1.04
1.06
1.08
1.01
1.04
1.02
1.04
1.09
1.08
1.03
1.11
1.13
1.1
1.1
1.08
1.01
0.98
0.92
0.89
0.87
0.95
1.03
1.03
0.98
1.08
1.15
1.13
1.24
1.24
1.21
1.22
1.25
1.19
1.19
1.19
1.13
1.14
1.16
1.1
1.01
1.0
1.03
1.1
1.08
0.98
0.98
1.1
1.19
1.12
1.17
1.2
1.18
1.06
1.09
1.09
1.03
1.03
1.05
1.03
0.96
0.95
1.03
1.05
1.01
0.97
0.93
0.95
0.99
1.18
1.24
1.16
1.16
1.17
1.11
1.1
1.14
1.09
1.05
1.09
1.09
1.12
1.15
1.07
1.05
1.07
0.99
0.91
0.88
0.92
1.0
1.16
1.32
1.26
1.46
1.46
1.1
1.23
1.24
1.16
1.04
1.07
1.09
1.1
1.18
1.15
1.06
1.07
1.09
1.09
1.0
0.94
0.89
0.88
0.89
1.0
1.22
1.18
1.23
1.18
1.11
1.12
1.1
1.03
1.0
1.06
1.08
1.02
1.09
1.12
1.07
1.01
0.94
0.91
0.89
1.01
1.3
1.27
1.3
1.4
1.32
1.2
1.15
1.08
1.11
1.04
1.01
1.06
1.03
1.03
1.1
1.05
1.04
1.2
1.26
1.21
1.18
1.17
1.11
1.1
1.11
1.14
1.07
1.08
1.11
1.11
1.12
1.12
1.12
1.05
0.96
0.96
0.98
1.05
1.24
1.32
1.25
1.25
1.25
1.17
1.14
1.15
1.11
1.05
1.05
1.05
1.02
1.01
1.08
1.05
1.02
1.03
0.97
0.94
0.94
1.03
1.17
1.13
1.18
1.17
1.21
1.15
1.09
1.06
1.02
0.95
0.99
1.02
1.03
1.06
1.05
0.99
0.93
0.96
1.05
1.1
1.11
1.2
1.14
1.14
1.13
1.1
1.09
1.11
1.07
1.07
1.11
1.08
1.04
1.09
1.08
1.11
1.17
1.15
1.1
1.07
1.0
1.0
1.13
1.21
1.17
1.18
1.16
1.08
1.05
1.09
1.13
1.07
1.12
1.12
1.08
1.11
1.11
1.05
1.06
1.1
1.13
1.04
0.97
0.93
0.92
0.91
1.14
1.26
1.21
1.23
1.25
1.19
1.14
1.14
1.06
1.03
1.07
1.04
1.01
1.03
1.11
1.08
1.1
1.1
1.11
1.0
0.97
0.93
0.89
0.89
1.04
1.26
1.21
1.25
1.25
1.12
1.06
1.08
1.09
1.06
1.11
1.19
1.15
1.14
1.16
1.12
1.1
1.15
1.11
1.03
0.94
0.91
0.96
1.01
0.94
0.96
1.11
1.17
1.28
1.28
1.18
1.2
1.19
1.1
1.1
1.11
1.07
1.03
1.03
1.1
1.09
1.13
1.15
1.16
1.06
1.05
1.05
1.01
0.95
0.94
0.94
0.96
1.11
1.16
1.12
1.05
1.03
1.06
1.04
1.08
1.08
1.08
1.11
1.08
1.05
1.1
1.1
1.09
1.13
1.14
1.07
1.08
1.14
1.09
1.14
1.08
0.96
0.92
0.94
1.07
1.11
1.22
1.23
1.16
1.16
1.17
1.11
1.07
1.09
1.09
1.02
1.04
1.03
1.04
1.01
1.07
1.12
1.07
1.07
1.06
0.94
0.92
0.98
1.05
1.12
1.19
1.16
1.17
1.18
1.16
1.07
1.1
1.07
1.05
1.07
1.1
1.08
1.1
1.1
1.05
1.01
1.04
1.04
1.08
1.03
1.09
1.14
1.08
1.07
1.02
0.99
0.95
1.05
1.05
1.03
1.09
1.1
1.06
1.05
1.09
1.09
1.05
1.1
1.12
1.09
1.16
1.18
1.12
1.11
1.13
1.03
1.03
1.06
1.12
1.06
1.17
1.17
1.17
1.2
1.11
1.06
1.04
0.98
0.95
1.0
1.11
1.09
1.06
1.13
1.17
1.13
1.08
1.1
1.12
1.0
0.98
1.01
1.02
1.01
1.02
1.06
1.05
0.98
0.95
0.95
1.02
1.01
1.08
1.12
1.12
1.11
1.03
1.03
1.03
0.96
0.97
0.98
0.95
1.03
1.06
1.05
1.01
1.05
1.08
1.02
1.04
1.06
1.03
1.06
1.05
1.0
0.95
0.96
1.0
1.01
1.12
1.15
1.09
1.14
1.13
1.1
1.09
1.15
1.13
1.05
1.07
1.09
1.02
1.06
1.08
1.05
1.03
1.06
0.97
0.87
0.84
0.92
1.08
1.07
1.37
1.37
1.25
1.25
1.26
1.28
1.29
1.13
1.19
1.17
1.15
1.03
1.05
1.08
1.15
1.17
1.13
1.15
1.12
1.02
0.97
0.9
0.86
0.88
0.99
1.15
0.73
0.73
1.36
1.28
1.38
1.19
1.43
0.98
1.17
1.09
1.09
1.11
1.06
1.01
1.08
1.09
1.05
1.11
1.12
1.06
1.09
1.12
1.04
1.06
1.09
1.03
0.91
0.88
0.95
1.11
1.28
1.32
1.27
1.25
1.25
1.19
1.14
1.17
1.11
1.05
1.07
1.03
0.97
0.99
1.09
1.08
1.03
1.07
1.08
1.08
1.0
0.98
0.92
0.9
1.03
1.23
1.2
1.19
1.24
1.19
1.13
1.12
1.05
1.0
1.07
1.11
1.07
1.04
1.11
1.1
1.1
1.13
1.14
1.06
1.05
1.05
1.14
1.19
1.26
1.22
1.12
1.08
1.09
1.09
1.13
1.16
1.12
1.06
1.14
1.15
1.12
1.19
1.21
1.12
1.14
1.16
1.09
1.02
1.04
1.03
1.04
1.13
1.13
1.03
1.07
1.05
1.03
0.96
0.91
0.99
1.08
1.12
1.1
1.15
1.13
1.12
1.17
1.16
1.06
1.08
1.08
1.04
1.04
1.09
1.08
1.1
1.1
1.07
1.03
1.07
1.07
1.03
1.04
1.04
0.99
0.94
0.92
0.92
0.91
1.03
1.15
1.1
1.14
1.18
1.1
1.13
1.15
1.08
1.1
1.06
1.05
1.05
1.06
1.12
1.11
1.06
1.06
1.06
1.03
1.1
1.12
1.03
1.01
1.01
1.01
1.03
1.12
1.18
1.12
1.1
1.15
1.12
1.06
1.07
1.08
1.05
1.01
1.1
1.11
1.07
1.06
1.07
1.06
1.0
1.02
1.01
0.93
0.93
1.07
1.16
1.16
1.2
1.21
1.14
1.13
1.13
1.08
1.11
1.05
1.0
0.95
0.97
0.99
1.02
1.04
1.03
1.02
1.05
1.11
1.03
1.03
1.04
1.03
0.97
0.92
0.93
0.95
1.04
1.16
1.19
1.17
1.18
1.14
1.09
1.1
1.04
1.06
1.06
1.04
1.08
1.12
1.13
1.15
1.12
1.07
1.04
1.01
1.0
0.94
0.89
0.85
0.92
1.21
1.14
1.21
1.17
1.1
1.08
1.09
1.08
1.03
1.09
1.07
1.01
1.04
1.02
0.99
0.94
0.99
1.04
1.04
1.01
1.09
1.07
1.0
1.01
1.03
1.07
1.11
1.16
1.17
1.14
1.14
1.11
1.01
0.99
1.02
1.01
0.98
1.04
1.04
1.02
1.06
1.0
0.95
0.96
0.93
0.95
0.95
0.95
1.06
1.14
1.15
1.09
1.11
1.07
1.01
1.06
1.05
1.04
1.11
1.11
1.04
0.97
1.04
1.1
1.15
0.73
0.74
0.64
0.63
0.61
0.6
0.76
0.67
0.97
1.12
1.15
1.14
1.07
1.07
0.98
0.89
0.88
1.0
1.13
1.16
1.16
1.16
1.12
1.15
1.1
1.11
1.14
1.12
1.09
1.09
1.1
1.04
1.01
1.06
1.06
1.04
1.03
1.02
0.94
0.96
0.97
0.95
0.87
0.91
1.0
1.08
1.03
1.06
1.09
1.09
1.01
1.02
1.05
1.01
1.0
1.05
1.04
1.1
1.12
1.13
1.09
1.13
1.1
1.04
1.07
1.08
1.07
1.03
0.97
0.9
0.89
0.99
1.09
1.12
1.16
1.21
1.14
1.18
1.16
1.07
1.07
1.11
1.02
1.03
1.1
1.1
1.1
1.19
1.11
1.09
1.14
1.05
0.97
0.91
0.96
1.27
1.37
1.29
1.33
1.27
1.25
1.11
1.14
1.1
1.1
1.05
1.05
1.03
1.03
1.02
1.15
1.15
1.08
1.1
1.09
1.09
1.1
1.08
1.13
1.12
1.05
0.96
0.91
0.9
0.98
0.65
0.65
0.73
0.99
1.0
1.11
1.16
1.16
1.2
1.17
1.09
1.09
1.12
1.1
1.07
1.04
0.99
0.96
0.99
1.04
1.03
1.06
1.11
1.09
1.05
1.07
1.07
1.01
0.97
1.02
1.01
0.91
0.88
0.85
0.85
0.91
1.26
1.49
1.25
1.17
1.02
0.94
0.73
0.95
0.81
0.62
0.76
0.93
0.78
0.63
0.77
0.75
0.74
0.87
0.71
0.55
0.69
0.83
0.69
0.67
0.68
0.54
0.82
0.67
0.68
0.67
0.55
0.83
0.67
0.56
0.68
0.69
0.7
0.69
0.69
0.68
0.68
0.66
0.66
0.65
0.64
0.77
0.54
0.67
0.73
0.76
0.81
0.88
0.92
0.89
0.83
0.8
0.83
0.97
0.81
0.94
0.7
0.82
0.84
0.82
0.77
0.78
0.78
0.78
0.75
0.74
0.7
0.7
0.68
0.68
0.67
0.66
0.65
0.5
0.65
0.65
0.68
0.97
0.7
1.0
1.33
0.99
1.0
0.83
1.11
0.93
0.93
0.88
0.81
0.78
0.81
0.76
0.75
0.61
0.91
0.45
0.79
0.79
0.86
0.71
0.74
0.82
0.72
0.96
1.02
1.02
0.96
1.05
0.7
0.85
0.87
1.03
1.16
0.9
1.12
1.25
0.9
1.09
1.24
1.07
0.85
1.03
1.26
1.06
0.99
0.93
1.28
1.07
1.0
0.85
1.16
1.01
0.95
0.78
1.0
1.19
0.98
0.85
1.11
1.11
0.97
0.86
1.13
1.13
1.02
0.85
1.13
0.95
0.91
0.8
1.0
1.17
0.96
0.74
0.86
0.97
0.79
0.78
0.85
1.06
0.99
1.23
1.37
1.14
0.96
1.17
1.18
0.98
0.83
1.21
1.14
1.09
0.95
1.17
1.18
1.01
0.9
1.12
1.3
0.99
1.26
1.27
1.1
0.87
1.17
0.98
0.94
0.88
1.25
1.11
0.97
1.28
1.1
1.05
0.85
1.13
0.98
0.98
0.95
1.31
1.08
0.94
1.24
1.04
0.95
0.75
1.04
0.92
0.82
1.14
1.43
1.23
1.06
1.31
1.07
1.01
0.87
1.2
0.91
1.07
1.24
0.96
1.33
1.14
1.07
1.06
1.07
1.06
0.84
0.95
1.01
1.16
0.81
0.98
1.21
1.08
1.04
1.37
1.17
1.15
1.09
1.08
1.03
0.87
1.03
1.19
1.0
0.82
1.19
1.1
1.06
0.92
1.01
1.08
0.71
0.86
0.84
1.0
0.74
1.08
1.21
1.34
1.06
1.35
1.15
1.07
1.08
1.07
1.0
0.83
1.03
1.27
1.12
1.21
1.21
1.14
0.99
1.25
1.06
1.01
0.88
1.05
1.24
0.99
0.81
1.09
0.95
0.92
0.88
1.17
1.31
1.04
1.33
1.11
0.95
1.22
1.1
1.05
0.92
1.25
1.07
1.04
1.09
1.1
1.08
0.9
1.24
1.09
1.09
1.1
1.1
1.09
1.06
1.05
1.05
1.03
0.85
1.21
1.1
1.09
0.92
1.28
1.02
0.99
0.77
0.95
0.99
1.19
0.96
1.24
1.37
1.11
1.43
1.25
1.17
1.18
1.13
0.94
1.25
1.08
1.14
1.13
1.11
0.96
1.33
1.14
1.05
0.9
1.2
1.04
1.05
1.04
1.03
0.88
1.08
1.24
0.9
1.06
1.21
1.0
0.87
1.06
1.27
1.05
0.9
1.24
1.12
1.06
0.94
1.23
1.07
1.05
1.02
1.01
1.01
0.99
1.01
1.03
1.04
1.03
0.96
1.3
1.07
1.09
1.08
1.03
0.89
1.23
1.1
1.05
1.05
1.09
1.1
1.06
0.93
1.23
1.06
0.98
0.83
1.06
1.3
0.98
1.35
1.21
1.16
0.97
1.28
1.1
1.07
0.87
1.05
1.27
1.08
0.94
1.27
1.09
1.05
1.1
1.1
1.05
1.03
1.04
1.07
0.98
0.84
1.14
1.15
0.89
1.19
1.04
1.04
1.17
1.21
1.22
1.27
1.25
1.15
1.15
1.12
1.09
1.14
1.17
1.15
1.11
1.12
1.06
1.05
1.09
1.06
0.92
1.25
1.12
1.08
1.08
1.09
1.08
1.02
0.93
1.28
1.15
0.94
1.27
1.12
1.06
0.88
1.19
1.06
1.03
0.88
1.18
1.18
1.08
0.88
1.2
1.06
1.04
1.06
1.08
1.11
1.06
1.09
1.1
1.09
1.01
0.99
0.98
1.0
0.81
1.12
0.91
1.26
0.99
1.35
1.2
0.99
1.3
1.13
1.0
0.88
0.84
0.85
1.01
0.99
1.44
1.33
1.3
1.33
1.24
1.2
1.19
1.11
0.97
1.24
1.09
1.1
1.09
1.06
1.08
1.13
1.1
0.9
1.19
1.2
1.09
0.89
1.15
1.16
1.08
1.02
1.02
1.11
1.12
0.95
1.23
1.23
1.11
0.99
1.26
1.27
1.14
1.15
1.14
1.07
1.09
1.09
1.08
1.02
1.05
1.06
1.04
1.04
1.12
1.15
1.11
1.13
1.15
1.12
1.06
1.05
1.02
1.0
0.9
1.23
1.13
1.09
1.19
1.22
1.17
1.17
1.11
1.06
1.08
1.09
1.04
0.91
1.19
1.02
0.98
1.06
1.07
1.07
0.97
1.27
1.1
0.98
1.32
1.1
1.13
1.11
1.09
0.9
1.08
1.25
1.06
0.88
1.22
1.07
1.03
0.84
1.18
1.05
1.03
0.95
1.27
1.11
0.9
1.23
1.1
1.04
1.07
1.06
1.02
0.86
1.19
1.04
1.0
0.92
1.28
1.15
1.11
1.12
1.13
1.1
0.93
1.25
1.07
0.89
1.24
1.09
1.04
1.08
1.08
1.07
1.04
1.07
1.11
1.06
0.91
1.24
1.08
1.06
1.06
1.01
0.83
1.03
1.22
1.08
0.88
1.08
1.25
1.03
0.89
1.2
1.01
0.89
1.26
1.14
1.09
1.11
1.11
1.06
0.94
1.28
1.09
0.88
1.22
1.07
1.02
0.87
1.19
1.04
1.02
1.03
1.07
1.05
0.87
1.21
1.08
1.04
1.03
1.03
1.02
1.02
1.03
1.06
1.07
1.14
1.11
1.07
0.94
1.25
1.09
1.01
1.01
1.03
1.05
0.9
1.18
1.19
1.1
0.96
1.27
1.1
1.07
1.08
1.08
1.04
1.07
1.04
1.0
0.87
1.11
1.11
0.94
1.15
1.15
1.06
1.09
1.02
0.9
1.15
1.16
0.88
1.11
1.11
0.89
1.13
1.14
1.03
1.06
1.08
1.09
1.05
1.07
1.07
1.02
1.03
1.02
0.99
0.99
1.09
1.11
1.04
1.05
1.11
1.01
0.98
0.99
0.95
0.89
0.72
1.12
1.32
1.31
1.4
1.34
1.31
1.27
1.18
1.14
1.09
1.03
1.03
1.07
1.05
1.03
1.06
1.09
1.08
1.05
1.05
1.21
1.08
1.09
1.09
1.02
0.97
1.02
1.15
1.16
1.28
1.25
1.19
1.14
1.14
1.25
1.12
1.12
1.05
1.09
1.08
1.05
1.06
1.11
1.05
1.06
1.08
1.05
1.03
1.09
1.17
1.13
1.15
1.21
1.18
1.17
1.19
1.14
1.1
1.1
1.12
1.09
1.04
1.03
1.04
0.99
1.05
1.07
1.08
0.9
1.14
1.15
1.03
0.98
0.99
0.97
0.97
0.9
1.28
1.14
1.23
1.22
1.17
0.99
1.27
1.07
1.05
1.05
1.06
1.03
0.84
1.15
1.15
1.07
1.09
1.09
1.07
1.03
1.08
1.07
1.03
1.07
1.07
1.03
0.83
1.09
0.91
0.81
1.21
1.05
0.9
1.28
1.15
1.11
0.98
1.29
1.08
1.1
1.06
1.03
0.94
0.81
1.15
1.02
0.9
1.14
1.28
1.09
0.95
1.26
1.07
1.0
1.01
1.06
1.05
0.96
1.31
1.12
0.94
1.25
1.08
1.03
1.07
1.08
1.05
1.07
1.07
1.06
1.01
1.01
1.01
1.0
1.05
1.0
0.99
0.88
1.3
1.14
0.99
1.35
1.17
1.13
0.92
1.25
1.1
1.05
0.88
1.17
1.0
0.8
1.13
1.04
1.0
0.88
1.2
1.03
0.99
1.05
1.06
1.03
1.02
1.02
1.02
0.99
1.06
1.05
1.0
0.84
0.97
1.15
0.87
1.18
1.18
1.05
0.92
1.19
1.01
0.82
1.17
1.05
0.92
1.13
1.29
1.11
1.12
1.11
1.05
1.05
1.06
1.06
1.16
1.19
1.14
1.12
1.15
1.1
1.07
1.1
1.06
1.02
1.03
1.07
1.07
1.04
1.08
1.04
0.99
1.04
1.09
1.12
1.24
1.25
1.18
1.19
1.17
1.09
1.06
1.04
1.05
1.0
1.02
1.05
1.03
1.03
1.03
1.09
1.1
1.05
1.08
1.05
1.06
1.02
0.99
1.06
1.07
1.1
1.19
1.24
1.17
1.22
1.17
1.14
1.09
1.07
1.08
1.01
1.01
1.03
1.04
1.02
1.06
1.03
1.02
1.01
1.04
1.04
0.96
1.2
1.21
1.07
1.06
1.02
0.98
0.99
1.07
1.09
1.09
1.1
1.12
1.09
1.05
1.05
1.06
1.02
1.01
1.0
1.05
1.0
1.0
1.15
1.05
1.06
1.08
1.03
0.97
0.97
1.11
1.02
1.02
0.99
0.94
0.8
1.08
1.09
1.04
0.87
1.12
1.13
0.99
0.99
1.12
1.01
1.02
1.04
0.99
0.88
1.14
1.14
1.1
1.11
1.1
1.07
1.05
1.02
1.0
0.94
0.95
1.05
1.01
1.08
1.13
1.14
1.08
0.93
1.16
1.17
1.05
1.04
1.04
1.06
1.02
1.0
1.02
1.1
1.22
1.22
1.26
1.26
1.19
1.14
1.15
1.13
1.07
1.07
1.03
0.97
0.99
0.99
1.16
1.11
1.08
1.1
1.0
1.03
1.04
1.04
1.02
1.05
1.09
1.08
1.05
1.07
1.09
1.03
1.05
1.05
1.04
1.09
1.1
1.06
1.01
0.98
1.01
0.98
1.01
1.01
1.16
1.11
1.08
1.08
1.11
1.12
1.03
1.07
1.08
1.06
1.03
1.04
1.04
1.06
1.05
1.02
1.05
1.03
1.0
0.98
0.96
0.93
0.88
0.93
1.1
1.02
1.21
1.22
1.25
1.25
1.15
1.08
1.02
0.97
0.99
1.07
1.05
1.12
1.15
1.11
1.1
1.13
1.13
1.08
1.04
1.0
0.97
0.98
1.05
1.17
1.17
1.13
1.22
1.19
1.15
1.14
1.11
1.06
1.06
1.12
1.05
1.06
1.07
1.09
1.07
1.09
1.09
1.08
1.03
1.01
1.0
0.97
1.02
1.12
1.14
1.14
1.14
1.13
1.1
1.07
1.09
1.06
1.05
1.08
1.05
1.0
1.0
1.02
1.03
0.98
0.98
0.98
0.97
0.94
1.19
1.19
1.11
1.14
1.12
1.06
1.1
1.06
1.03
1.06
1.06
1.01
1.0
0.99
1.0
0.98
1.01
1.05
1.04
1.0
1.05
0.98
0.95
0.96
1.03
1.11
1.09
1.1
1.13
1.13
1.08
1.07
1.06
1.06
1.02
1.03
1.07
1.06
1.06
1.07
1.02
1.04
1.07
1.07
1.02
1.01
1.02
1.05
1.01
1.06
1.06
1.06
1.06
1.06
1.06
1.02
1.01
0.97
1.04
1.14
1.13
1.14
1.18
1.15
1.15
1.14
1.11
1.04
1.0
0.96
0.97
0.97
1.07
1.17
1.14
1.13
1.09
1.09
1.03
1.0
1.04
1.07
1.06
1.12
1.19
1.17
1.12
1.05
1.03
0.99
0.98
0.96
0.91
0.93
1.03
1.11
1.1
1.13
1.14
1.06
1.05
1.02
1.05
1.02
1.08
1.11
1.06
1.09
1.11
1.08
1.03
1.03
1.03
1.01
1.03
1.04
1.05
1.0
0.99
0.92
0.92
0.94
1.02
1.05
1.16
1.21
1.16
1.15
1.12
1.1
1.08
1.08
1.05
1.01
1.0
1.01
1.02
1.0
1.04
1.04
1.01
1.05
1.0
0.96
0.97
1.03
1.08
1.08
1.13
1.11
1.04
1.0
0.99
0.95
0.97
1.03
1.09
1.13
1.02
1.02
1.09
0.95
0.95
0.83
0.84
0.86
0.76
1.07
1.07
0.87
0.82
0.81
0.79
0.77
0.77
0.75
0.74
0.71
0.7
0.7
0.68
0.68
0.7
0.57
0.76
0.77
0.67
0.7
0.7
0.69
0.7
0.68
0.69
0.67
0.67
0.66
0.64
0.63
0.63
0.61
0.62
0.63
0.64
0.55
0.88
1.26
1.25
1.15
1.32
1.33
1.15
1.16
1.27
1.11
1.11
1.15
1.1
1.11
1.15
1.16
1.11
1.16
1.14
1.09
1.1
1.14
1.05
0.96
0.99
1.07
1.07
1.01
0.69
0.69
1.18
1.21
1.18
1.05
1.02
1.09
1.18
1.16
1.25
1.25
1.19
1.23
1.08
1.03
1.05
1.13
1.14
1.22
1.25
1.13
1.07
1.07
0.95
0.9
0.87
0.92
1.18
1.42
1.37
1.34
1.41
1.26
1.12
1.0
0.92
0.94
0.96
0.93
0.91
1.02
1.19
1.11
1.02
1.13
1.16
1.12
1.13
1.1
1.08
1.05
1.13
1.17
1.16
1.1
1.16
1.14
1.07
1.05
1.09
1.11
1.07
1.11
1.12
1.07
1.06
1.12
1.11
1.15
1.21
1.18
1.12
1.16
1.18
1.13
1.09
1.11
1.1
1.03
1.01
1.02
1.02
0.97
1.01
1.14
1.21
1.15
1.25
1.24
1.1
1.0
1.03
1.0
0.97
0.98
1.12
1.21
1.17
1.07
1.07
1.19
1.06
0.99
1.04
1.06
1.07
1.03
0.98
1.01
0.98
0.94
0.93
0.99
1.1
0.97
0.97
0.95
0.88
0.94
1.16
1.28
1.2
1.33
1.15
1.09
1.11
1.09
1.05
1.1
1.12
1.02
1.03
1.12
1.16
1.14
1.15
1.13
1.08
1.03
1.11
1.12
1.05
1.12
1.16
1.11
1.06
1.09
1.06
1.02
1.01
1.08
1.15
1.04
0.96
0.99
1.09
1.17
1.08
1.19
1.21
1.14
1.15
1.17
1.15
1.0
0.94
0.99
1.04
1.07
1.12
1.24
1.24
1.05
1.09
1.15
1.09
1.16
1.21
1.2
1.13
1.17
1.16
1.02
0.97
1.07
1.15
1.17
1.11
1.12
1.25
1.13
1.11
1.15
1.09
1.0
1.03
1.08
1.06
1.03
1.08
1.12
1.1
1.02
1.03
1.06
0.98
1.01
1.08
1.11
1.04
1.05
1.07
1.06
1.12
1.13
1.04
0.95
1.01
1.12
1.1
0.9
1.19
1.2
0.98
1.09
1.18
1.02
1.22
1.22
1.08
1.09
1.21
1.11
1.03
0.97
0.87
0.88
0.89
0.9
0.94
0.95
0.94
0.9
0.88
0.86
0.84
0.81
0.53
0.54
0.63
0.63
0.75
0.75
0.74
0.73
0.72
0.72
0.72
0.77
0.94
1.1
1.13
1.14
1.31
1.3
1.18
1.17
1.21
1.16
1.09
1.11
1.13
1.0
1.1
1.33
1.31
1.27
1.27
1.27
1.22
1.25
1.24
1.14
1.06
1.08
1.2
1.15
1.24
1.21
1.09
1.09
1.12
1.18
1.22
1.28
1.18
1.15
1.17
1.14
1.12
1.15
1.19
1.15
1.06
1.11
1.11
1.14
1.18
1.2
1.16
1.11
1.1
1.13
1.1
1.09
1.08
1.03
1.11
1.15
1.03
1.06
1.16
1.24
1.26
1.33
1.28
1.17
1.16
1.12
1.05
1.05
1.08
1.06
0.97
0.99
1.08
1.03
1.02
1.03
1.0
0.96
0.93
0.99
1.1
1.16
1.24
1.24
1.29
1.28
1.24
1.22
1.14
1.08
1.11
1.15
1.06
1.04
1.06
1.2
1.25
1.17
1.17
1.21
1.14
0.98
0.95
1.04
1.01
1.17
1.33
1.27
1.23
1.21
1.17
1.07
1.08
1.11
1.07
1.04
1.07
1.08
1.02
0.98
0.95
0.96
0.97
1.15
1.24
1.19
1.13
1.17
1.14
1.02
1.04
1.05
1.05
1.03
1.03
1.07
1.06
1.09
1.13
1.11
1.07
1.01
1.02
1.03
1.08
1.18
1.19
1.21
1.27
1.19
1.1
1.06
1.05
1.05
1.03
1.12
1.17
1.11
1.18
1.18
1.08
1.04
1.06
1.1
1.04
1.05
1.1
1.11
1.09
1.13
1.11
1.07
1.05
1.09
1.07
1.03
1.0
1.04
1.04
0.97
0.97
1.09
1.26
1.24
1.3
1.24
1.29
1.28
1.13
1.07
1.12
1.19
1.17
1.12
1.19
1.21
1.16
1.15
1.19
1.19
1.04
0.96
0.99
1.12
1.21
1.36
1.34
1.28
1.27
1.23
1.14
1.09
1.08
1.03
1.02
1.06
1.09
1.06
1.08
1.12
1.11
1.12
1.1
1.06
0.97
1.0
1.04
1.06
1.09
1.16
1.12
1.03
1.02
1.07
1.04
1.07
1.13
1.1
1.21
1.13
1.05
1.05
1.08
1.07
1.05
1.19
1.14
1.08
1.12
1.16
1.1
1.06
1.1
1.05
1.0
1.02
1.12
1.16
1.09
1.09
1.1
1.1
1.1
1.04
0.98
1.0
1.02
1.01
1.0
1.04
1.11
1.15
1.2
1.2
1.13
1.14
1.17
1.12
1.04
1.05
1.05
1.03
0.99
1.05
1.07
1.03
1.08
1.14
1.11
1.12
1.17
1.1
1.02
1.01
1.03
1.06
1.04
1.09
1.13
1.06
1.07
1.06
1.09
1.16
1.17
1.06
1.08
1.08
1.04
1.15
1.15
1.09
1.1
1.12
1.11
1.1
1.12
1.08
1.02
1.05
1.08
1.07
1.02
1.05
1.09
1.06
1.08
1.11
1.07
1.02
1.04
1.13
1.11
1.04
1.06
1.1
1.11
1.06
1.13
1.13
1.08
1.07
1.11
1.09
1.06
1.11
1.08
1.04
1.05
1.04
0.99
0.96
1.01
1.03
1.02
0.99
1.03
1.1
1.14
1.24
1.25
1.19
1.21
1.16
1.07
1.06
1.07
1.03
0.96
1.03
1.07
1.1
1.04
1.13
1.15
1.11
1.04
1.04
1.05
1.05
0.98
1.03
1.1
1.11
1.01
0.98
0.99
0.97
0.93
0.97
1.08
1.14
1.23
1.31
1.27
1.19
1.23
1.2
1.13
1.14
1.06
0.97
0.95
0.95
1.03
1.07
1.23
1.33
1.29
1.24
1.24
1.19
1.11
1.08
1.07
1.07
1.04
1.08
1.11
1.05
1.05
1.08
1.04
0.97
1.01
1.02
1.0
1.06
1.07
1.13
1.19
1.15
1.06
1.09
1.12
1.08
1.03
1.06
1.06
1.04
1.08
1.13
1.09
1.04
1.1
1.13
1.1
1.05
1.04
1.09
1.08
1.03
1.06
1.1
1.08
1.02
1.06
1.07
1.1
1.08
1.13
1.12
1.05
1.03
1.05
1.03
1.05
1.08
1.1
1.05
1.04
1.13
1.13
1.04
1.02
1.04
1.04
1.1
1.11
1.06
1.08
1.12
1.09
1.03
1.08
1.11
1.07
1.03
1.15
1.15
1.07
1.04
1.02
1.0
1.02
1.01
1.0
1.08
1.14
1.13
1.03
1.04
1.05
1.03
1.0
1.06
1.13
1.09
1.08
1.15
1.13
1.07
1.11
1.09
1.01
1.02
1.04
1.03
0.98
1.02
1.05
1.03
1.08
1.09
1.07
1.02
1.03
1.06
1.01
1.02
1.08
1.08
1.01
1.03
1.04
1.06
1.03
1.03
1.07
1.05
1.03
1.09
1.07
1.05
1.12
1.13
1.04
1.06
1.08
1.05
1.04
1.08
1.1
1.05
1.06
1.1
1.11
1.05
1.05
1.07
1.07
1.07
1.02
0.98
0.95
0.9
0.89
0.86
0.85
0.9
0.87
0.9
0.93
0.92
0.86
0.86
0.86
0.88
0.84
0.83
0.82
0.82
0.8
0.84
0.92
1.06
1.14
1.1
1.15
1.17
1.12
1.02
1.03
1.05
1.04
1.07
1.14
1.14
1.02
0.99
0.96
0.89
0.97
1.17
1.17
1.04
1.08
1.04
1.06
1.27
1.24
1.16
1.09
1.15
1.06
1.01
1.08
1.15
1.1
1.06
1.11
1.21
1.2
1.15
1.16
1.12
1.07
1.05
1.07
1.08
0.99
1.04
1.07
1.02
1.06
1.1
1.07
1.05
1.06
1.04
1.0
0.98
1.02
1.05
1.12
1.24
1.26
1.12
1.07
1.09
1.07
1.11
1.23
1.21
1.07
1.0
1.01
0.99
0.94
0.94
0.97
1.02
1.23
1.43
1.33
1.27
1.3
1.27
1.18
1.08
1.11
1.15
1.12
1.11
1.16
1.08
1.14
1.14
1.07
1.03
1.06
1.05
1.0
0.97
0.99
0.99
0.95
0.99
1.19
1.18
1.08
1.02
1.08
1.06
1.05
1.17
1.15
1.04
0.98
1.01
1.07
1.02
1.06
1.15
1.12
1.03
1.09
1.12
1.11
1.06
1.12
1.18
1.11
1.06
1.09
1.12
1.08
1.01
1.0
1.03
1.04
1.14
1.25
1.21
1.11
1.11
1.12
1.07
1.05
1.09
1.1
1.04
1.01
1.03
1.06
1.02
0.94
0.97
0.98
0.97
1.03
1.27
1.27
1.16
1.22
1.27
1.18
1.12
1.18
1.18
1.1
1.01
1.0
1.09
1.11
1.06
1.04
1.1
1.15
1.06
1.02
1.07
1.13
1.06
1.08
1.13
1.11
1.04
1.05
1.03
1.01
0.96
0.97
1.04
1.1
1.06
1.16
1.18
1.12
1.05
1.02
1.05
1.02
0.99
1.07
1.1
1.02
1.05
1.11
1.1
1.04
1.04
1.11
1.03
1.05
1.1
1.03
1.05
1.12
1.1
1.01
0.99
1.01
1.05
0.98
0.96
0.98
0.92
0.92
1.04
1.17
1.08
1.1
1.24
1.22
1.14
1.12
1.11
1.04
1.03
1.09
1.12
1.05
1.06
1.13
1.11
1.11
1.12
1.12
1.08
1.02
1.06
1.11
1.09
1.08
1.12
1.1
1.09
1.09
1.03
1.05
1.13
1.13
1.08
1.06
1.08
1.07
1.06
1.18
1.18
1.11
1.11
1.18
1.14
1.06
1.12
1.17
1.12
1.06
1.13
1.15
1.09
0.99
0.97
0.97
0.92
0.87
0.87
0.86
0.86
0.89
0.89
0.85
0.86
0.89
0.86
0.86
0.92
0.99
0.98
1.06
1.13
1.15
1.07
1.03
1.08
1.03
0.99
1.04
1.02
0.95
1.02
1.12
1.12
1.07
1.16
1.23
1.16
1.13
1.13
1.12
1.07
1.06
1.06
1.05
0.98
1.02
1.11
1.14
1.1
1.11
1.03
0.98
0.95
1.03
1.08
1.13
1.26
1.23
1.16
1.15
1.16
1.07
1.06
1.08
1.07
1.04
1.14
1.15
1.05
1.06
1.06
1.08
1.03
1.04
1.08
1.14
1.15
1.09
1.09
1.13
1.13
1.08
1.06
1.08
1.08
1.04
1.05
1.08
1.08
1.02
1.02
1.07
1.11
1.05
0.97
0.96
0.97
0.93
0.9
0.95
1.08
1.12
1.29
1.3
1.24
1.2
1.17
1.08
1.07
1.1
1.09
1.04
1.03
1.05
1.05
1.01
1.03
1.04
1.03
1.01
1.06
1.05
1.09
1.11
1.08
1.13
1.14
1.13
1.06
1.08
1.05
1.03
0.98
0.97
1.03
1.09
1.05
1.08
1.15
1.16
1.11
1.18
1.16
1.09
1.06
1.05
1.03
0.95
0.95
1.01
1.21
1.15
1.23
1.24
1.13
1.12
1.1
1.05
1.08
1.11
1.13
1.14
1.11
1.06
1.07
1.11
1.11
1.14
1.16
1.11
1.06
1.12
1.12
1.06
1.05
1.08
1.03
1.05
1.13
1.16
1.12
1.09
1.13
1.1
1.05
1.01
1.05
1.05
1.01
1.0
1.07
1.13
1.08
1.07
1.12
1.1
1.02
0.96
0.96
1.0
0.97
0.94
1.0
1.05
1.01
0.95
0.98
1.01
0.98
0.97
1.04
1.08
1.0
1.04
1.1
1.08
1.01
0.95
0.96
1.0
1.01
0.98
1.0
1.07
1.06
1.14
1.25
1.19
1.06
1.02
1.07
1.07
1.05
1.21
1.25
1.16
1.12
1.2
1.2
1.11
0.98
0.96
1.0
1.07
1.05
0.99
1.03
0.97
0.95
1.07
1.3
1.31
1.24
1.22
1.22
1.13
1.04
1.06
1.13
1.13
1.04
1.13
1.18
1.16
1.07
1.09
1.09
1.09
1.05
1.04
1.09
1.14
1.07
1.02
1.07
1.12
1.07
1.02
1.09
1.12
1.06
1.02
1.06
1.07
0.97
0.94
0.94
0.88
0.87
0.93
0.87
0.89
1.02
1.06
0.95
0.91
0.91
0.89
0.89
0.86
0.85
0.8
0.8
0.78
0.77
0.74
0.69
0.8
0.72
0.59
0.86
0.87
0.58
0.58
1.17
0.6
0.74
0.72
0.72
0.7
0.7
0.7
0.68
0.68
0.67
0.68
0.7
0.78
0.88
0.92
0.92
1.07
1.16
1.19
1.15
1.24
1.24
1.17
1.19
1.29
1.19
1.08
1.07
1.16
1.17
1.15
1.23
1.26
1.18
1.17
1.15
1.18
1.13
1.23
1.28
1.24
1.15
1.18
1.12
1.14
1.13
1.15
1.1
1.04
1.06
1.08
1.03
0.99
1.09
1.11
1.07
0.99
1.1
1.11
1.19
1.27
1.23
1.1
1.06
1.11
1.14
1.16
1.26
1.29
1.16
1.15
1.23
1.18
1.13
1.14
1.1
1.06
1.09
1.08
1.07
1.03
1.03
1.16
1.22
1.21
1.22
1.2
1.07
0.97
0.98
1.07
1.2
1.3
1.35
1.25
1.27
1.21
1.12
1.1
1.11
1.08
1.07
1.14
1.13
1.12
1.06
1.09
1.12
1.03
0.97
0.91
0.91
0.88
0.86
0.88
0.94
1.03
1.09
1.12
1.11
0.98
0.92
0.87
0.87
0.83
0.82
0.79
0.78
0.78
0.77
0.74
0.74
0.86
0.82
0.87
0.88
0.9
0.97
1.13
1.24
1.2
1.26
1.27
1.21
1.21
1.24
1.22
1.15
1.12
1.12
1.08
1.19
1.24
1.16
1.03
1.02
1.01
1.01
1.16
1.26
1.2
1.16
1.11
1.1
1.03
1.0
1.04
1.03
0.99
1.05
1.12
1.1
1.14
1.11
1.04
1.01
1.06
1.04
1.05
1.0
1.07
1.23
1.17
1.2
1.22
1.13
1.03
1.02
1.08
1.14
1.26
1.26
1.23
1.25
1.16
1.11
1.11
1.14
1.08
1.11
1.1
1.1
1.05
1.04
1.1
1.09
1.05
1.03
1.06
1.05
1.08
1.13
1.07
1.03
1.09
1.1
1.01
0.99
1.05
1.03
0.97
0.98
1.05
1.1
1.07
1.0
1.03
1.14
1.13
1.1
1.1
1.15
1.07
0.99
0.95
0.95
0.93
0.96
1.01
0.91
0.87
0.92
0.86
0.86
1.14
1.15
1.19
1.21
1.28
1.24
1.14
1.17
1.17
1.08
1.11
1.1
1.09
1.05
1.08
1.17
1.19
1.14
1.2
1.2
1.16
1.2
1.18
1.16
1.17
1.08
1.1
1.09
1.1
1.07
1.13
1.12
1.11
1.06
1.12
1.15
1.07
1.11
1.16
1.09
1.04
1.11
1.17
1.21
1.19
1.22
1.12
1.39
1.39
1.28
1.29
1.21
1.16
1.17
1.11
0.92
0.92
0.99
0.94
0.98
0.93
0.94
1.05
1.07
1.07
1.08
1.12
1.11
1.01
0.98
0.99
1.01
1.05
1.0
1.02
1.06
1.04
0.97
0.97
0.98
0.96
0.97
0.98
1.0
0.98
0.98
0.98
0.99
0.98
0.99
0.99
0.98
0.95
0.93
0.96
0.94
0.93
0.98
1.03
1.06
1.15
1.25
1.2
1.19
1.23
1.23
1.23
1.26
1.33
1.27
1.32
1.27
1.24
1.26
1.27
1.32
1.25
1.22
1.11
1.16
1.22
1.14
1.16
1.17
1.15
1.1
1.0
1.26
1.27
1.19
1.09
1.06
1.04
1.02
0.9
0.91
1.01
0.91
0.9
0.92
0.97
1.04
1.06
1.08
1.03
1.03
1.14
1.08
1.05
1.0
1.01
1.03
1.0
1.0
1.01
0.97
0.94
0.92
0.89
0.86
0.86
0.87
0.86
0.84
0.84
0.85
0.85
0.88
0.88
0.88
0.91
0.94
0.95
0.91
0.93
0.95
0.94
0.94
0.95
0.94
0.92
0.91
0.91
0.9
0.89
0.87
0.88
0.89
0.87
0.88
0.89
0.91
0.93
0.96
0.93
0.91
0.9
0.93
0.96
0.98
0.99
1.01
1.13
1.13
1.11
1.1
1.13
1.09
1.13
1.13
1.13
1.09
1.04
1.01
0.99
0.97
0.92
0.91
0.92
0.94
0.92
0.91
0.88
0.87
0.85
0.86
0.86
0.84
0.85
0.88
0.94
0.97
0.94
0.95
0.99
0.98
0.95
0.93
0.94
1.0
1.05
1.06
1.11
1.07
1.08
1.07
1.05
1.0
1.01
1.01
1.06
1.03
1.01
1.02
1.04
1.0
0.94
0.91
0.9
0.92
0.91
0.9
0.91
0.92
0.93
0.93
0.91
0.9
0.94
0.91
0.92
0.93
0.96
0.98
1.02
1.05
1.06
1.04
1.07
1.1
1.09
1.11
1.1
1.07
1.07
1.0
0.99
0.96
0.98
0.97
0.95
0.96
0.94
0.89
0.87
0.87
0.87
0.86
0.84
0.84
0.85
0.86
0.88
0.87
0.9
0.94
0.95
0.96
0.97
0.96
0.98
0.97
0.96
0.94
0.95
0.95
0.97
0.98
0.99
1.05
1.09
1.06
1.05
1.05
1.01
1.0
0.94
0.95
0.98
0.95
0.96
1.0
1.07
1.07
1.0
1.0
0.96
0.94
0.88
0.87
0.89
0.91
0.97
1.03
1.11
1.15
1.09
1.12
1.11
1.04
1.07
1.08
1.08
1.12
1.05
1.03
1.06
1.06
0.98
0.95
0.95
0.97
1.0
1.01
0.96
0.97
1.0
1.0
0.99
1.0
1.01
0.98
0.99
0.99
0.99
0.98
0.96
0.97
0.98
0.96
0.93
0.92
0.92
0.92
0.91
0.91
0.89
0.91
0.92
0.89
0.9
0.92
0.96
1.03
1.1
1.23
1.24
1.26
1.27
1.21
1.22
1.22
1.26
1.21
1.21
1.21
1.02
1.02
1.05
1.05
1.11
1.12
1.0
1.02
1.04
0.99
1.04
1.05
1.01
0.94
0.93
0.91
0.9
0.9
0.9
0.97
1.05
1.15
1.1
1.21
1.24
1.16
1.17
1.09
1.1
1.12
1.05
1.02
1.04
1.02
1.01
0.99
0.94
0.95
0.95
0.94
0.91
0.91
0.93
0.93
0.92
0.94
1.02
1.04
1.02
1.01
0.97
0.99
0.99
1.01
1.02
1.1
1.29
1.32
1.38
1.33
1.28
1.34
1.24
1.24
1.18
1.09
0.97
0.98
0.98
0.98
1.07
1.18
1.12
1.09
1.12
1.09
0.98
0.97
0.95
0.94
0.9
0.9
0.94
0.91
0.89
0.88
0.9
0.92
0.92
0.91
0.89
0.9
0.92
0.92
0.92
0.9
0.93
0.96
0.99
0.99
0.98
1.01
1.05
1.04
1.04
1.05
1.04
0.99
0.97
0.95
0.96
0.92
0.92
0.93
0.95
1.0
1.02
0.97
0.97
0.98
0.97
0.91
0.92
0.9
0.93
0.96
0.98
1.03
1.15
1.12
1.07
1.08
1.09
1.16
1.22
1.15
1.16
1.13
1.11
1.26
1.27
1.28
1.25
1.18
1.18
1.17
1.07
0.96
0.95
0.93
0.92
1.0
1.14
1.15
1.11
1.0
0.99
1.0
0.99
0.94
0.93
0.94
0.93
0.93
0.92
0.93
0.98
1.0
0.99
0.97
1.0
1.03
1.01
1.01
1.01
1.0
0.96
0.96
0.96
0.96
0.91
0.92
0.95
1.0
1.07
1.03
0.96
0.93
0.93
0.96
1.04
1.16
1.14
1.13
1.06
1.08
1.09
1.02
1.01
0.99
0.99
0.96
0.96
0.98
0.97
1.0
1.09
1.14
1.19
1.21
1.23
1.24
1.2
1.15
1.15
1.16
1.1
0.97
0.99
1.03
1.07
0.96
0.96
1.07
1.02
0.97
0.94
0.9
0.88
0.85
0.83
0.82
0.82
0.82
0.84
0.87
0.99
1.02
1.04
1.09
1.08
1.01
0.99
0.97
0.95
0.95
0.98
1.06
1.13
1.15
1.14
1.1
0.97
0.92
0.9
0.93
1.08
1.09
1.01
0.97
0.94
0.91
0.92
1.02
1.09
1.09
1.09
1.09
1.04
1.02
1.07
1.05
1.06
1.03
1.07
1.1
1.08
1.05
1.09
1.08
1.03
1.0
1.06
1.05
1.01
0.99
1.0
1.03
1.04
1.0
0.95
0.93
0.93
0.91
0.9
0.93
0.98
1.01
0.99
0.96
0.94
0.97
0.99
0.98
0.93
0.89
0.9
0.91
0.91
0.9
0.92
0.92
0.91
0.89
0.89
0.91
0.92
0.91
0.9
0.9
0.91
0.91
0.91
0.9
0.94
0.99
1.02
1.01
1.03
1.05
1.06
1.03
1.06
1.08
1.18
1.17
1.11
1.11
1.08
1.02
0.97
0.97
0.99
1.05
0.95
0.96
1.04
1.1
1.06
1.03
1.05
1.07
1.08
1.06
0.95
0.96
1.05
1.01
1.04
1.04
1.11
1.17
1.17
1.19
1.15
1.12
1.12
1.05
0.99
0.97
0.97
0.99
1.0
1.01
1.15
1.05
0.97
0.96
0.97
0.97
1.0
0.97
0.94
0.96
1.02
1.12
1.13
1.24
1.3
1.28
1.27
1.19
1.28
1.28
1.24
1.3
1.24
1.28
1.19
1.17
1.24
1.14
1.12
1.15
1.14
1.13
1.09
0.99
0.93
0.89
0.88
0.87
0.92
1.23
1.19
1.1
1.05
1.05
1.08
1.06
1.05
1.05
1.02
0.98
0.97
0.97
1.04
1.08
1.16
1.25
1.23
1.24
1.2
1.13
1.05
1.01
0.98
0.9
0.9
1.06
1.2
1.11
1.14
1.17
1.08
1.01
0.98
0.97
0.94
0.92
0.89
0.9
0.9
0.91
0.97
0.98
1.0
1.03
1.03
0.99
0.95
0.95
0.96
1.0
1.05
0.96
0.91
0.9
0.88
0.87
0.87
0.84
0.86
0.91
1.03
1.09
1.15
1.12
1.06
1.07
1.05
1.0
0.96
0.99
0.98
1.01
1.03
1.06
1.11
1.13
1.14
1.12
1.11
1.12
1.16
1.12
1.06
1.0
1.04
1.02
1.02
1.01
1.04
1.02
0.99
1.05
1.04
0.92
0.93
0.96
0.97
0.9
0.87
0.88
0.9
0.92
0.94
0.93
0.92
0.96
0.98
0.95
0.95
0.94
0.92
0.91
0.92
0.95
0.96
0.93
0.9
0.88
0.87
0.88
0.92
0.99
1.0
1.05
1.1
1.18
1.18
1.11
1.09
1.06
1.06
1.02
1.02
1.01
1.02
0.98
0.98
0.99
0.98
0.96
0.92
0.93
0.94
0.97
0.99
0.98
0.99
1.02
1.04
1.07
0.98
0.98
1.08
1.01
1.03
1.03
1.01
1.06
1.14
1.16
1.2
1.27
1.26
1.18
1.18
1.11
1.12
1.17
1.15
1.1
1.1
1.06
1.01
1.0
0.76
0.76
0.78
0.97
0.98
1.06
1.04
1.04
1.05
1.07
1.06
1.1
1.1
1.09
1.14
1.12
1.06
1.11
1.1
1.1
1.07
1.05
1.04
1.05
0.99
0.97
0.99
1.0
0.98
0.92
0.91
0.9
0.89
0.92
0.9
0.91
0.93
0.95
0.95
0.93
0.95
0.96
0.96
0.99
0.97
0.97
0.98
0.93
0.91
0.92
0.95
0.99
0.96
1.01
1.08
1.02
0.99
1.02
0.98
1.0
0.98
0.97
0.96
0.95
0.99
1.11
1.18
1.26
1.18
1.15
1.08
1.09
1.09
1.09
1.13
1.1
1.07
1.09
1.08
1.02
1.0
1.02
1.04
0.99
0.97
0.98
1.01
1.01
0.97
0.98
1.02
1.05
1.15
1.17
1.16
1.16
1.11
1.2
1.1
1.08
1.01
0.94
0.9
0.9
0.9
0.96
1.14
1.16
1.09
0.98
0.98
1.08
0.94
0.92
0.91
0.89
0.86
0.84
0.84
0.85
0.86
0.92
1.03
1.13
1.1
1.03
1.02
1.01
0.99
0.98
1.04
1.11
1.16
1.12
1.09
1.1
1.07
1.03
0.99
1.01
0.97
0.98
1.09
1.08
1.05
0.94
0.95
1.06
0.98
0.96
0.92
0.89
0.89
0.86
0.82
0.83
0.82
0.82
0.88
1.1
1.24
1.24
1.18
1.11
1.09
1.1
1.07
1.06
1.0
1.03
1.04
1.01
1.01
0.94
0.94
0.94
0.97
0.98
0.99
1.03
1.05
1.0
0.93
0.93
0.92
0.93
1.0
1.04
1.11
1.19
1.08
1.05
1.06
1.05
1.05
0.97
0.97
1.0
1.05
1.07
1.06
1.09
1.13
1.09
1.09
1.07
1.03
1.02
1.05
1.05
1.02
1.03
1.11
1.09
1.07
1.08
1.08
1.02
1.01
0.99
0.99
0.96
0.97
0.98
0.98
1.03
1.03
1.03
1.06
1.03
0.92
0.93
0.99
0.99
0.94
0.92
0.89
0.91
0.94
0.95
0.93
0.92
0.92
0.91
0.91
0.89
0.87
0.9
0.91
0.92
0.95
0.9
0.92
0.97
1.02
1.02
1.09
1.09
1.04
1.01
1.0
1.01
0.99
1.02
1.07
1.18
1.16
1.16
1.2
1.16
1.18
1.24
1.23
1.38
1.39
1.1
1.09
1.08
1.08
1.08
1.2
1.21
1.03
1.02
1.01
1.01
0.98
0.96
1.0
0.99
0.99
0.94
0.93
0.98
1.0
1.05
1.03
1.01
1.05
1.06
1.07
1.09
1.01
0.99
0.99
1.03
0.99
1.02
1.07
1.11
1.1
1.03
1.04
1.04
1.06
1.07
1.08
1.09
1.03
0.97
0.93
0.96
1.07
1.07
1.06
1.08
1.1
1.05
1.07
1.04
0.97
0.96
1.0
0.98
0.97
0.98
1.05
1.13
1.17
1.23
1.19
1.19
1.17
1.18
1.17
1.12
1.1
1.15
1.13
1.08
1.08
1.05
0.99
0.96
0.97
0.98
0.95
0.9
0.92
0.91
0.93
1.02
1.17
1.18
1.15
1.08
1.08
1.08
1.07
1.06
1.04
1.0
1.06
1.11
1.1
1.06
1.12
1.14
1.09
1.08
1.12
1.14
1.13
1.06
1.05
1.07
1.06
1.08
0.99
0.94
0.91
0.91
0.93
0.97
1.0
1.09
1.11
1.06
0.99
0.94
0.94
0.97
0.98
0.95
0.94
0.97
1.0
0.98
0.99
1.01
1.01
1.02
1.02
0.97
0.93
0.9
0.92
0.94
0.95
1.04
1.09
1.05
0.99
1.0
0.97
0.99
0.96
0.91
0.91
0.91
0.89
0.87
0.87
0.91
0.97
1.0
1.05
1.1
1.08
1.03
1.08
1.05
1.01
0.99
1.01
1.02
1.0
0.96
0.94
0.98
1.01
0.99
1.01
1.03
1.03
1.04
1.04
0.98
0.97
1.01
0.98
0.98
0.99
1.0
1.04
1.04
0.98
0.96
0.97
0.98
0.98
0.97
0.98
0.98
0.98
0.98
1.01
0.99
0.96
0.93
0.96
0.95
0.93
0.91
0.94
0.95
0.93
0.89
0.89
0.92
1.0
1.08
1.05
1.06
1.1
1.11
1.08
1.03
0.98
1.01
1.03
0.98
0.95
1.0
1.03
1.07
1.1
1.13
1.11
1.05
1.05
1.04
1.03
0.97
0.94
0.97
1.01
1.03
0.98
0.97
1.01
1.06
1.06
0.99
0.96
0.98
0.98
1.0
0.95
0.95
0.96
1.02
1.08
1.05
1.08
1.2
1.21
1.1
1.04
1.05
1.04
1.04
0.98
0.93
0.94
0.99
1.08
1.09
1.06
1.12
1.18
1.13
1.09
1.03
1.0
1.04
1.11
1.1
1.08
1.06
1.1
1.08
1.03
1.05
1.04
0.99
1.01
1.03
1.03
0.97
0.96
0.99
0.99
0.99
0.95
0.97
1.0
1.0
1.02
1.08
1.18
1.12
1.07
1.09
1.14
1.11
1.03
1.05
1.09
1.13
1.08
1.06
1.12
1.15
1.09
1.05
1.1
1.12
1.09
1.05
1.06
1.09
1.06
1.05
1.11
1.13
1.09
1.03
0.99
0.99
1.06
1.03
1.01
1.04
1.05
0.98
0.99
1.02
1.03
0.99
0.98
1.01
1.04
1.06
1.01
1.01
1.05
1.06
1.05
0.99
0.97
1.03
1.11
1.11
1.14
1.18
1.12
1.1
1.08
1.04
1.0
1.01
1.07
1.06
1.05
1.06
1.06
1.06
1.06
1.09
1.11
1.05
1.02
1.03
1.03
1.0
1.04
1.09
1.03
0.99
1.02
1.0
1.01
1.08
1.06
1.03
1.07
1.06
1.01
0.99
1.04
1.06
1.03
0.99
1.0
1.01
0.99
0.95
0.98
1.05
1.04
1.0
1.04
1.14
1.15
1.07
1.02
1.04
1.04
1.04
0.97
0.97
1.02
1.04
1.01
0.98
0.98
1.02
1.02
0.97
0.96
0.97
1.0
0.98
0.95
0.93
0.95
1.04
1.09
1.07
1.22
1.23
1.2
1.1
1.1
1.12
1.08
1.01
1.06
1.08
1.08
1.06
1.04
1.06
1.05
1.01
1.06
1.08
1.07
1.02
1.04
1.08
1.07
1.02
1.05
1.07
1.07
1.01
0.99
1.01
1.01
1.02
0.97
0.96
1.01
1.06
1.08
1.09
1.13
1.17
1.1
1.09
1.08
1.04
1.06
1.12
1.11
1.01
1.02
1.04
1.07
1.02
1.01
1.05
1.07
0.99
1.01
1.03
0.99
0.99
1.09
1.13
1.05
1.03
1.1
1.11
1.04
1.0
1.01
1.05
1.03
0.98
1.0
1.05
1.09
1.01
1.03
1.04
1.02
1.02
0.96
0.97
1.01
1.02
0.99
0.96
1.01
1.04
1.08
1.03
0.97
0.96
0.98
1.03
0.99
0.97
1.0
1.04
1.08
1.03
1.05
1.09
1.08
1.01
1.0
1.01
1.02
0.98
0.98
1.02
1.07
1.04
1.07
1.16
1.15
1.06
1.03
1.05
1.05
1.03
0.97
0.99
1.05
