sample,time_sec
49335,493.35
49389,493.89
49450,494.5
49509,495.09
49557,495.57
49604,496.04
49644,496.44
49718,497.18
49805,498.05
49892,498.92
50030,500.3
50085,500.85
50142,501.42
50181,501.81
50237,502.37
50279,502.79
50315,503.15
50379,503.79
50414,504.14
50470,504.7
75586,755.86
75667,756.67
75721,757.21
75775,757.75
75837,758.37
75895,758.95
75962,759.62
76029,760.29
76091,760.91
76153,761.53
76229,762.29
76305,763.05
76382,763.82
76461,764.61
76542,765.42
76624,766.24
76706,767.06
76787,767.87
76868,768.68
76947,769.47
77023,770.23
77099,770.99
77172,771.72
77243,772.43
77313,773.13
77385,773.85
77466,774.66
77550,775.5
77634,776.34
77721,777.21
77808,778.08
77894,778.94
77975,779.75
78052,780.52
78126,781.26
78200,782.0
78278,782.78
78360,783.6
78448,784.48
78539,785.39
78629,786.29
78720,787.2
78810,788.1
78899,788.99
78987,789.87
79075,790.75
79161,791.61
79247,792.47
79334,793.34
79417,794.17
79498,794.98
79583,795.83
79671,796.71
79757,797.57
79847,798.47
79933,799.33
80019,800.19
80106,801.06
80189,801.89
80275,802.75
80360,803.6
80445,804.45
80531,805.31
80617,806.17
80702,807.02
80786,807.86
80869,808.69
80947,809.47
81025,810.25
81102,811.02
81180,811.8
81259,812.59
81338,813.38
81418,814.18
81497,814.97
81575,815.75
81650,816.5
81723,817.23
81794,817.94
81863,818.63
81930,819.3
81999,819.99
82080,820.8
82167,821.67
82257,822.57
82348,823.48
82433,824.33
82511,825.11
82585,825.85
82658,826.58
82732,827.32
82804,828.04
82877,828.77
82950,829.5
83023,830.23
83097,830.97
83172,831.72
83247,832.47
83320,833.2
83392,833.92
83464,834.64
83538,835.38
83613,836.13
83691,836.91
83770,837.7
83850,838.5
83930,839.3
84008,840.08
84088,840.88
84172,841.72
84260,842.6
84348,843.48
84433,844.33
84519,845.19
84604,846.04
84688,846.88
84772,847.72
84855,848.55
84938,849.38
85021,850.21
85103,851.03
85185,851.85
85265,852.65
85344,853.44
85422,854.22
85506,855.06
85595,855.95
85684,856.84
85772,857.72
85858,858.58
85941,859.41
86022,860.22
86099,860.99
86175,861.75
86252,862.52
86333,863.33
86416,864.16
86498,864.98
86581,865.81
86669,866.69
86759,867.59
86849,868.49
86937,869.37
87029,870.29
87108,871.08
87187,871.87
87269,872.69
87350,873.5
87430,874.3
87510,875.1
87591,875.91
87669,876.69
87744,877.44
87818,878.18
87893,878.93
87970,879.7
88051,880.51
88134,881.34
88218,882.18
88300,883.0
88383,883.83
88463,884.63
88544,885.44
88624,886.24
88703,887.03
88780,887.8
88858,888.58
88936,889.36
89016,890.16
89099,890.99
89181,891.81
89263,892.63
89343,893.43
89420,894.2
89494,894.94
89566,895.66
89636,896.36
89705,897.05
89777,897.77
89860,898.6
89949,899.49
90040,900.4
90130,901.3
90220,902.2
90308,903.08
90392,903.92
90475,904.75
90555,905.55
90638,906.38
90724,907.24
90816,908.16
90908,909.08
90997,909.97
91085,910.85
91170,911.7
91253,912.53
91337,913.37
91421,914.21
91506,915.06
91591,915.91
91677,916.77
91759,917.59
91838,918.38
91918,919.18
91998,919.98
92079,920.79
92158,921.58
92233,922.33
92308,923.08
92387,923.87
92464,924.64
92543,925.43
92623,926.23
92704,927.04
92786,927.86
92870,928.7
92951,929.51
93029,930.29
93106,931.06
93184,931.84
93268,932.68
93354,933.54
93439,934.39
93524,935.24
93610,936.1
93694,936.94
93779,937.79
93863,938.63
93946,939.46
94028,940.28
94110,941.1
94189,941.89
94267,942.67
94345,943.45
94425,944.25
94508,945.08
94594,945.94
94679,946.79
94763,947.63
94846,948.46
94926,949.26
95006,950.06
95087,950.87
95168,951.68
95251,952.51
95333,953.33
95417,954.17
95500,955.0
95583,955.83
95664,956.64
95742,957.42
95819,958.19
95896,958.96
95974,959.74
96057,960.57
96142,961.42
96227,962.27
96309,963.09
96390,963.9
96469,964.69
96551,965.51
96637,966.37
96723,967.23
96809,968.09
96894,968.94
96977,969.77
97060,970.6
97143,971.43
97225,972.25
97307,973.07
97389,973.89
97471,974.71
97549,975.49
97627,976.27
97707,977.07
97789,977.89
97871,978.71
97951,979.51
98033,980.33
98116,981.16
98199,981.99
98281,982.81
98362,983.62
98444,984.44
98523,985.23
98579,985.79
98621,986.21
98666,986.66
98709,987.09
98755,987.55
98800,988.0
98842,988.42
98896,988.96
98950,989.5
99013,990.13
99261,992.61
99340,993.4
99761,997.61
100012,1000.12
100517,1005.17
100683,1006.83
100934,1009.34
101011,1010.11
101085,1010.85
101158,1011.58
101231,1012.31
101303,1013.03
101374,1013.74
101443,1014.43
101513,1015.13
101584,1015.84
101658,1016.58
101732,1017.32
101807,1018.07
101883,1018.83
101961,1019.61
102040,1020.4
102121,1021.21
102202,1022.02
102281,1022.81
102358,1023.58
102433,1024.33
102508,1025.08
102585,1025.85
102670,1026.7
102760,1027.6
102848,1028.48
102937,1029.37
103025,1030.25
103111,1031.11
103197,1031.97
103280,1032.8
103361,1033.61
103440,1034.4
103520,1035.2
103602,1036.02
103696,1036.96
103787,1037.87
103876,1038.76
103964,1039.64
104049,1040.49
104133,1041.33
104214,1042.14
104296,1042.96
104375,1043.75
104453,1044.53
104531,1045.31
104608,1046.08
104689,1046.89
104775,1047.75
104863,1048.63
104949,1049.49
105035,1050.35
105121,1051.21
105205,1052.05
105289,1052.89
105371,1053.71
105453,1054.53
105534,1055.34
105614,1056.14
105694,1056.94
105772,1057.72
105850,1058.5
105927,1059.27
106009,1060.09
106094,1060.94
106180,1061.8
106265,1062.65
106350,1063.5
106431,1064.31
106510,1065.1
106589,1065.89
106668,1066.68
106750,1067.5
106834,1068.34
106918,1069.18
107002,1070.02
107086,1070.86
107170,1071.7
107252,1072.52
107332,1073.32
107414,1074.14
107497,1074.97
107581,1075.81
107664,1076.64
107748,1077.48
107829,1078.29
107908,1079.08
107985,1079.85
108064,1080.64
108145,1081.45
108228,1082.28
108313,1083.13
108396,1083.96
108477,1084.77
108558,1085.58
108639,1086.39
108719,1087.19
108798,1087.98
108876,1088.76
108953,1089.53
109029,1090.29
109104,1091.04
109178,1091.78
109252,1092.52
109327,1093.27
109404,1094.04
109482,1094.82
109561,1095.61
109639,1096.39
109717,1097.17
109793,1097.93
109869,1098.69
109944,1099.44
110022,1100.22
110100,1101.0
110178,1101.78
110258,1102.58
110340,1103.4
110422,1104.22
110505,1105.05
110587,1105.87
110668,1106.68
110750,1107.5
110833,1108.33
110917,1109.17
111000,1110.0
111081,1110.81
111164,1111.64
111247,1112.47
111332,1113.32
111418,1114.18
111502,1115.02
111583,1115.83
111665,1116.65
111747,1117.47
111828,1118.28
111907,1119.07
111989,1119.89
112074,1120.74
112159,1121.59
112243,1122.43
112325,1123.25
112406,1124.06
112488,1124.88
112570,1125.7
112650,1126.5
112728,1127.28
112806,1128.06
112884,1128.84
112958,1129.58
113033,1130.33
113107,1131.07
113182,1131.82
113255,1132.55
113330,1133.3
113406,1134.06
113486,1134.86
113565,1135.65
113644,1136.44
113721,1137.21
113797,1137.97
113874,1138.74
113952,1139.52
114028,1140.28
114105,1141.05
114181,1141.81
114258,1142.58
114334,1143.34
114412,1144.12
114489,1144.89
114566,1145.66
114643,1146.43
114720,1147.2
114795,1147.95
114870,1148.7
114946,1149.46
115020,1150.2
115095,1150.95
115168,1151.68
115239,1152.39
115310,1153.1
115382,1153.82
115454,1154.54
115525,1155.25
115596,1155.96
115666,1156.66
115736,1157.36
115807,1158.07
115876,1158.76
115944,1159.44
116013,1160.13
116081,1160.81
116149,1161.49
116217,1162.17
116285,1162.85
116353,1163.53
116422,1164.22
116491,1164.91
116560,1165.6
116631,1166.31
116702,1167.02
116773,1167.73
116845,1168.45
116916,1169.16
116986,1169.86
117054,1170.54
117122,1171.22
117189,1171.89
117255,1172.55
117320,1173.2
117385,1173.85
117450,1174.5
117515,1175.15
117580,1175.8
117644,1176.44
117708,1177.08
117772,1177.72
117835,1178.35
117898,1178.98
117961,1179.61
118027,1180.27
118094,1180.94
118164,1181.64
118236,1182.36
118308,1183.08
118383,1183.83
118456,1184.56
118530,1185.3
118606,1186.06
118681,1186.81
118756,1187.56
118830,1188.3
118899,1188.99
118970,1189.7
119041,1190.41
119114,1191.14
119189,1191.89
119265,1192.65
119342,1193.42
119420,1194.2
119499,1194.99
119575,1195.75
119651,1196.51
119728,1197.28
119806,1198.06
119886,1198.86
119966,1199.66
120045,1200.45
120123,1201.23
120201,1202.01
120281,1202.81
120363,1203.63
120446,1204.46
120525,1205.25
120603,1206.03
120683,1206.83
120765,1207.65
120846,1208.46
120928,1209.28
121009,1210.09
121090,1210.9
121170,1211.7
121250,1212.5
121331,1213.31
121413,1214.13
121495,1214.95
121576,1215.76
121656,1216.56
121737,1217.37
121820,1218.2
121905,1219.05
121992,1219.92
122078,1220.78
122161,1221.61
122243,1222.43
122324,1223.24
122402,1224.02
122481,1224.81
122562,1225.62
122644,1226.44
122724,1227.24
122804,1228.04
122886,1228.86
122969,1229.69
123054,1230.54
123136,1231.36
123214,1232.14
123289,1232.89
123363,1233.63
123438,1234.38
123513,1235.13
123591,1235.91
123673,1236.73
123758,1237.58
123841,1238.41
123925,1239.25
124003,1240.03
124082,1240.82
124159,1241.59
124234,1242.34
124308,1243.08
124381,1243.81
124454,1244.54
124527,1245.27
124599,1245.99
124673,1246.73
124746,1247.46
124821,1248.21
124899,1248.99
124982,1249.82
125065,1250.65
125148,1251.48
125230,1252.3
125309,1253.09
125384,1253.84
125459,1254.59
125534,1255.34
125611,1256.11
125686,1256.86
125765,1257.65
125844,1258.44
125922,1259.22
126000,1260.0
126077,1260.77
126151,1261.51
126222,1262.22
126292,1262.92
126361,1263.61
126428,1264.28
126496,1264.96
126565,1265.65
126633,1266.33
126700,1267.0
126768,1267.68
126836,1268.36
126905,1269.05
126975,1269.75
127045,1270.45
127116,1271.16
127187,1271.87
127257,1272.57
127329,1273.29
127404,1274.04
127479,1274.79
127559,1275.59
127642,1276.42
127725,1277.25
127805,1278.05
127884,1278.84
127961,1279.61
128034,1280.34
128105,1281.05
128174,1281.74
128241,1282.41
128309,1283.09
128376,1283.76
128442,1284.42
128507,1285.07
128571,1285.71
128635,1286.35
128698,1286.98
128761,1287.61
128825,1288.25
128890,1288.9
128957,1289.57
129025,1290.25
129092,1290.92
129161,1291.61
129231,1292.31
129301,1293.01
129376,1293.76
129453,1294.53
129528,1295.28
129604,1296.04
129681,1296.81
129755,1297.55
129829,1298.29
129904,1299.04
129979,1299.79
130052,1300.52
130124,1301.24
130196,1301.96
130266,1302.66
130337,1303.37
130407,1304.07
130478,1304.78
130549,1305.49
130620,1306.2
130691,1306.91
130762,1307.62
130834,1308.34
130904,1309.04
130971,1309.71
131037,1310.37
131104,1311.04
131173,1311.73
131245,1312.45
131320,1313.2
131397,1313.97
131474,1314.74
131550,1315.5
131624,1316.24
131698,1316.98
131780,1317.8
131861,1318.61
131944,1319.44
132027,1320.27
132097,1320.97
132167,1321.67
132247,1322.47
132330,1323.3
132411,1324.11
132490,1324.9
132567,1325.67
132643,1326.43
132717,1327.17
132792,1327.92
132869,1328.69
132948,1329.48
133028,1330.28
133107,1331.07
133186,1331.86
133265,1332.65
133345,1333.45
133431,1334.31
133520,1335.2
133608,1336.08
133695,1336.95
133781,1337.81
133863,1338.63
133942,1339.42
134021,1340.21
134099,1340.99
134180,1341.8
134266,1342.66
134352,1343.52
134439,1344.39
134524,1345.24
134608,1346.08
134691,1346.91
134771,1347.71
134850,1348.5
134929,1349.29
135012,1350.12
135097,1350.97
135186,1351.86
135273,1352.73
135358,1353.58
135441,1354.41
135525,1355.25
135610,1356.1
135693,1356.93
135775,1357.75
135854,1358.54
135932,1359.32
136007,1360.07
136081,1360.81
136153,1361.53
136225,1362.25
136296,1362.96
136365,1363.65
136434,1364.34
136503,1365.03
136571,1365.71
136637,1366.37
136704,1367.04
136772,1367.72
136841,1368.41
136909,1369.09
136977,1369.77
137043,1370.43
137109,1371.09
137177,1371.77
137247,1372.47
137319,1373.19
137392,1373.92
137466,1374.66
137541,1375.41
137616,1376.16
137692,1376.92
137767,1377.67
137842,1378.42
137916,1379.16
137988,1379.88
138057,1380.57
138124,1381.24
138191,1381.91
138259,1382.59
138329,1383.29
138403,1384.03
138477,1384.77
138551,1385.51
138625,1386.25
138699,1386.99
138777,1387.77
138856,1388.56
138936,1389.36
139015,1390.15
139092,1390.92
139169,1391.69
139246,1392.46
139324,1393.24
139402,1394.02
139479,1394.79
139554,1395.54
139631,1396.31
139710,1397.1
139792,1397.92
139874,1398.74
139955,1399.55
140037,1400.37
140118,1401.18
140200,1402.0
140281,1402.81
140362,1403.62
140441,1404.41
140520,1405.2
140600,1406.0
140681,1406.81
140763,1407.63
140844,1408.44
140923,1409.23
141001,1410.01
141079,1410.79
141160,1411.6
141242,1412.42
141325,1413.25
141405,1414.05
141486,1414.86
141562,1415.62
141639,1416.39
141728,1417.28
141818,1418.18
141901,1419.01
141983,1419.83
142062,1420.62
142142,1421.42
142224,1422.24
142308,1423.08
142389,1423.89
142470,1424.7
142552,1425.52
142635,1426.35
142716,1427.16
142796,1427.96
142877,1428.77
142960,1429.6
143041,1430.41
143121,1431.21
143203,1432.03
143286,1432.86
143371,1433.71
143454,1434.54
143533,1435.33
143613,1436.13
143694,1436.94
143777,1437.77
143859,1438.59
143939,1439.39
144021,1440.21
144104,1441.04
144186,1441.86
144267,1442.67
144349,1443.49
144432,1444.32
144514,1445.14
144599,1445.99
144686,1446.86
144773,1447.73
144857,1448.57
144941,1449.41
145026,1450.26
145108,1451.08
145191,1451.91
145274,1452.74
145356,1453.56
145436,1454.36
145518,1455.18
145599,1455.99
145680,1456.8
145760,1457.6
145840,1458.4
145921,1459.21
146003,1460.03
146087,1460.87
146170,1461.7
146249,1462.49
146324,1463.24
146401,1464.01
146478,1464.78
146554,1465.54
146628,1466.28
146704,1467.04
146782,1467.82
146859,1468.59
146937,1469.37
147017,1470.17
147097,1470.97
147178,1471.78
147258,1472.58
147341,1473.41
147425,1474.25
147505,1475.05
147586,1475.86
147665,1476.65
147743,1477.43
147821,1478.21
147898,1478.98
147971,1479.71
148044,1480.44
148119,1481.19
148197,1481.97
148276,1482.76
148354,1483.54
148431,1484.31
148516,1485.16
148604,1486.04
148690,1486.9
148782,1487.82
148875,1488.75
148969,1489.69
149059,1490.59
149149,1491.49
149240,1492.4
149330,1493.3
149419,1494.19
149505,1495.05
149593,1495.93
149683,1496.83
149774,1497.74
149865,1498.65
149956,1499.56
150047,1500.47
150136,1501.36
150224,1502.24
150307,1503.07
150389,1503.89
150475,1504.75
150564,1505.64
150654,1506.54
150742,1507.42
150827,1508.27
150914,1509.14
151001,1510.01
151089,1510.89
151174,1511.74
151256,1512.56
151342,1513.42
151430,1514.3
151522,1515.22
151612,1516.12
151702,1517.02
151791,1517.91
151879,1518.79
151963,1519.63
152046,1520.46
152129,1521.29
152207,1522.07
152289,1522.89
152377,1523.77
152466,1524.66
152554,1525.54
152637,1526.37
152716,1527.16
152794,1527.94
152869,1528.69
152943,1529.43
153019,1530.19
153095,1530.95
153173,1531.73
153253,1532.53
153337,1533.37
153422,1534.22
153506,1535.06
153591,1535.91
153674,1536.74
153756,1537.56
153839,1538.39
153921,1539.21
154005,1540.05
154087,1540.87
154167,1541.67
154248,1542.48
154329,1543.29
154409,1544.09
154487,1544.87
154574,1545.74
154670,1546.7
154763,1547.63
154855,1548.55
154941,1549.41
155031,1550.31
155118,1551.18
155203,1552.03
155284,1552.84
155361,1553.61
155436,1554.36
155514,1555.14
155593,1555.93
155673,1556.73
155755,1557.55
155846,1558.46
155939,1559.39
156032,1560.32
156123,1561.23
156211,1562.11
156297,1562.97
156380,1563.8
156460,1564.6
156543,1565.43
156626,1566.26
156714,1567.14
156800,1568.0
156884,1568.84
156966,1569.66
157049,1570.49
157132,1571.32
157211,1572.11
157288,1572.88
157367,1573.67
157446,1574.46
157526,1575.26
157607,1576.07
157688,1576.88
157770,1577.7
157847,1578.47
157925,1579.25
158007,1580.07
158095,1580.95
158183,1581.83
158269,1582.69
158355,1583.55
158440,1584.4
158524,1585.24
158607,1586.07
158689,1586.89
158770,1587.7
158852,1588.52
158935,1589.35
159016,1590.16
159096,1590.96
159178,1591.78
159265,1592.65
159353,1593.53
159442,1594.42
159527,1595.27
159607,1596.07
159683,1596.83
159759,1597.59
159836,1598.36
159917,1599.17
160001,1600.01
160086,1600.86
160172,1601.72
160256,1602.56
160339,1603.39
160418,1604.18
160498,1604.98
160578,1605.78
160669,1606.69
160763,1607.63
160855,1608.55
160948,1609.48
161041,1610.41
161131,1611.31
161216,1612.16
161299,1612.99
161384,1613.84
161471,1614.71
161560,1615.6
161648,1616.48
161737,1617.37
161823,1618.23
161909,1619.09
161993,1619.93
162073,1620.73
162155,1621.55
162238,1622.38
162320,1623.2
162401,1624.01
162484,1624.84
162566,1625.66
162647,1626.47
162727,1627.27
162809,1628.09
162892,1628.92
162976,1629.76
163062,1630.62
163146,1631.46
163229,1632.29
163310,1633.1
163392,1633.92
163476,1634.76
163562,1635.62
163646,1636.46
163732,1637.32
163819,1638.19
163907,1639.07
163990,1639.9
164073,1640.73
164155,1641.55
164236,1642.36
164319,1643.19
164403,1644.03
164484,1644.84
164564,1645.64
164642,1646.42
164720,1647.2
164799,1647.99
164879,1648.79
164953,1649.53
165025,1650.25
165097,1650.97
165170,1651.7
165245,1652.45
165322,1653.22
165400,1654.0
165479,1654.79
165558,1655.58
165639,1656.39
165720,1657.2
165800,1658.0
165879,1658.79
165956,1659.56
166034,1660.34
166112,1661.12
166193,1661.93
166275,1662.75
166358,1663.58
166442,1664.42
166525,1665.25
166608,1666.08
166690,1666.9
166772,1667.72
166854,1668.54
166937,1669.37
167018,1670.18
167097,1670.97
167179,1671.79
167263,1672.63
167352,1673.52
167442,1674.42
167533,1675.33
167625,1676.25
167710,1677.1
167795,1677.95
167878,1678.78
167961,1679.61
168045,1680.45
168127,1681.27
168209,1682.09
168289,1682.89
168372,1683.72
168456,1684.56
168541,1685.41
168630,1686.3
168718,1687.18
168806,1688.06
168893,1688.93
168976,1689.76
169060,1690.6
169141,1691.41
169223,1692.23
169305,1693.05
169386,1693.86
169467,1694.67
169546,1695.46
169623,1696.23
169701,1697.01
169780,1697.8
169859,1698.59
169938,1699.38
170019,1700.19
170097,1700.97
170174,1701.74
170249,1702.49
170322,1703.22
170391,1703.91
170459,1704.59
170529,1705.29
170600,1706.0
170672,1706.72
170744,1707.44
170815,1708.15
170889,1708.89
170967,1709.67
171049,1710.49
171130,1711.3
171209,1712.09
171288,1712.88
171367,1713.67
171465,1714.65
171564,1715.64
171655,1716.55
171747,1717.47
171838,1718.38
171926,1719.26
172012,1720.12
172093,1720.93
172174,1721.74
172261,1722.61
172355,1723.55
172446,1724.46
172535,1725.35
172622,1726.22
172703,1727.03
172778,1727.78
172853,1728.53
172930,1729.3
173013,1730.13
173103,1731.03
173190,1731.9
173278,1732.78
173365,1733.65
173449,1734.49
173530,1735.3
173610,1736.1
173692,1736.92
173780,1737.8
173869,1738.69
173958,1739.58
174046,1740.46
174132,1741.32
174217,1742.17
174301,1743.01
174390,1743.9
174484,1744.84
174578,1745.78
174672,1746.72
174764,1747.64
174854,1748.54
174943,1749.43
175026,1750.26
175109,1751.09
175193,1751.93
175280,1752.8
175376,1753.76
175470,1754.7
175563,1755.63
175655,1756.55
175746,1757.46
175834,1758.34
175918,1759.18
176000,1760.0
176082,1760.82
176168,1761.68
176268,1762.68
176366,1763.66
176461,1764.61
176555,1765.55
176649,1766.49
176739,1767.39
176827,1768.27
176909,1769.09
176991,1769.91
177075,1770.75
177163,1771.63
177254,1772.54
177349,1773.49
177442,1774.42
177534,1775.34
177624,1776.24
177714,1777.14
177800,1778.0
177884,1778.84
177965,1779.65
178051,1780.51
178138,1781.38
178232,1782.32
178324,1783.24
178416,1784.16
178506,1785.06
178592,1785.92
178678,1786.78
178762,1787.62
178846,1788.46
178929,1789.29
179011,1790.11
179090,1790.9
179171,1791.71
179255,1792.55
179344,1793.44
179440,1794.4
179533,1795.33
179626,1796.26
179716,1797.16
179804,1798.04
179890,1798.9
179974,1799.74
180055,1800.55
180134,1801.34
180214,1802.14
180295,1802.95
180378,1803.78
180469,1804.69
180565,1805.65
180659,1806.59
180753,1807.53
180845,1808.45
180935,1809.35
181021,1810.21
181103,1811.03
181187,1811.87
181266,1812.66
181345,1813.45
181420,1814.2
181494,1814.94
181570,1815.7
181649,1816.49
181729,1817.29
181809,1818.09
181889,1818.89
181970,1819.7
182056,1820.56
182146,1821.46
182236,1822.36
182325,1823.25
182414,1824.14
182499,1824.99
182582,1825.82
182661,1826.61
182741,1827.41
182826,1828.26
182913,1829.13
182998,1829.98
183081,1830.81
183166,1831.66
183250,1832.5
183328,1833.28
183413,1834.13
183492,1834.92
183585,1835.85
183678,1836.78
183762,1837.62
183842,1838.42
183920,1839.2
184006,1840.06
184076,1840.76
184146,1841.46
184249,1842.49
184353,1843.53
184446,1844.46
184531,1845.31
184612,1846.12
184689,1846.89
184767,1847.67
184872,1848.72
184977,1849.77
185070,1850.7
185161,1851.61
185247,1852.47
185329,1853.29
185406,1854.06
185482,1854.82
185555,1855.55
185628,1856.28
185700,1857.0
185774,1857.74
185852,1858.52
185931,1859.31
186010,1860.1
186087,1860.87
186163,1861.63
186238,1862.38
186310,1863.1
186380,1863.8
186449,1864.49
186516,1865.16
186583,1865.83
186655,1866.55
186747,1867.47
186839,1868.39
186936,1869.36
187032,1870.32
187130,1871.3
187227,1872.27
187321,1873.21
187414,1874.14
187506,1875.06
187596,1875.96
187685,1876.85
187772,1877.72
187861,1878.61
187951,1879.51
188041,1880.41
188131,1881.31
188221,1882.21
188312,1883.12
188401,1884.01
188490,1884.9
188579,1885.79
188666,1886.66
188753,1887.53
188838,1888.38
188923,1889.23
189007,1890.07
189091,1890.91
189174,1891.74
189260,1892.6
189344,1893.44
189430,1894.3
189514,1895.14
189598,1895.98
189681,1896.81
189763,1897.63
189845,1898.45
189926,1899.26
190008,1900.08
190090,1900.9
190171,1901.71
190254,1902.54
190336,1903.36
190419,1904.19
190501,1905.01
190583,1905.83
190665,1906.65
190748,1907.48
190833,1908.33
190918,1909.18
191004,1910.04
191091,1910.91
191179,1911.79
191267,1912.67
191353,1913.53
191438,1914.38
191522,1915.22
191607,1916.07
191693,1916.93
191779,1917.79
191864,1918.64
191947,1919.47
192028,1920.28
192110,1921.1
192192,1921.92
192275,1922.75
192358,1923.58
192443,1924.43
192527,1925.27
192611,1926.11
192696,1926.96
192779,1927.79
192862,1928.62
192945,1929.45
193029,1930.29
193111,1931.11
193192,1931.92
193273,1932.73
193354,1933.54
193435,1934.35
193517,1935.17
193598,1935.98
193679,1936.79
193760,1937.6
193842,1938.42
193924,1939.24
194003,1940.03
194083,1940.83
194164,1941.64
194247,1942.47
194333,1943.33
194420,1944.2
194505,1945.05
194591,1945.91
194674,1946.74
194757,1947.57
194837,1948.37
194918,1949.18
194999,1949.99
195080,1950.8
195163,1951.63
195247,1952.47
195331,1953.31
195416,1954.16
195499,1954.99
195581,1955.81
195658,1956.58
195734,1957.34
195807,1958.07
195876,1958.76
195946,1959.46
196020,1960.2
196096,1960.96
196172,1961.72
196245,1962.45
196317,1963.17
196390,1963.9
196461,1964.61
196531,1965.31
196601,1966.01
196678,1966.78
196755,1967.55
196830,1968.3
196903,1969.03
196975,1969.75
197055,1970.55
197136,1971.36
197218,1972.18
197301,1973.01
197382,1973.82
197462,1974.62
197542,1975.42
197624,1976.24
197710,1977.1
197796,1977.96
197882,1978.82
197968,1979.68
198053,1980.53
198138,1981.38
198223,1982.23
198306,1983.06
198388,1983.88
198467,1984.67
198547,1985.47
198628,1986.28
198709,1987.09
198789,1987.89
198869,1988.69
198949,1989.49
199032,1990.32
199115,1991.15
199196,1991.96
199275,1992.75
199352,1993.52
199427,1994.27
199501,1995.01
199574,1995.74
199648,1996.48
199723,1997.23
199803,1998.03
199884,1998.84
199964,1999.64
200044,2000.44
200121,2001.21
200196,2001.96
200269,2002.69
200340,2003.4
200412,2004.12
200486,2004.86
200562,2005.62
200636,2006.36
200702,2007.02
200771,2007.71
200838,2008.38
200908,2009.08
200978,2009.78
201047,2010.47
201117,2011.17
201187,2011.87
201259,2012.59
201334,2013.34
201413,2014.13
201492,2014.92
201570,2015.7
201645,2016.45
201720,2017.2
201792,2017.92
201862,2018.62
201931,2019.31
202000,2020.0
202075,2020.75
202155,2021.55
202240,2022.4
202323,2023.23
202404,2024.04
202482,2024.82
202558,2025.58
202632,2026.32
202702,2027.02
202773,2027.73
202848,2028.48
202926,2029.26
203005,2030.05
203082,2030.82
203157,2031.57
203232,2032.32
203305,2033.05
203380,2033.8
203457,2034.57
203536,2035.36
203613,2036.13
203686,2036.86
203750,2037.5
203816,2038.16
203881,2038.81
203948,2039.48
204017,2040.17
204085,2040.85
204152,2041.52
204220,2042.2
204289,2042.89
204357,2043.57
204427,2044.27
204497,2044.97
204566,2045.66
204635,2046.35
204701,2047.01
204766,2047.66
204829,2048.29
204890,2048.9
204952,2049.52
205013,2050.13
205076,2050.76
205140,2051.4
205205,2052.05
205274,2052.74
205342,2053.42
205411,2054.11
205479,2054.79
205546,2055.46
205611,2056.11
205676,2056.76
205740,2057.4
205804,2058.04
205869,2058.69
205933,2059.33
205999,2059.99
206064,2060.64
206129,2061.29
206195,2061.95
206261,2062.61
206327,2063.27
206394,2063.94
206461,2064.61
206528,2065.28
206596,2065.96
206664,2066.64
206733,2067.33
206802,2068.02
206872,2068.72
206940,2069.4
207006,2070.06
207072,2070.72
207139,2071.39
207206,2072.06
207273,2072.73
207337,2073.37
207400,2074.0
207464,2074.64
207530,2075.3
207600,2076.0
207672,2076.72
207747,2077.47
207823,2078.23
207901,2079.01
207981,2079.81
208061,2080.61
208141,2081.41
208216,2082.16
208292,2082.92
208375,2083.75
208465,2084.65
208553,2085.53
208640,2086.4
208724,2087.24
208806,2088.06
208885,2088.85
208963,2089.63
209040,2090.4
209117,2091.17
209194,2091.94
209272,2092.72
209349,2093.49
209425,2094.25
209502,2095.02
209578,2095.78
209657,2096.57
209736,2097.36
209813,2098.13
209889,2098.89
209966,2099.66
210042,2100.42
210120,2101.2
210198,2101.98
210275,2102.75
210351,2103.51
210428,2104.28
210504,2105.04
210581,2105.81
210659,2106.59
210737,2107.37
210816,2108.16
210897,2108.97
210974,2109.74
211049,2110.49
211124,2111.24
211199,2111.99
211280,2112.8
211361,2113.61
211440,2114.4
211518,2115.18
211598,2115.98
211677,2116.77
211757,2117.57
211836,2118.36
211913,2119.13
211990,2119.9
212069,2120.69
212149,2121.49
212231,2122.31
212312,2123.12
212394,2123.94
212476,2124.76
212552,2125.52
212629,2126.29
212706,2127.06
212787,2127.87
212869,2128.69
212953,2129.53
213036,2130.36
213118,2131.18
213196,2131.96
213274,2132.74
213351,2133.51
213428,2134.28
213506,2135.06
213584,2135.84
213662,2136.62
213739,2137.39
213815,2138.15
213893,2138.93
213973,2139.73
214053,2140.53
214133,2141.33
214211,2142.11
214289,2142.89
214368,2143.68
214446,2144.46
214525,2145.25
214603,2146.03
214685,2146.85
214768,2147.68
214851,2148.51
214935,2149.35
215016,2150.16
215093,2150.93
215170,2151.7
215249,2152.49
215329,2153.29
215402,2154.02
215474,2154.74
215546,2155.46
215619,2156.19
215692,2156.92
215765,2157.65
215838,2158.38
215916,2159.16
215996,2159.96
216078,2160.78
216160,2161.6
216239,2162.39
216319,2163.19
216399,2163.99
216477,2164.77
216554,2165.54
216631,2166.31
216712,2167.12
216799,2167.99
216884,2168.84
216969,2169.69
217053,2170.53
217134,2171.34
217213,2172.13
217291,2172.91
217368,2173.68
217445,2174.45
217523,2175.23
217613,2176.13
217705,2177.05
217795,2177.95
217886,2178.86
217978,2179.78
218067,2180.67
218154,2181.54
218235,2182.35
218316,2183.16
218395,2183.95
218474,2184.74
218553,2185.53
218634,2186.34
218725,2187.25
218814,2188.14
218905,2189.05
218995,2189.95
219085,2190.85
219173,2191.73
219260,2192.6
219341,2193.41
219422,2194.22
219502,2195.02
219580,2195.8
219657,2196.57
219742,2197.42
219826,2198.26
219914,2199.14
220003,2200.03
220090,2200.9
220172,2201.72
220254,2202.54
220336,2203.36
220418,2204.18
220498,2204.98
220578,2205.78
220658,2206.58
220743,2207.43
220830,2208.3
220917,2209.17
220999,2209.99
221082,2210.82
221166,2211.66
221249,2212.49
221331,2213.31
221411,2214.11
221490,2214.9
221568,2215.68
221647,2216.47
221735,2217.35
221822,2218.22
221910,2219.1
221996,2219.96
222078,2220.78
222162,2221.62
222245,2222.45
222327,2223.27
222409,2224.09
222491,2224.91
222572,2225.72
222653,2226.53
222735,2227.35
222816,2228.16
222894,2228.94
222972,2229.72
223050,2230.5
223133,2231.33
223216,2232.16
223294,2232.94
223374,2233.74
223448,2234.48
223523,2235.23
223598,2235.98
223675,2236.75
223751,2237.51
223827,2238.27
223902,2239.02
223978,2239.78
224061,2240.61
224143,2241.43
224225,2242.25
224306,2243.06
224386,2243.86
224465,2244.65
224543,2245.43
224621,2246.21
224697,2246.97
224776,2247.76
224863,2248.63
224949,2249.49
225035,2250.35
225118,2251.18
225202,2252.02
225285,2252.85
225366,2253.66
225447,2254.47
225527,2255.27
225606,2256.06
225684,2256.84
225761,2257.61
225847,2258.47
225931,2259.31
226019,2260.19
226108,2261.08
226189,2261.89
226272,2262.72
226353,2263.53
226432,2264.32
226510,2265.1
226589,2265.89
226681,2266.81
226772,2267.72
226862,2268.62
226950,2269.5
227036,2270.36
227118,2271.18
227201,2272.01
227282,2272.82
227361,2273.61
227438,2274.38
227516,2275.16
227595,2275.95
227688,2276.88
227779,2277.79
227872,2278.72
227965,2279.65
228049,2280.49
228135,2281.35
228220,2282.2
228304,2283.04
228389,2283.89
228474,2284.74
228557,2285.57
228640,2286.4
228723,2287.23
228807,2288.07
228889,2288.89
228971,2289.71
229053,2290.53
229135,2291.35
229220,2292.2
229313,2293.13
229406,2294.06
229497,2294.97
229586,2295.86
229669,2296.69
229753,2297.53
229837,2298.37
229919,2299.19
229999,2299.99
230079,2300.79
230159,2301.59
230238,2302.38
230318,2303.18
230407,2304.07
230494,2304.94
230582,2305.82
230671,2306.71
230754,2307.54
230838,2308.38
230920,2309.2
231000,2310.0
231080,2310.8
231160,2311.6
231247,2312.47
231332,2313.32
231418,2314.18
231504,2315.04
231584,2315.84
231666,2316.66
231746,2317.46
231828,2318.28
231922,2319.22
232016,2320.16
232107,2321.07
232197,2321.97
232282,2322.82
232366,2323.66
232448,2324.48
232530,2325.3
232611,2326.11
232693,2326.93
232776,2327.76
232856,2328.56
232937,2329.37
233017,2330.17
233104,2331.04
233191,2331.91
233278,2332.78
233363,2333.63
233446,2334.46
233529,2335.29
233611,2336.11
233690,2336.9
233767,2337.67
233840,2338.4
233911,2339.11
233984,2339.84
234059,2340.59
234138,2341.38
234223,2342.23
234311,2343.11
234398,2343.98
234485,2344.85
234571,2345.71
234654,2346.54
234734,2347.34
234815,2348.15
234894,2348.94
234977,2349.77
235066,2350.66
235156,2351.56
235245,2352.45
235332,2353.32
235415,2354.15
235499,2354.99
235582,2355.82
235662,2356.62
235743,2357.43
235822,2358.22
235905,2359.05
235995,2359.95
236085,2360.85
236175,2361.75
236265,2362.65
236351,2363.51
236437,2364.37
236520,2365.2
236603,2366.03
236685,2366.85
236767,2367.67
236848,2368.48
236929,2369.29
237012,2370.12
237101,2371.01
237201,2372.01
237297,2372.97
237393,2373.93
237486,2374.86
237578,2375.78
237668,2376.68
237757,2377.57
237842,2378.42
237927,2379.27
238011,2380.11
238094,2380.94
238176,2381.76
238258,2382.58
238340,2383.4
238425,2384.25
238514,2385.14
238600,2386.0
238687,2386.87
238773,2387.73
238854,2388.54
238937,2389.37
239019,2390.19
239099,2390.99
239180,2391.8
239260,2392.6
239341,2393.41
239422,2394.22
239503,2395.03
239583,2395.83
239664,2396.64
239746,2397.46
239827,2398.27
239910,2399.1
239989,2399.89
240069,2400.69
240150,2401.5
240231,2402.31
240313,2403.13
240394,2403.94
240473,2404.73
240552,2405.52
240631,2406.31
240709,2407.09
240788,2407.88
240867,2408.67
240948,2409.48
241028,2410.28
241110,2411.1
241188,2411.88
241265,2412.65
241339,2413.39
241408,2414.08
241477,2414.77
241547,2415.47
241618,2416.18
241689,2416.89
241760,2417.6
241830,2418.3
241902,2419.02
241977,2419.77
242052,2420.52
242126,2421.26
242199,2421.99
242270,2422.7
242340,2423.4
242409,2424.09
242477,2424.77
242545,2425.45
242619,2426.19
242709,2427.09
242796,2427.96
242883,2428.83
242968,2429.68
243053,2430.53
243136,2431.36
243218,2432.18
243297,2432.97
243376,2433.76
243453,2434.53
243532,2435.32
243612,2436.12
243692,2436.92
243772,2437.72
243850,2438.5
243928,2439.28
244007,2440.07
244087,2440.87
244173,2441.73
244259,2442.59
244346,2443.46
244432,2444.32
244518,2445.18
244601,2446.01
244683,2446.83
244764,2447.64
244846,2448.46
244928,2449.28
245018,2450.18
245108,2451.08
245199,2451.99
245290,2452.9
245380,2453.8
245469,2454.69
245554,2455.54
245636,2456.36
245718,2457.18
245800,2458.0
245887,2458.87
245974,2459.74
246063,2460.63
246151,2461.51
246238,2462.38
246324,2463.24
246408,2464.08
246492,2464.92
246576,2465.76
246658,2466.58
246743,2467.43
246827,2468.27
246911,2469.11
246993,2469.93
247075,2470.75
247157,2471.57
247241,2472.41
247336,2473.36
247426,2474.26
247517,2475.17
247606,2476.06
247692,2476.92
247777,2477.77
247861,2478.61
247944,2479.44
248026,2480.26
248108,2481.08
248192,2481.92
248284,2482.84
248372,2483.72
248460,2484.6
248544,2485.44
248629,2486.29
248712,2487.12
248793,2487.93
248873,2488.73
248953,2489.53
249034,2490.34
249115,2491.15
249212,2492.12
249310,2493.1
249402,2494.02
249491,2494.91
249574,2495.74
249653,2496.53
249729,2497.29
249805,2498.05
249882,2498.82
249960,2499.6
250037,2500.37
250115,2501.15
250193,2501.93
250273,2502.73
250363,2503.63
250449,2504.49
250532,2505.32
250617,2506.17
250703,2507.03
250785,2507.85
250867,2508.67
250948,2509.48
251028,2510.28
251112,2511.12
251198,2511.98
251291,2512.91
251379,2513.79
251467,2514.67
251551,2515.51
251633,2516.33
251715,2517.15
251797,2517.97
251877,2518.77
251958,2519.58
252041,2520.41
252133,2521.33
252222,2522.22
252311,2523.11
252399,2523.99
252483,2524.83
252570,2525.7
252655,2526.55
252738,2527.38
252822,2528.22
252905,2529.05
252986,2529.86
253068,2530.68
253149,2531.49
253232,2532.32
253323,2533.23
253412,2534.12
253500,2535.0
253589,2535.89
253673,2536.73
253758,2537.58
253841,2538.41
253923,2539.23
254004,2540.04
254085,2540.85
254166,2541.66
254246,2542.46
254327,2543.27
254408,2544.08
254493,2544.93
254593,2545.93
254694,2546.94
254787,2547.87
254878,2548.78
254968,2549.68
255053,2550.53
255136,2551.36
255218,2552.18
255298,2552.98
255378,2553.78
255457,2554.57
255536,2555.36
255615,2556.15
255697,2556.97
255783,2557.83
255875,2558.75
255960,2559.6
256044,2560.44
256129,2561.29
256212,2562.12
256294,2562.94
256374,2563.74
256454,2564.54
256533,2565.33
256611,2566.11
256691,2566.91
256776,2567.76
256866,2568.66
256949,2569.49
257034,2570.34
257119,2571.19
257202,2572.02
257284,2572.84
257365,2573.65
257445,2574.45
257527,2575.27
257615,2576.15
257707,2577.07
257792,2577.92
257883,2578.83
257966,2579.66
258049,2580.49
258133,2581.33
258214,2582.14
258295,2582.95
258375,2583.75
258458,2584.58
258550,2585.5
258639,2586.39
258722,2587.22
258811,2588.11
258895,2588.95
258977,2589.77
259058,2590.58
259139,2591.39
259219,2592.19
259299,2592.99
259385,2593.85
259475,2594.75
259558,2595.58
259644,2596.44
259730,2597.3
259815,2598.15
259899,2598.99
259982,2599.82
260064,2600.64
260146,2601.46
260226,2602.26
260306,2603.06
260385,2603.85
260466,2604.66
260552,2605.52
260641,2606.41
260731,2607.31
260814,2608.14
260900,2609.0
260984,2609.84
261066,2610.66
261147,2611.47
261228,2612.28
261308,2613.08
261386,2613.86
261466,2614.66
261548,2615.48
261640,2616.4
261728,2617.28
261816,2618.16
261901,2619.01
261986,2619.86
262070,2620.7
262153,2621.53
262235,2622.35
262318,2623.18
262398,2623.98
262479,2624.79
262558,2625.58
262637,2626.37
262719,2627.19
262811,2628.11
262902,2629.02
262991,2629.91
263081,2630.81
263166,2631.66
263251,2632.51
263334,2633.34
263417,2634.17
263499,2634.99
263579,2635.79
263658,2636.58
263738,2637.38
263819,2638.19
263909,2639.09
263997,2639.97
264081,2640.81
264166,2641.66
264251,2642.51
264333,2643.33
264414,2644.14
264494,2644.94
264573,2645.73
264653,2646.53
264743,2647.43
264828,2648.28
264911,2649.11
264997,2649.97
265083,2650.83
265169,2651.69
265254,2652.54
265337,2653.37
265418,2654.18
265498,2654.98
265578,2655.78
265659,2656.59
265750,2657.5
265840,2658.4
265929,2659.29
266013,2660.13
266098,2660.98
266180,2661.8
266261,2662.61
266333,2663.33
266405,2664.05
266480,2664.8
266551,2665.51
266622,2666.22
266698,2666.98
266774,2667.74
266851,2668.51
266928,2669.28
267004,2670.04
267080,2670.8
267154,2671.54
267227,2672.27
267301,2673.01
267390,2673.9
267478,2674.78
267563,2675.63
267645,2676.45
267727,2677.27
267808,2678.08
267889,2678.89
267969,2679.69
268050,2680.5
268135,2681.35
268228,2682.28
268319,2683.19
268410,2684.1
268496,2684.96
268584,2685.84
268670,2686.7
268755,2687.55
268841,2688.41
268925,2689.25
269009,2690.09
269092,2690.92
269176,2691.76
269276,2692.76
269371,2693.71
269464,2694.64
269552,2695.52
269640,2696.4
269727,2697.27
269809,2698.09
269888,2698.88
269965,2699.65
270043,2700.43
270122,2701.22
270205,2702.05
270295,2702.95
270390,2703.9
270484,2704.84
270572,2705.72
270667,2706.67
270751,2707.51
270838,2708.38
270924,2709.24
271007,2710.07
271090,2710.9
271173,2711.73
271258,2712.58
271353,2713.53
271449,2714.49
271544,2715.44
271637,2716.37
271729,2717.29
271816,2718.16
271903,2719.03
271987,2719.87
272071,2720.71
272154,2721.54
272239,2722.39
272333,2723.33
272425,2724.25
272516,2725.16
272604,2726.04
272691,2726.91
272777,2727.77
272864,2728.64
272950,2729.5
273034,2730.34
273122,2731.22
273218,2732.18
273314,2733.14
273405,2734.05
273490,2734.9
273577,2735.77
273664,2736.64
273748,2737.48
273832,2738.32
273915,2739.15
273997,2739.97
274083,2740.83
274178,2741.78
274268,2742.68
274356,2743.56
274445,2744.45
274529,2745.29
274615,2746.15
274698,2746.98
274780,2747.8
274863,2748.63
274946,2749.46
275027,2750.27
275109,2751.09
275190,2751.9
275269,2752.69
275351,2753.51
275431,2754.31
275508,2755.08
275584,2755.84
275661,2756.61
275741,2757.41
275821,2758.21
275900,2759.0
275978,2759.78
276056,2760.56
276136,2761.36
276232,2762.32
276325,2763.25
276416,2764.16
276507,2765.07
276596,2765.96
276682,2766.82
276766,2767.66
276851,2768.51
276935,2769.35
277019,2770.19
277104,2771.04
277186,2771.86
277270,2772.7
277355,2773.55
277441,2774.41
277535,2775.35
277630,2776.3
277724,2777.24
277817,2778.17
277904,2779.04
277991,2779.91
278077,2780.77
278166,2781.66
278248,2782.48
278331,2783.31
278414,2784.14
278496,2784.96
278584,2785.84
278678,2786.78
278768,2787.68
278859,2788.59
278946,2789.46
279036,2790.36
279126,2791.26
279213,2792.13
279298,2792.98
279382,2793.82
279467,2794.67
279555,2795.55
279650,2796.5
279740,2797.4
279828,2798.28
279917,2799.17
280011,2800.11
280096,2800.96
280182,2801.82
280268,2802.68
280353,2803.53
280438,2804.38
280528,2805.28
280624,2806.24
280718,2807.18
280812,2808.12
280904,2809.04
280995,2809.95
281083,2810.83
281171,2811.71
281256,2812.56
281342,2813.42
281426,2814.26
281509,2815.09
281593,2815.93
281685,2816.85
281775,2817.75
281865,2818.65
281953,2819.53
282041,2820.41
282128,2821.28
282214,2822.14
282299,2822.99
282382,2823.82
282463,2824.63
282540,2825.4
282616,2826.16
282692,2826.92
282769,2827.69
282847,2828.47
282931,2829.31
283017,2830.17
283104,2831.04
283191,2831.91
283276,2832.76
283361,2833.61
283447,2834.47
283531,2835.31
283614,2836.14
283696,2836.96
283777,2837.77
283861,2838.61
283953,2839.53
284043,2840.43
284135,2841.35
284222,2842.22
284310,2843.1
284396,2843.96
284483,2844.83
284568,2845.68
284653,2846.53
284738,2847.38
284821,2848.21
284904,2849.04
284985,2849.85
285068,2850.68
285160,2851.6
285250,2852.5
285340,2853.4
285429,2854.29
285517,2855.17
285601,2856.01
285687,2856.87
285771,2857.71
285855,2858.55
285937,2859.37
286018,2860.18
286100,2861.0
286188,2861.88
286277,2862.77
286367,2863.67
286456,2864.56
286542,2865.42
286628,2866.28
286713,2867.13
286797,2867.97
286881,2868.81
286963,2869.63
287045,2870.45
287132,2871.32
287219,2872.19
287303,2873.03
287387,2873.87
287470,2874.7
287552,2875.52
287635,2876.35
287717,2877.17
287808,2878.08
287899,2878.99
287989,2879.89
288077,2880.77
288165,2881.65
288252,2882.52
288338,2883.38
288423,2884.23
288508,2885.08
288592,2885.92
288677,2886.77
288773,2887.73
288867,2888.67
288962,2889.62
289055,2890.55
289144,2891.44
289232,2892.32
289321,2893.21
289409,2894.09
289495,2894.95
289581,2895.81
289667,2896.67
289754,2897.54
289839,2898.39
289923,2899.23
290006,2900.06
290091,2900.91
290183,2901.83
290274,2902.74
290363,2903.63
290452,2904.52
290543,2905.43
290629,2906.29
290714,2907.14
290801,2908.01
290886,2908.86
290972,2909.72
291058,2910.58
291144,2911.44
291229,2912.29
291313,2913.13
291398,2913.98
291479,2914.79
291557,2915.57
291633,2916.33
291710,2917.1
291788,2917.88
291865,2918.65
291947,2919.47
292034,2920.34
292122,2921.22
292208,2922.08
292293,2922.93
292376,2923.76
292460,2924.6
292544,2925.44
292627,2926.27
292709,2927.09
292790,2927.9
292873,2928.73
292963,2929.63
293054,2930.54
293144,2931.44
293233,2932.33
293318,2933.18
293405,2934.05
293491,2934.91
293575,2935.75
293660,2936.6
293745,2937.45
293831,2938.31
293916,2939.16
294000,2940.0
294085,2940.85
294170,2941.7
294254,2942.54
294338,2943.38
294420,2944.2
294503,2945.03
294597,2945.97
294688,2946.88
294775,2947.75
294862,2948.62
294950,2949.5
295038,2950.38
295127,2951.27
295215,2952.15
295302,2953.02
295388,2953.88
295477,2954.77
295567,2955.67
295662,2956.62
295758,2957.58
295847,2958.47
295933,2959.33
296021,2960.21
296106,2961.06
296191,2961.91
296286,2962.86
296381,2963.81
296472,2964.72
296558,2965.58
296645,2966.45
296734,2967.34
296824,2968.24
296912,2969.12
296998,2969.98
297082,2970.82
297167,2971.67
297253,2972.53
297344,2973.44
297435,2974.35
297527,2975.27
297616,2976.16
297708,2977.08
297794,2977.94
297881,2978.81
297966,2979.66
298050,2980.5
298132,2981.32
298215,2982.15
298298,2982.98
298390,2983.9
298483,2984.83
298578,2985.78
298671,2986.71
298763,2987.63
298850,2988.5
298937,2989.37
299024,2990.24
299110,2991.1
299195,2991.95
299281,2992.81
299365,2993.65
299448,2994.48
299531,2995.31
299613,2996.13
299697,2996.97
299783,2997.83
299875,2998.75
299968,2999.68
300055,3000.55
300142,3001.42
300228,3002.28
300315,3003.15
300402,3004.02
300487,3004.87
300572,3005.72
300657,3006.57
300740,3007.4
300823,3008.23
300905,3009.05
300988,3009.88
301077,3010.77
301169,3011.69
301256,3012.56
301345,3013.45
301435,3014.35
301522,3015.22
301609,3016.09
301697,3016.97
301782,3017.82
301868,3018.68
301952,3019.52
302035,3020.35
302118,3021.18
302200,3022.0
302280,3022.8
302358,3023.58
302433,3024.33
302508,3025.08
302583,3025.83
302659,3026.59
302736,3027.36
302818,3028.18
302903,3029.03
302985,3029.85
303067,3030.67
303152,3031.52
303235,3032.35
303315,3033.15
303395,3033.95
303474,3034.74
303555,3035.55
303646,3036.46
303737,3037.37
303827,3038.27
303914,3039.14
304001,3040.01
304088,3040.88
304173,3041.73
304259,3042.59
304344,3043.44
304427,3044.27
304511,3045.11
304593,3045.93
304677,3046.77
304773,3047.73
304866,3048.66
304959,3049.59
305049,3050.49
305135,3051.35
305221,3052.21
305306,3053.06
305389,3053.89
305473,3054.73
305556,3055.56
305641,3056.41
305726,3057.26
305812,3058.12
305895,3058.95
305978,3059.78
306061,3060.61
306147,3061.47
306238,3062.38
306328,3063.28
306416,3064.16
306501,3065.01
306588,3065.88
306673,3066.73
306758,3067.58
306842,3068.42
306927,3069.27
307011,3070.11
307093,3070.93
307176,3071.76
307260,3072.6
307347,3073.47
307436,3074.36
307524,3075.24
307610,3076.1
307696,3076.96
307781,3077.81
307867,3078.67
307953,3079.53
308036,3080.36
308121,3081.21
308206,3082.06
308291,3082.91
308374,3083.74
308456,3084.56
308539,3085.39
308623,3086.23
308712,3087.12
308801,3088.01
308891,3088.91
308980,3089.8
309066,3090.66
309150,3091.5
309235,3092.35
309319,3093.19
309402,3094.02
309484,3094.84
309566,3095.66
309649,3096.49
309737,3097.37
309827,3098.27
309919,3099.19
310010,3100.1
310097,3100.97
310185,3101.85
310271,3102.71
310357,3103.57
310443,3104.43
310526,3105.26
310610,3106.1
310692,3106.92
310776,3107.76
310864,3108.64
310953,3109.53
311041,3110.41
311126,3111.26
311213,3112.13
311300,3113.0
311386,3113.86
311469,3114.69
311553,3115.53
311638,3116.38
311724,3117.24
311813,3118.13
311902,3119.02
311989,3119.89
312077,3120.77
312162,3121.62
312249,3122.49
312334,3123.34
312419,3124.19
312503,3125.03
312590,3125.9
312681,3126.81
312771,3127.71
312861,3128.61
312951,3129.51
313038,3130.38
313125,3131.25
313210,3132.1
313296,3132.96
313381,3133.81
313466,3134.66
313550,3135.5
313635,3136.35
313720,3137.2
313805,3138.05
313896,3138.96
313986,3139.86
314075,3140.75
314163,3141.63
314247,3142.47
314331,3143.31
314413,3144.13
314491,3144.91
314566,3145.66
314641,3146.41
314719,3147.19
314797,3147.97
314877,3148.77
314964,3149.64
315052,3150.52
315140,3151.4
315231,3152.31
315323,3153.23
315414,3154.14
315500,3155.0
315586,3155.86
315671,3156.71
315755,3157.55
315842,3158.42
315932,3159.32
316023,3160.23
316108,3161.08
316194,3161.94
316281,3162.81
316367,3163.67
316454,3164.54
316538,3165.38
316623,3166.23
316706,3167.06
316790,3167.9
316880,3168.8
316976,3169.76
317071,3170.71
317164,3171.64
317257,3172.57
317349,3173.49
317437,3174.37
317524,3175.24
317611,3176.11
317697,3176.97
317784,3177.84
317869,3178.69
317953,3179.53
318038,3180.38
318123,3181.23
318209,3182.09
318298,3182.98
318389,3183.89
318477,3184.77
318562,3185.62
318648,3186.48
318734,3187.34
318821,3188.21
318907,3189.07
318990,3189.9
319076,3190.76
319160,3191.6
319244,3192.44
319328,3193.28
319417,3194.17
319512,3195.12
319604,3196.04
319697,3196.97
319788,3197.88
319879,3198.79
319967,3199.67
320054,3200.54
320143,3201.43
320230,3202.3
320318,3203.18
320404,3204.04
320489,3204.89
320576,3205.76
320664,3206.64
320758,3207.58
320853,3208.53
320944,3209.44
321036,3210.36
321127,3211.27
321218,3212.18
321307,3213.07
321393,3213.93
321480,3214.8
321569,3215.69
321664,3216.64
321760,3217.6
321853,3218.53
321945,3219.45
322036,3220.36
322125,3221.25
322212,3222.12
322299,3222.99
322384,3223.84
322472,3224.72
322565,3225.65
322657,3226.57
322747,3227.47
322836,3228.36
322926,3229.26
323018,3230.18
323106,3231.06
323193,3231.93
323282,3232.82
323372,3233.72
323463,3234.63
323552,3235.52
323640,3236.4
323727,3237.27
323813,3238.13
323901,3239.01
323994,3239.94
324085,3240.85
324176,3241.76
324267,3242.67
324357,3243.57
324445,3244.45
324534,3245.34
324621,3246.21
324706,3247.06
324791,3247.91
324876,3248.76
324963,3249.63
325056,3250.56
325148,3251.48
325239,3252.39
325330,3253.3
325418,3254.18
325507,3255.07
325595,3255.95
325683,3256.83
325771,3257.71
325860,3258.6
325950,3259.5
326037,3260.37
326125,3261.25
326217,3262.17
326310,3263.1
326399,3263.99
326488,3264.88
326576,3265.76
326663,3266.63
326748,3267.48
326831,3268.31
326914,3269.14
326996,3269.96
327079,3270.79
327166,3271.66
327259,3272.59
327351,3273.51
327442,3274.42
327531,3275.31
327620,3276.2
327706,3277.06
327791,3277.91
327876,3278.76
327957,3279.57
328038,3280.38
328119,3281.19
328199,3281.99
328280,3282.8
328365,3283.65
328454,3284.54
328546,3285.46
328636,3286.36
328726,3287.26
328813,3288.13
328897,3288.97
328981,3289.81
329064,3290.64
329145,3291.45
329227,3292.27
329307,3293.07
329387,3293.87
329467,3294.67
329549,3295.49
329638,3296.38
329734,3297.34
329828,3298.28
329920,3299.2
330011,3300.11
330100,3301.0
330186,3301.86
330272,3302.72
330356,3303.56
330441,3304.41
330527,3305.27
330613,3306.13
330699,3306.99
330785,3307.85
330870,3308.7
330953,3309.53
331037,3310.37
331120,3311.2
331209,3312.09
331298,3312.98
331389,3313.89
331474,3314.74
331559,3315.59
331645,3316.45
331727,3317.27
331809,3318.09
331889,3318.89
331971,3319.71
332056,3320.56
332144,3321.44
332233,3322.33
332320,3323.2
332406,3324.06
332490,3324.9
332576,3325.76
332659,3326.59
332742,3327.42
332823,3328.23
332906,3329.06
332995,3329.95
333082,3330.82
333170,3331.7
333260,3332.6
333348,3333.48
333437,3334.37
333526,3335.26
333614,3336.14
333703,3337.03
333792,3337.92
333878,3338.78
333964,3339.64
334050,3340.5
334137,3341.37
334222,3342.22
334306,3343.06
334390,3343.9
334473,3344.73
334558,3345.58
334648,3346.48
334736,3347.36
334825,3348.25
334913,3349.13
335000,3350.0
335088,3350.88
335176,3351.76
335263,3352.63
335348,3353.48
335432,3354.32
335516,3355.16
335598,3355.98
335684,3356.84
335771,3357.71
335857,3358.57
335942,3359.42
336025,3360.25
336108,3361.08
336190,3361.9
336271,3362.71
336351,3363.51
336432,3364.32
336515,3365.15
336597,3365.97
336681,3366.81
336765,3367.65
336851,3368.51
336937,3369.37
337023,3370.23
337108,3371.08
337192,3371.92
337276,3372.76
337360,3373.6
337445,3374.45
337530,3375.3
337615,3376.15
337698,3376.98
337784,3377.84
337868,3378.68
337952,3379.52
338038,3380.38
338129,3381.29
338221,3382.21
338308,3383.08
338394,3383.94
338480,3384.8
338566,3385.66
338650,3386.5
338735,3387.35
338820,3388.2
338906,3389.06
338994,3389.94
339080,3390.8
339166,3391.66
339251,3392.51
339338,3393.38
339424,3394.24
339511,3395.11
339599,3395.99
339687,3396.87
339775,3397.75
339862,3398.62
339946,3399.46
340030,3400.3
340113,3401.13
340195,3401.95
340277,3402.77
340358,3403.58
340448,3404.48
340539,3405.39
340625,3406.25
340715,3407.15
340803,3408.03
340888,3408.88
340973,3409.73
341057,3410.57
341141,3411.41
341228,3412.28
341314,3413.14
341401,3414.01
341489,3414.89
341578,3415.78
341664,3416.64
341751,3417.51
341838,3418.38
341924,3419.24
342012,3420.12
342098,3420.98
342183,3421.83
342269,3422.69
342354,3423.54
342438,3424.38
342523,3425.23
342606,3426.06
342689,3426.89
342775,3427.75
342863,3428.63
342951,3429.51
343039,3430.39
343128,3431.28
343216,3432.16
343303,3433.03
343387,3433.87
343470,3434.7
343553,3435.53
343636,3436.36
343719,3437.19
343808,3438.08
343897,3438.97
343985,3439.85
344075,3440.75
344163,3441.63
344253,3442.53
344340,3443.4
344426,3444.26
344512,3445.12
344597,3445.97
344680,3446.8
344765,3447.65
344850,3448.5
344935,3449.35
345017,3450.17
345100,3451.0
345186,3451.86
345272,3452.72
345361,3453.61
345451,3454.51
345538,3455.38
345626,3456.26
345716,3457.16
345801,3458.01
345887,3458.87
345972,3459.72
346058,3460.58
346144,3461.44
346231,3462.31
346319,3463.19
346407,3464.07
346493,3464.93
346580,3465.8
346668,3466.68
346751,3467.51
346833,3468.33
346914,3469.14
346997,3469.97
347098,3470.98
347200,3472.0
347294,3472.94
347388,3473.88
347479,3474.79
347568,3475.68
347656,3476.56
347742,3477.42
347827,3478.27
347911,3479.11
347994,3479.94
348078,3480.78
348164,3481.64
348250,3482.5
348338,3483.38
348424,3484.24
348510,3485.1
348598,3485.98
348686,3486.86
348773,3487.73
348861,3488.61
348948,3489.48
349037,3490.37
349123,3491.23
349210,3492.1
349294,3492.94
349379,3493.79
349464,3494.64
349548,3495.48
349633,3496.33
349719,3497.19
349805,3498.05
349893,3498.93
349978,3499.78
350063,3500.63
350148,3501.48
350230,3502.3
350312,3503.12
350392,3503.92
350473,3504.73
350564,3505.64
350655,3506.55
350745,3507.45
350832,3508.32
350918,3509.18
351005,3510.05
351092,3510.92
351180,3511.8
351268,3512.68
351357,3513.57
351446,3514.46
351536,3515.36
351625,3516.25
351713,3517.13
351801,3518.01
351889,3518.89
351976,3519.76
352064,3520.64
352153,3521.53
352244,3522.44
352331,3523.31
352418,3524.18
352506,3525.06
352595,3525.95
352691,3526.91
352787,3527.87
352875,3528.75
352967,3529.67
353056,3530.56
353147,3531.47
353235,3532.35
353324,3533.24
353412,3534.12
353500,3535.0
353587,3535.87
353675,3536.75
353763,3537.63
353852,3538.52
353942,3539.42
354030,3540.3
354118,3541.18
354202,3542.02
354285,3542.85
354369,3543.69
354455,3544.55
354541,3545.41
354630,3546.3
354719,3547.19
354805,3548.05
354891,3548.91
354977,3549.77
355064,3550.64
355159,3551.59
355250,3552.5
355338,3553.38
355426,3554.26
355514,3555.14
355599,3555.99
355688,3556.88
355778,3557.78
355869,3558.69
355956,3559.56
356044,3560.44
356131,3561.31
356217,3562.17
356303,3563.03
356390,3563.9
356479,3564.79
356566,3565.66
356653,3566.53
356740,3567.4
356827,3568.27
356912,3569.12
356997,3569.97
357082,3570.82
357166,3571.66
357251,3572.51
357337,3573.37
357422,3574.22
357507,3575.07
357591,3575.91
357675,3576.75
357760,3577.6
357848,3578.48
357932,3579.32
358014,3580.14
358095,3580.95
358179,3581.79
358266,3582.66
358356,3583.56
358443,3584.43
358528,3585.28
358613,3586.13
358701,3587.01
358788,3587.88
358878,3588.78
358968,3589.68
359059,3590.59
359145,3591.45
359234,3592.34
359322,3593.22
359410,3594.1
359500,3595.0
359588,3595.88
359676,3596.76
359762,3597.62
359844,3598.44
359926,3599.26
360009,3600.09
360100,3601.0
360189,3601.89
360281,3602.81
360373,3603.73
360460,3604.6
360547,3605.47
360636,3606.36
360725,3607.25
360816,3608.16
360904,3609.04
360993,3609.93
361080,3610.8
361167,3611.67
361254,3612.54
361340,3613.4
361425,3614.25
361511,3615.11
361596,3615.96
361680,3616.8
361762,3617.62
361848,3618.48
361935,3619.35
362024,3620.24
362114,3621.14
362202,3622.02
362288,3622.88
362375,3623.75
362463,3624.63
362553,3625.53
362642,3626.42
362731,3627.31
362816,3628.16
362901,3629.01
362985,3629.85
363069,3630.69
363154,3631.54
363237,3632.37
363319,3633.19
363402,3634.02
363483,3634.83
363567,3635.67
363660,3636.6
363753,3637.53
363842,3638.42
363931,3639.31
364018,3640.18
364105,3641.05
364190,3641.9
364274,3642.74
364356,3643.56
364438,3644.38
364521,3645.21
364605,3646.05
364693,3646.93
364781,3647.81
364868,3648.68
364956,3649.56
365044,3650.44
365133,3651.33
365221,3652.21
365309,3653.09
365395,3653.95
365482,3654.82
365569,3655.69
365655,3656.55
365743,3657.43
365832,3658.32
365922,3659.22
366011,3660.11
366099,3660.99
366183,3661.83
366267,3662.67
366352,3663.52
366440,3664.4
366534,3665.34
366627,3666.27
366720,3667.2
366810,3668.1
366900,3669.0
366989,3669.89
367078,3670.78
367166,3671.66
367256,3672.56
367345,3673.45
367435,3674.35
367524,3675.24
367609,3676.09
367694,3676.94
367781,3677.81
367874,3678.74
367968,3679.68
368057,3680.57
368148,3681.48
368234,3682.34
368319,3683.19
368406,3684.06
368495,3684.95
368585,3685.85
368676,3686.76
368765,3687.65
368854,3688.54
368943,3689.43
369032,3690.32
369120,3691.2
369210,3692.1
369301,3693.01
369393,3693.93
369484,3694.84
369575,3695.75
369667,3696.67
369752,3697.52
369838,3698.38
369926,3699.26
370019,3700.19
370113,3701.13
370203,3702.03
370292,3702.92
370379,3703.79
370467,3704.67
370554,3705.54
370643,3706.43
370733,3707.33
370825,3708.25
370912,3709.12
370998,3709.98
371084,3710.84
371173,3711.73
371261,3712.61
371350,3713.5
371437,3714.37
371524,3715.24
371608,3716.08
371692,3716.92
371777,3717.77
371864,3718.64
371953,3719.53
372042,3720.42
372131,3721.31
372219,3722.19
372307,3723.07
372395,3723.95
372483,3724.83
372570,3725.7
372656,3726.56
372742,3727.42
372830,3728.3
372917,3729.17
373003,3730.03
373087,3730.87
373171,3731.71
373254,3732.54
373339,3733.39
373426,3734.26
373511,3735.11
373595,3735.95
373682,3736.82
373770,3737.7
373857,3738.57
373943,3739.43
374029,3740.29
374111,3741.11
374190,3741.9
374265,3742.65
374341,3743.41
374417,3744.17
374493,3744.93
374568,3745.68
374641,3746.41
374714,3747.14
374792,3747.92
374874,3748.74
374956,3749.56
375038,3750.38
375121,3751.21
375207,3752.07
375296,3752.96
375383,3753.83
375471,3754.71
375560,3755.6
375645,3756.45
375730,3757.3
375813,3758.13
375899,3758.99
375987,3759.87
376078,3760.78
376169,3761.69
376259,3762.59
376347,3763.47
376436,3764.36
376524,3765.24
376614,3766.14
376704,3767.04
376791,3767.91
376880,3768.8
376966,3769.66
377050,3770.5
377133,3771.33
377216,3772.16
377303,3773.03
377395,3773.95
377488,3774.88
377577,3775.77
377667,3776.67
377753,3777.53
377840,3778.4
377927,3779.27
378014,3780.14
378102,3781.02
378189,3781.89
378275,3782.75
378359,3783.59
378444,3784.44
378531,3785.31
378618,3786.18
378709,3787.09
378798,3787.98
378887,3788.87
378975,3789.75
379064,3790.64
379151,3791.51
379240,3792.4
379327,3793.27
379415,3794.15
379500,3795.0
379585,3795.85
379669,3796.69
379755,3797.55
379844,3798.44
379936,3799.36
380029,3800.29
380119,3801.19
380205,3802.05
380291,3802.91
380379,3803.79
380467,3804.67
380556,3805.56
380646,3806.46
380733,3807.33
380820,3808.2
380907,3809.07
380997,3809.97
381087,3810.87
381177,3811.77
381268,3812.68
381356,3813.56
381442,3814.42
381529,3815.29
381616,3816.16
381705,3817.05
381793,3817.93
381877,3818.77
381960,3819.6
382044,3820.44
382132,3821.32
382221,3822.21
382309,3823.09
382394,3823.94
382480,3824.8
382567,3825.67
382655,3826.55
382744,3827.44
382834,3828.34
382919,3829.19
383001,3830.01
383084,3830.84
383168,3831.68
383253,3832.53
383339,3833.39
383424,3834.24
383508,3835.08
383592,3835.92
383675,3836.75
383762,3837.62
383850,3838.5
383938,3839.38
384026,3840.26
384113,3841.13
384198,3841.98
384282,3842.82
384365,3843.65
384447,3844.47
384530,3845.3
384614,3846.14
384699,3846.99
384786,3847.86
384873,3848.73
384960,3849.6
385048,3850.48
385135,3851.35
385224,3852.24
385311,3853.11
385399,3853.99
385487,3854.87
385573,3855.73
385659,3856.59
385742,3857.42
385826,3858.26
385912,3859.12
386000,3860.0
386090,3860.9
386181,3861.81
386269,3862.69
386354,3863.54
386437,3864.37
386521,3865.21
386607,3866.07
386694,3866.94
386783,3867.83
386873,3868.73
386963,3869.63
387051,3870.51
387139,3871.39
387228,3872.28
387318,3873.18
387407,3874.07
387495,3874.95
387581,3875.81
387665,3876.65
387751,3877.51
387839,3878.39
387929,3879.29
388020,3880.2
388111,3881.11
388201,3882.01
388291,3882.91
388381,3883.81
388471,3884.71
388559,3885.59
388647,3886.47
388732,3887.32
388819,3888.19
388905,3889.05
388993,3889.93
389083,3890.83
389171,3891.71
389259,3892.59
389345,3893.45
389429,3894.29
389511,3895.11
389595,3895.95
389683,3896.83
389771,3897.71
389857,3898.57
389943,3899.43
390030,3900.3
390118,3901.18
390207,3902.07
390297,3902.97
390385,3903.85
390471,3904.71
390557,3905.57
390642,3906.42
390727,3907.27
390813,3908.13
390900,3909.0
390985,3909.85
391070,3910.7
391155,3911.55
391240,3912.4
391326,3913.26
391410,3914.1
391493,3914.93
391574,3915.74
391653,3916.53
391731,3917.31
391809,3918.09
391887,3918.87
391966,3919.66
392044,3920.44
392122,3921.22
392200,3922.0
392288,3922.88
392374,3923.74
392463,3924.63
392552,3925.52
392641,3926.41
392729,3927.29
392817,3928.17
392903,3929.03
392990,3929.9
393077,3930.77
393162,3931.62
393248,3932.48
393334,3933.34
393420,3934.2
393510,3935.1
393601,3936.01
393690,3936.9
393777,3937.77
393863,3938.63
393947,3939.47
394034,3940.34
394121,3941.21
394207,3942.07
394295,3942.95
394385,3943.85
394472,3944.72
394558,3945.58
394644,3946.44
394733,3947.33
394824,3948.24
394913,3949.13
395002,3950.02
395091,3950.91
395176,3951.76
395263,3952.63
395349,3953.49
395441,3954.41
395533,3955.33
395624,3956.24
395714,3957.14
395806,3958.06
395898,3958.98
395989,3959.89
396080,3960.8
396169,3961.69
396256,3962.56
396340,3963.4
396425,3964.25
396511,3965.11
396599,3965.99
396688,3966.88
396777,3967.77
396866,3968.66
396955,3969.55
397040,3970.4
397124,3971.24
397208,3972.08
397292,3972.92
397377,3973.77
397461,3974.61
397543,3975.43
397622,3976.22
397698,3976.98
397773,3977.73
397847,3978.47
397921,3979.21
397995,3979.95
398066,3980.66
398137,3981.37
398205,3982.05
398273,3982.73
398340,3983.4
398406,3984.06
398473,3984.73
398539,3985.39
398608,3986.08
398678,3986.78
398750,3987.5
398823,3988.23
398896,3988.96
398968,3989.68
399041,3990.41
399113,3991.13
399184,3991.84
399259,3992.59
399344,3993.44
399433,3994.33
399523,3995.23
399613,3996.13
399699,3996.99
399786,3997.86
399872,3998.72
399957,3999.57
400042,4000.42
400137,4001.37
400232,4002.32
400326,4003.26
400421,4004.21
400514,4005.14
400603,4006.03
400691,4006.91
400776,4007.76
400863,4008.63
400951,4009.51
401044,4010.44
401136,4011.36
401230,4012.3
401323,4013.23
401415,4014.15
401504,4015.04
401591,4015.91
401677,4016.77
401764,4017.64
401853,4018.53
401944,4019.44
402038,4020.38
402132,4021.32
402224,4022.24
402316,4023.16
402408,4024.08
402498,4024.98
402585,4025.85
402670,4026.7
402753,4027.53
402835,4028.35
402917,4029.17
403006,4030.06
403094,4030.94
403183,4031.83
403273,4032.73
403360,4033.6
403446,4034.46
403531,4035.31
403616,4036.16
403700,4037.0
403783,4037.83
403865,4038.65
403947,4039.47
404031,4040.31
404117,4041.17
404205,4042.05
404291,4042.91
404376,4043.76
404460,4044.6
404543,4045.43
404625,4046.25
404707,4047.07
404787,4047.87
404868,4048.68
404948,4049.48
405027,4050.27
405106,4051.06
405185,4051.85
405268,4052.68
405355,4053.55
405443,4054.43
405529,4055.29
405615,4056.15
405699,4056.99
405783,4057.83
405865,4058.65
405946,4059.46
406027,4060.27
406108,4061.08
406192,4061.92
406276,4062.76
406362,4063.62
406448,4064.48
406534,4065.34
406618,4066.18
406704,4067.04
406788,4067.88
406871,4068.71
406954,4069.54
407036,4070.36
407119,4071.19
407202,4072.02
407285,4072.85
407368,4073.68
407451,4074.51
407532,4075.32
407612,4076.12
407692,4076.92
407771,4077.71
407852,4078.52
407946,4079.46
408035,4080.35
408121,4081.21
408208,4082.08
408294,4082.94
408378,4083.78
408461,4084.61
408543,4085.43
408625,4086.25
408705,4087.05
408785,4087.85
408864,4088.64
408943,4089.43
409021,4090.21
409104,4091.04
409190,4091.9
409275,4092.75
409358,4093.58
409440,4094.4
409521,4095.21
409602,4096.02
409682,4096.82
409760,4097.6
409838,4098.38
409916,4099.16
409993,4099.93
410071,4100.71
410151,4101.51
410240,4102.4
410330,4103.3
410415,4104.15
410500,4105.0
410585,4105.85
410670,4106.7
410753,4107.53
410834,4108.34
410914,4109.14
410992,4109.92
411071,4110.71
411152,4111.52
411238,4112.38
411323,4113.23
411410,4114.1
411495,4114.95
411581,4115.81
411666,4116.66
411749,4117.49
411832,4118.32
411912,4119.12
411992,4119.92
412072,4120.72
412153,4121.53
412237,4122.37
412322,4123.22
412406,4124.06
412491,4124.91
412573,4125.73
412654,4126.54
412734,4127.34
412812,4128.12
412890,4128.9
412966,4129.66
413042,4130.42
413118,4131.18
413196,4131.96
413275,4132.75
413355,4133.55
413434,4134.34
413515,4135.15
413598,4135.98
413682,4136.82
413767,4137.67
413851,4138.51
413934,4139.34
414018,4140.18
414099,4140.99
414179,4141.79
414259,4142.59
414337,4143.37
414417,4144.17
414499,4144.99
414583,4145.83
414668,4146.68
414752,4147.52
414836,4148.36
414918,4149.18
414999,4149.99
415079,4150.79
415159,4151.59
415237,4152.37
415315,4153.15
415394,4153.94
415475,4154.75
415564,4155.64
415653,4156.53
415739,4157.39
415827,4158.27
415912,4159.12
415996,4159.96
416078,4160.78
416158,4161.58
416237,4162.37
416315,4163.15
416393,4163.93
416471,4164.71
416550,4165.5
416632,4166.32
416716,4167.16
416800,4168.0
416883,4168.83
416966,4169.66
417048,4170.48
417129,4171.29
417210,4172.1
417290,4172.9
417369,4173.69
417446,4174.46
417523,4175.23
417601,4176.01
417679,4176.79
417757,4177.57
417836,4178.36
417915,4179.15
417993,4179.93
418074,4180.74
418161,4181.61
418247,4182.47
418334,4183.34
418419,4184.19
418504,4185.04
418587,4185.87
418670,4186.7
418752,4187.52
418833,4188.33
418913,4189.13
418994,4189.94
419074,4190.74
419156,4191.56
419239,4192.39
419324,4193.24
419409,4194.09
419493,4194.93
419576,4195.76
419657,4196.57
419738,4197.38
419819,4198.19
419901,4199.01
419982,4199.82
420065,4200.65
420148,4201.48
420230,4202.3
420312,4203.12
420392,4203.92
420473,4204.73
420555,4205.55
420637,4206.37
420720,4207.2
420803,4208.03
420886,4208.86
420968,4209.68
421049,4210.49
421130,4211.3
421214,4212.14
421298,4212.98
421385,4213.85
421472,4214.72
421558,4215.58
421643,4216.43
421729,4217.29
421811,4218.11
421893,4218.93
421975,4219.75
422058,4220.58
422141,4221.41
422224,4222.24
422308,4223.08
422390,4223.9
422470,4224.7
422551,4225.51
422632,4226.32
422713,4227.13
422796,4227.96
422879,4228.79
422963,4229.63
423048,4230.48
423134,4231.34
423217,4232.17
423298,4232.98
423378,4233.78
423457,4234.57
423537,4235.37
423620,4236.2
423707,4237.07
423793,4237.93
423877,4238.77
423960,4239.6
424043,4240.43
424125,4241.25
424206,4242.06
424286,4242.86
424365,4243.65
424444,4244.44
424523,4245.23
424604,4246.04
424686,4246.86
424769,4247.69
424852,4248.52
424935,4249.35
425016,4250.16
425096,4250.96
425175,4251.75
425253,4252.53
425331,4253.31
425410,4254.1
425491,4254.91
425574,4255.74
425659,4256.59
425743,4257.43
425826,4258.26
425909,4259.09
425989,4259.89
426069,4260.69
426149,4261.49
426227,4262.27
426306,4263.06
426384,4263.84
426462,4264.62
426540,4265.4
426618,4266.18
426698,4266.98
426782,4267.82
426869,4268.69
426953,4269.53
427037,4270.37
427119,4271.19
427201,4272.01
427280,4272.8
427359,4273.59
427437,4274.37
427515,4275.15
427595,4275.95
427677,4276.77
427759,4277.59
427842,4278.42
427925,4279.25
428006,4280.06
428086,4280.86
428167,4281.67
428248,4282.48
428329,4283.29
428411,4284.11
428492,4284.92
428573,4285.73
428653,4286.53
428732,4287.32
428812,4288.12
428892,4288.92
428973,4289.73
429055,4290.55
429138,4291.38
429220,4292.2
429301,4293.01
429382,4293.82
429461,4294.61
429541,4295.41
429619,4296.19
429699,4296.99
429779,4297.79
429857,4298.57
429937,4299.37
430015,4300.15
430093,4300.93
430172,4301.72
430252,4302.52
430332,4303.32
430410,4304.1
430489,4304.89
430567,4305.67
430645,4306.45
430724,4307.24
430803,4308.03
430882,4308.82
430960,4309.6
431039,4310.39
431117,4311.17
431197,4311.97
431278,4312.78
431359,4313.59
431441,4314.41
431522,4315.22
431603,4316.03
431683,4316.83
431764,4317.64
431846,4318.46
431928,4319.28
432011,4320.11
432093,4320.93
432173,4321.73
432252,4322.52
432329,4323.29
432408,4324.08
432489,4324.89
432570,4325.7
432651,4326.51
432734,4327.34
432817,4328.17
432898,4328.98
432980,4329.8
433060,4330.6
433137,4331.37
433213,4332.13
433286,4332.86
433357,4333.57
433428,4334.28
433502,4335.02
433576,4335.76
433651,4336.51
433728,4337.28
433807,4338.07
433889,4338.89
433970,4339.7
434052,4340.52
434134,4341.34
434214,4342.14
434293,4342.93
434371,4343.71
434449,4344.49
434528,4345.28
434610,4346.1
434692,4346.92
434775,4347.75
434857,4348.57
434937,4349.37
435017,4350.17
435096,4350.96
435173,4351.73
435250,4352.5
435329,4353.29
435411,4354.11
435494,4354.94
435577,4355.77
435660,4356.6
435743,4357.43
435826,4358.26
435906,4359.06
435985,4359.85
436064,4360.64
436142,4361.42
436224,4362.24
436306,4363.06
436388,4363.88
436470,4364.7
436550,4365.5
436631,4366.31
436712,4367.12
436794,4367.94
436877,4368.77
436957,4369.57
437032,4370.32
437107,4371.07
437181,4371.81
437256,4372.56
437330,4373.3
437406,4374.06
437483,4374.83
437564,4375.64
437646,4376.46
437729,4377.29
437812,4378.12
437894,4378.94
437974,4379.74
438053,4380.53
438134,4381.34
438216,4382.16
438298,4382.98
438381,4383.81
438463,4384.63
438544,4385.44
438625,4386.25
438704,4387.04
438782,4387.82
438859,4388.59
438937,4389.37
439016,4390.16
439096,4390.96
439176,4391.76
439256,4392.56
439335,4393.35
439412,4394.12
439489,4394.89
439567,4395.67
439646,4396.46
439727,4397.27
439808,4398.08
439889,4398.89
439969,4399.69
440049,4400.49
440128,4401.28
440206,4402.06
440283,4402.83
440360,4403.6
440439,4404.39
440522,4405.22
440607,4406.07
440690,4406.9
440774,4407.74
440858,4408.58
440940,4409.4
441021,4410.21
441101,4411.01
441183,4411.83
441266,4412.66
441349,4413.49
441434,4414.34
441518,4415.18
441602,4416.02
441685,4416.85
441766,4417.66
441848,4418.48
441929,4419.29
442009,4420.09
442090,4420.9
442169,4421.69
442251,4422.51
442334,4423.34
442419,4424.19
442503,4425.03
442587,4425.87
442670,4426.7
442752,4427.52
442832,4428.32
442913,4429.13
442995,4429.95
443078,4430.78
443161,4431.61
443245,4432.45
443327,4433.27
443407,4434.07
443488,4434.88
443571,4435.71
443656,4436.56
443745,4437.45
443834,4438.34
443921,4439.21
444006,4440.06
444089,4440.89
444169,4441.69
444250,4442.5
444330,4443.3
444412,4444.12
444495,4444.95
444579,4445.79
444663,4446.63
444746,4447.46
444829,4448.29
444911,4449.11
444992,4449.92
445074,4450.74
445157,4451.57
445241,4452.41
445325,4453.25
445408,4454.08
445491,4454.91
445573,4455.73
445653,4456.53
445734,4457.34
445814,4458.14
445895,4458.95
445978,4459.78
446062,4460.62
446146,4461.46
446231,4462.31
446315,4463.15
446398,4463.98
446480,4464.8
446560,4465.6
446639,4466.39
446719,4467.19
446800,4468.0
446882,4468.82
446968,4469.68
447052,4470.52
447137,4471.37
447222,4472.22
447305,4473.05
447388,4473.88
447471,4474.71
447554,4475.54
447636,4476.36
447717,4477.17
447798,4477.98
447880,4478.8
447962,4479.62
448046,4480.46
448130,4481.3
448213,4482.13
448297,4482.97
448379,4483.79
448461,4484.61
448543,4485.43
448622,4486.22
448701,4487.01
448779,4487.79
448858,4488.58
448942,4489.42
449029,4490.29
449115,4491.15
449201,4492.01
449284,4492.84
449369,4493.69
449454,4494.54
449538,4495.38
449621,4496.21
449703,4497.03
449785,4497.85
449867,4498.67
449948,4499.48
450031,4500.31
450113,4501.13
450195,4501.95
450277,4502.77
450360,4503.6
450442,4504.42
450524,4505.24
450605,4506.05
450685,4506.85
450766,4507.66
450849,4508.49
450935,4509.35
451023,4510.23
451110,4511.1
451198,4511.98
451282,4512.82
451366,4513.66
451451,4514.51
451535,4515.35
451618,4516.18
451702,4517.02
451785,4517.85
451868,4518.68
451950,4519.5
452031,4520.31
452111,4521.11
452191,4521.91
452272,4522.72
452354,4523.54
452438,4524.38
452522,4525.22
452605,4526.05
452688,4526.88
452771,4527.71
452853,4528.53
452936,4529.36
453020,4530.2
453102,4531.02
453184,4531.84
453267,4532.67
453350,4533.5
453433,4534.33
453517,4535.17
453600,4536.0
453682,4536.82
453764,4537.64
453846,4538.46
453926,4539.26
454007,4540.07
454088,4540.88
454175,4541.75
454262,4542.62
454351,4543.51
454437,4544.37
454522,4545.22
454607,4546.07
454693,4546.93
454779,4547.79
454863,4548.63
454946,4549.46
455030,4550.3
455111,4551.11
455192,4551.92
455272,4552.72
455352,4553.52
455431,4554.31
455508,4555.08
455584,4555.84
455660,4556.6
455737,4557.37
455815,4558.15
455894,4558.94
455973,4559.73
456051,4560.51
456129,4561.29
456206,4562.06
456281,4562.81
456355,4563.55
456427,4564.27
456500,4565.0
456574,4565.74
456649,4566.49
456725,4567.25
456802,4568.02
456878,4568.78
456953,4569.53
457029,4570.29
457106,4571.06
457183,4571.83
457258,4572.58
457330,4573.3
457399,4573.99
457467,4574.67
457535,4575.35
457602,4576.02
457678,4576.78
457754,4577.54
457830,4578.3
457907,4579.07
457982,4579.82
458057,4580.57
458130,4581.3
458202,4582.02
458274,4582.74
458348,4583.48
458433,4584.33
458526,4585.26
458616,4586.16
458706,4587.06
458793,4587.93
458876,4588.76
458959,4589.59
459042,4590.42
459122,4591.22
459200,4592.0
459278,4592.78
459353,4593.53
459425,4594.25
459497,4594.97
459570,4595.7
459644,4596.44
459718,4597.18
459795,4597.95
459874,4598.74
459956,4599.56
460037,4600.37
460118,4601.18
460197,4601.97
460275,4602.75
460353,4603.53
460431,4604.31
460512,4605.12
460598,4605.98
460683,4606.83
460768,4607.68
460853,4608.53
460936,4609.36
461019,4610.19
461101,4611.01
461185,4611.85
461273,4612.73
461363,4613.63
461454,4614.54
461542,4615.42
461628,4616.28
461715,4617.15
461799,4617.99
461883,4618.83
461966,4619.66
462047,4620.47
462128,4621.28
462212,4622.12
462299,4622.99
462388,4623.88
462475,4624.75
462560,4625.6
462645,4626.45
462729,4627.29
462812,4628.12
462894,4628.94
462974,4629.74
463055,4630.55
463138,4631.38
463223,4632.23
463309,4633.09
463395,4633.95
463481,4634.81
463567,4635.67
463652,4636.52
463737,4637.37
463820,4638.2
463902,4639.02
463983,4639.83
464064,4640.64
464145,4641.45
464226,4642.26
464310,4643.1
464397,4643.97
464483,4644.83
464570,4645.7
464657,4646.57
464742,4647.42
464823,4648.23
464902,4649.02
464981,4649.81
465059,4650.59
465137,4651.37
465216,4652.16
465296,4652.96
465377,4653.77
465459,4654.59
465540,4655.4
465621,4656.21
465704,4657.04
465788,4657.88
465872,4658.72
465956,4659.56
466039,4660.39
466121,4661.21
466201,4662.01
466281,4662.81
466361,4663.61
466443,4664.43
466526,4665.26
466610,4666.1
466694,4666.94
466779,4667.79
466861,4668.61
466944,4669.44
467027,4670.27
467109,4671.09
467191,4671.91
467272,4672.72
467353,4673.53
467433,4674.33
467512,4675.12
467591,4675.91
467673,4676.73
467759,4677.59
467847,4678.47
467932,4679.32
468017,4680.17
468100,4681.0
468181,4681.81
468262,4682.62
468341,4683.41
468421,4684.21
468501,4685.01
468585,4685.85
468670,4686.7
468756,4687.56
468841,4688.41
468925,4689.25
469009,4690.09
469093,4690.93
469174,4691.74
469256,4692.56
469338,4693.38
469419,4694.19
469502,4695.02
469590,4695.9
469680,4696.8
469769,4697.69
469857,4698.57
469944,4699.44
470030,4700.3
470114,4701.14
470197,4701.97
470278,4702.78
470359,4703.59
470441,4704.41
470525,4705.25
470611,4706.11
470699,4706.99
470786,4707.86
470873,4708.73
470957,4709.57
471041,4710.41
471123,4711.23
471204,4712.04
471285,4712.85
471367,4713.67
471454,4714.54
471543,4715.43
471631,4716.31
471719,4717.19
471808,4718.08
471894,4718.94
471980,4719.8
472065,4720.65
472150,4721.5
472233,4722.33
472316,4723.16
472399,4723.99
472482,4724.82
472568,4725.68
472659,4726.59
472753,4727.53
472844,4728.44
472935,4729.35
473024,4730.24
473112,4731.12
473198,4731.98
473284,4732.84
473367,4733.67
473450,4734.5
473532,4735.32
473616,4736.16
473703,4737.03
473794,4737.94
473885,4738.85
473975,4739.75
474062,4740.62
474149,4741.49
474233,4742.33
474316,4743.16
474399,4743.99
474481,4744.81
474564,4745.64
474646,4746.46
474730,4747.3
474812,4748.12
474894,4748.94
474976,4749.76
475059,4750.59
475143,4751.43
475229,4752.29
475314,4753.14
475399,4753.99
475483,4754.83
475566,4755.66
475648,4756.48
475730,4757.3
475811,4758.11
475892,4758.92
475974,4759.74
476057,4760.57
476143,4761.43
476229,4762.29
476316,4763.16
476403,4764.03
476489,4764.89
476573,4765.73
476655,4766.55
476735,4767.35
476815,4768.15
476894,4768.94
476973,4769.73
477055,4770.55
477139,4771.39
477224,4772.24
477309,4773.09
477394,4773.94
477478,4774.78
477562,4775.62
477644,4776.44
477727,4777.27
477808,4778.08
477888,4778.88
477967,4779.67
478044,4780.44
478121,4781.21
478201,4782.01
478285,4782.85
478371,4783.71
478456,4784.56
478541,4785.41
478625,4786.25
478708,4787.08
478790,4787.9
478871,4788.71
478953,4789.53
479035,4790.35
479118,4791.18
479203,4792.03
479289,4792.89
479375,4793.75
479459,4794.59
479543,4795.43
479625,4796.25
479706,4797.06
479786,4797.86
479868,4798.68
479950,4799.5
480033,4800.33
480115,4801.15
480197,4801.97
480279,4802.79
480359,4803.59
480441,4804.41
480523,4805.23
480607,4806.07
480691,4806.91
480775,4807.75
480857,4808.57
480938,4809.38
481019,4810.19
481100,4811.0
481182,4811.82
481266,4812.66
481351,4813.51
481435,4814.35
481519,4815.19
481601,4816.01
481683,4816.83
481764,4817.64
481846,4818.46
481928,4819.28
482012,4820.12
482095,4820.95
482177,4821.77
482259,4822.59
482340,4823.4
482420,4824.2
482499,4824.99
482580,4825.8
482661,4826.61
482743,4827.43
482825,4828.25
482908,4829.08
482991,4829.91
483073,4830.73
483154,4831.54
483233,4832.33
483313,4833.13
483392,4833.92
483473,4834.73
483556,4835.56
483638,4836.38
483720,4837.2
483800,4838.0
483881,4838.81
483961,4839.61
484042,4840.42
484124,4841.24
484205,4842.05
484286,4842.86
484366,4843.66
484446,4844.46
484523,4845.23
484600,4846.0
484674,4846.74
484746,4847.46
484815,4848.15
484883,4848.83
484953,4849.53
485026,4850.26
485099,4850.99
485173,4851.73
485247,4852.47
485321,4853.21
485396,4853.96
485471,4854.71
485547,4855.47
485622,4856.22
485697,4856.97
485772,4857.72
485845,4858.45
485918,4859.18
485990,4859.9
486061,4860.61
486132,4861.32
486204,4862.04
486280,4862.8
486358,4863.58
486437,4864.37
486518,4865.18
486598,4865.98
486679,4866.79
486758,4867.58
486837,4868.37
486915,4869.15
486993,4869.93
487073,4870.73
487156,4871.56
487242,4872.42
487328,4873.28
487415,4874.15
487500,4875.0
487583,4875.83
487664,4876.64
487743,4877.43
487823,4878.23
487902,4879.02
487982,4879.82
488063,4880.63
488145,4881.45
488226,4882.26
488306,4883.06
488387,4883.87
488470,4884.7
488556,4885.56
488645,4886.45
488733,4887.33
488821,4888.21
488909,4889.09
488996,4889.96
489082,4890.82
489166,4891.66
489250,4892.5
489333,4893.33
489417,4894.17
489503,4895.03
489591,4895.91
489679,4896.79
489767,4897.67
489853,4898.53
489937,4899.37
490020,4900.2
490102,4901.02
490185,4901.85
490271,4902.71
490360,4903.6
490449,4904.49
490537,4905.37
490623,4906.23
490709,4907.09
490795,4907.95
490880,4908.8
490966,4909.66
491053,4910.53
491141,4911.41
491228,4912.28
491313,4913.13
491399,4913.99
491483,4914.83
491569,4915.69
491654,4916.54
491740,4917.4
491826,4918.26
491910,4919.1
491993,4919.93
492075,4920.75
492157,4921.57
492240,4922.4
492324,4923.24
492411,4924.11
492498,4924.98
492585,4925.85
492672,4926.72
492758,4927.58
492842,4928.42
492926,4929.26
493008,4930.08
493089,4930.89
493170,4931.7
493253,4932.53
493339,4933.39
493426,4934.26
493513,4935.13
493599,4935.99
493685,4936.85
493768,4937.68
493850,4938.5
493931,4939.31
494013,4940.13
494097,4940.97
494183,4941.83
494269,4942.69
494355,4943.55
494441,4944.41
494526,4945.26
494610,4946.1
494695,4946.95
494777,4947.77
494859,4948.59
494941,4949.41
495023,4950.23
495107,4951.07
495194,4951.94
495282,4952.82
495369,4953.69
495454,4954.54
495538,4955.38
495621,4956.21
495706,4957.06
495789,4957.89
495871,4958.71
495952,4959.52
496033,4960.33
496114,4961.14
496196,4961.96
496278,4962.78
496362,4963.62
496444,4964.44
496526,4965.26
496606,4966.06
496686,4966.86
496766,4967.66
496846,4968.46
496926,4969.26
497007,4970.07
497086,4970.86
497166,4971.66
497247,4972.47
497328,4973.28
497410,4974.1
497492,4974.92
497573,4975.73
497653,4976.53
497732,4977.32
497812,4978.12
497892,4978.92
497973,4979.73
498055,4980.55
498138,4981.38
498219,4982.19
498299,4982.99
498380,4983.8
498460,4984.6
498542,4985.42
498624,4986.24
498704,4987.04
498783,4987.83
498861,4988.61
498940,4989.4
499019,4990.19
499100,4991.0
499181,4991.81
499263,4992.63
499343,4993.43
499423,4994.23
499503,4995.03
499583,4995.83
499664,4996.64
499746,4997.46
499828,4998.28
499909,4999.09
499989,4999.89
500070,5000.7
500152,5001.52
500235,5002.35
500317,5003.17
500399,5003.99
500480,5004.8
500561,5005.61
500642,5006.42
500723,5007.23
500805,5008.05
500886,5008.86
500968,5009.68
501048,5010.48
501128,5011.28
501208,5012.08
501288,5012.88
501370,5013.7
501453,5014.53
501536,5015.36
501619,5016.19
501701,5017.01
501781,5017.81
501862,5018.62
501942,5019.42
502023,5020.23
502103,5021.03
502183,5021.83
502264,5022.64
502346,5023.46
502429,5024.29
502512,5025.12
502595,5025.95
502677,5026.77
502759,5027.59
502840,5028.4
502922,5029.22
503004,5030.04
503087,5030.87
503171,5031.71
503253,5032.53
503335,5033.35
503419,5034.19
503504,5035.04
503589,5035.89
503674,5036.74
503756,5037.56
503839,5038.39
503923,5039.23
504006,5040.06
504091,5040.91
504174,5041.74
504256,5042.56
504337,5043.37
504417,5044.17
504497,5044.97
504580,5045.8
504662,5046.62
504746,5047.46
504830,5048.3
504914,5049.14
504997,5049.97
505080,5050.8
505161,5051.61
505243,5052.43
505324,5053.24
505406,5054.06
505488,5054.88
505569,5055.69
505650,5056.5
505732,5057.32
505814,5058.14
505895,5058.95
505975,5059.75
506056,5060.56
506138,5061.38
506221,5062.21
506303,5063.03
506384,5063.84
506465,5064.65
506547,5065.47
506628,5066.28
506710,5067.1
506792,5067.92
506873,5068.73
506953,5069.53
507034,5070.34
507115,5071.15
507198,5071.98
507281,5072.81
507364,5073.64
507445,5074.45
507526,5075.26
507607,5076.07
507689,5076.89
507770,5077.7
507849,5078.49
507928,5079.28
508008,5080.08
508089,5080.89
508173,5081.73
508255,5082.55
508337,5083.37
508418,5084.18
508500,5085.0
508582,5085.82
508664,5086.64
508745,5087.45
508826,5088.26
508906,5089.06
508986,5089.86
509067,5090.67
509148,5091.48
509231,5092.31
509313,5093.13
509394,5093.94
509474,5094.74
509555,5095.55
509637,5096.37
509720,5097.2
509803,5098.03
509883,5098.83
509964,5099.64
510045,5100.45
510126,5101.26
510208,5102.08
510291,5102.91
510372,5103.72
510452,5104.52
510532,5105.32
510612,5106.12
510694,5106.94
510776,5107.76
510858,5108.58
510939,5109.39
511020,5110.2
511101,5111.01
511183,5111.83
511266,5112.66
511350,5113.5
511434,5114.34
511516,5115.16
511597,5115.97
511678,5116.78
511760,5117.6
511843,5118.43
511928,5119.28
512013,5120.13
512097,5120.97
512180,5121.8
512263,5122.63
512346,5123.46
512429,5124.29
512515,5125.15
512601,5126.01
512688,5126.88
512775,5127.75
512861,5128.61
512946,5129.46
513032,5130.32
513115,5131.15
513198,5131.98
513281,5132.81
513363,5133.63
513445,5134.45
513526,5135.26
513606,5136.06
513682,5136.82
513757,5137.57
513832,5138.32
513908,5139.08
513983,5139.83
514058,5140.58
514135,5141.35
514217,5142.17
514300,5143.0
514383,5143.83
514466,5144.66
514548,5145.48
514629,5146.29
514711,5147.11
514792,5147.92
514874,5148.74
514956,5149.56
515040,5150.4
515124,5151.24
515207,5152.07
515290,5152.9
515375,5153.75
515461,5154.61
515546,5155.46
515632,5156.32
515716,5157.16
515801,5158.01
515887,5158.87
515971,5159.71
516057,5160.57
516143,5161.43
516227,5162.27
516310,5163.1
516393,5163.93
516476,5164.76
516558,5165.58
516638,5166.38
516718,5167.18
516797,5167.97
516878,5168.78
516961,5169.61
517044,5170.44
517128,5171.28
517211,5172.11
517293,5172.93
517374,5173.74
517454,5174.54
517536,5175.36
517618,5176.18
517700,5177.0
517781,5177.81
517862,5178.62
517944,5179.44
518025,5180.25
518108,5181.08
518189,5181.89
518267,5182.67
518343,5183.43
518418,5184.18
518493,5184.93
518571,5185.71
518650,5186.5
518729,5187.29
518808,5188.08
518889,5188.89
518973,5189.73
519059,5190.59
519143,5191.43
519227,5192.27
519311,5193.11
519393,5193.93
519473,5194.73
519552,5195.52
519634,5196.34
519715,5197.15
519799,5197.99
519883,5198.83
519965,5199.65
520049,5200.49
520134,5201.34
520219,5202.19
520305,5203.05
520391,5203.91
520475,5204.75
520560,5205.6
520643,5206.43
520727,5207.27
520812,5208.12
520897,5208.97
520982,5209.82
521066,5210.66
521153,5211.53
521238,5212.38
521321,5213.21
521403,5214.03
521485,5214.85
521570,5215.7
521654,5216.54
521738,5217.38
521820,5218.2
521900,5219.0
521980,5219.8
522059,5220.59
522150,5221.5
522236,5222.36
522326,5223.26
522417,5224.17
522508,5225.08
522597,5225.97
522686,5226.86
522772,5227.72
522858,5228.58
522943,5229.43
523028,5230.28
523112,5231.12
523198,5231.98
523284,5232.84
523367,5233.67
523448,5234.48
523530,5235.3
523612,5236.12
523699,5236.99
523787,5237.87
523877,5238.77
523968,5239.68
524055,5240.55
524139,5241.39
524224,5242.24
524307,5243.07
524393,5243.93
524480,5244.8
524567,5245.67
524653,5246.53
524736,5247.36
524819,5248.19
524901,5249.01
524983,5249.83
525067,5250.67
525150,5251.5
525234,5252.34
525316,5253.16
525397,5253.97
525478,5254.78
525558,5255.58
525641,5256.41
525725,5257.25
525809,5258.09
525893,5258.93
525975,5259.75
526057,5260.57
526137,5261.37
526216,5262.16
526294,5262.94
526372,5263.72
526452,5264.52
526534,5265.34
526617,5266.17
526702,5267.02
526785,5267.85
526869,5268.69
526951,5269.51
527033,5270.33
527116,5271.16
527200,5272.0
527283,5272.83
527366,5273.66
527448,5274.48
527529,5275.29
527609,5276.09
527689,5276.89
527768,5277.68
527847,5278.47
527928,5279.28
528012,5280.12
528097,5280.97
528183,5281.83
528268,5282.68
528351,5283.51
528434,5284.34
528515,5285.15
528596,5285.96
528676,5286.76
528756,5287.56
528839,5288.39
528924,5289.24
529009,5290.09
529094,5290.94
529179,5291.79
529263,5292.63
529347,5293.47
529433,5294.33
529518,5295.18
529603,5296.03
529686,5296.86
529770,5297.7
529854,5298.54
529938,5299.38
530021,5300.21
530103,5301.03
530185,5301.85
530266,5302.66
530347,5303.47
530428,5304.28
530511,5305.11
530595,5305.95
530677,5306.77
530758,5307.58
530838,5308.38
530920,5309.2
531003,5310.03
531086,5310.86
531170,5311.7
531253,5312.53
531335,5313.35
531416,5314.16
531497,5314.97
531578,5315.78
531660,5316.6
531743,5317.43
531825,5318.25
531906,5319.06
531986,5319.86
532065,5320.65
532143,5321.43
532222,5322.22
532302,5323.02
532382,5323.82
532462,5324.62
532542,5325.42
532623,5326.23
532705,5327.05
532791,5327.91
532877,5328.77
532964,5329.64
533050,5330.5
533135,5331.35
533218,5332.18
533301,5333.01
533383,5333.83
533463,5334.63
533545,5335.45
533628,5336.28
533710,5337.1
533792,5337.92
533873,5338.73
533955,5339.55
534036,5340.36
534116,5341.16
534195,5341.95
534274,5342.74
534352,5343.52
534429,5344.29
534506,5345.06
534581,5345.81
534657,5346.57
534738,5347.38
534821,5348.21
534904,5349.04
534986,5349.86
535068,5350.68
535151,5351.51
535232,5352.32
535313,5353.13
535394,5353.94
535475,5354.75
535554,5355.54
535633,5356.33
535712,5357.12
535791,5357.91
535871,5358.71
535952,5359.52
536033,5360.33
536114,5361.14
536195,5361.95
536275,5362.75
536355,5363.55
536434,5364.34
536514,5365.14
536593,5365.93
536673,5366.73
536751,5367.51
536830,5368.3
536909,5369.09
536989,5369.89
537070,5370.7
537151,5371.51
537232,5372.32
537312,5373.12
537390,5373.9
537469,5374.69
537549,5375.49
537630,5376.3
537710,5377.1
537790,5377.9
537870,5378.7
537948,5379.48
538027,5380.27
538107,5381.07
538189,5381.89
538270,5382.7
538350,5383.5
538429,5384.29
538509,5385.09
538588,5385.88
538668,5386.68
538749,5387.49
538829,5388.29
538908,5389.08
538987,5389.87
539066,5390.66
539145,5391.45
539225,5392.25
539305,5393.05
539385,5393.85
539465,5394.65
539545,5395.45
539626,5396.26
539706,5397.06
539786,5397.86
539866,5398.66
539945,5399.45
540025,5400.25
540104,5401.04
540185,5401.85
540264,5402.64
540342,5403.42
540420,5404.2
540498,5404.98
540577,5405.77
540657,5406.57
540738,5407.38
540819,5408.19
540899,5408.99
540979,5409.79
541059,5410.59
541141,5411.41
541223,5412.23
541305,5413.05
541386,5413.86
541468,5414.68
541551,5415.51
541633,5416.33
541715,5417.15
541795,5417.95
541876,5418.76
541960,5419.6
542046,5420.46
542133,5421.33
542220,5422.2
542306,5423.06
542391,5423.91
542475,5424.75
542560,5425.6
542645,5426.45
542729,5427.29
542813,5428.13
542898,5428.98
542983,5429.83
543066,5430.66
543148,5431.48
543230,5432.3
543313,5433.13
543397,5433.97
543481,5434.81
543565,5435.65
543648,5436.48
543730,5437.3
543813,5438.13
543898,5438.98
543983,5439.83
544068,5440.68
544152,5441.52
544235,5442.35
544320,5443.2
544404,5444.04
544488,5444.88
544571,5445.71
544653,5446.53
544737,5447.37
544822,5448.22
544907,5449.07
544991,5449.91
545074,5450.74
545156,5451.56
545239,5452.39
545323,5453.23
545408,5454.08
545494,5454.94
545578,5455.78
545663,5456.63
545747,5457.47
545831,5458.31
545916,5459.16
546000,5460.0
546083,5460.83
546166,5461.66
546250,5462.5
546334,5463.34
546416,5464.16
546500,5465.0
546583,5465.83
546664,5466.64
546745,5467.45
546826,5468.26
546908,5469.08
546990,5469.9
547072,5470.72
547154,5471.54
547233,5472.33
547314,5473.14
547395,5473.95
547477,5474.77
547560,5475.6
547643,5476.43
547727,5477.27
547810,5478.1
547894,5478.94
547978,5479.78
548061,5480.61
548144,5481.44
548226,5482.26
548309,5483.09
548392,5483.92
548476,5484.76
548560,5485.6
548644,5486.44
548726,5487.26
548807,5488.07
548888,5488.88
548969,5489.69
549051,5490.51
549132,5491.32
549213,5492.13
549294,5492.94
549377,5493.77
549460,5494.6
549544,5495.44
549629,5496.29
549711,5497.11
549792,5497.92
549874,5498.74
549957,5499.57
550038,5500.38
550120,5501.2
550200,5502.0
550280,5502.8
550362,5503.62
550445,5504.45
550529,5505.29
550611,5506.11
550692,5506.92
550774,5507.74
550857,5508.57
550942,5509.42
551027,5510.27
551113,5511.13
551196,5511.96
551280,5512.8
551364,5513.64
551448,5514.48
551533,5515.33
551616,5516.16
551698,5516.98
551779,5517.79
551862,5518.62
551947,5519.47
552034,5520.34
552120,5521.2
552204,5522.04
552288,5522.88
552372,5523.72
552456,5524.56
552540,5525.4
552623,5526.23
552707,5527.07
552789,5527.89
552871,5528.71
552955,5529.55
553038,5530.38
553123,5531.23
553209,5532.09
553292,5532.92
553374,5533.74
553455,5534.55
553536,5535.36
553621,5536.21
553705,5537.05
553789,5537.89
553871,5538.71
553952,5539.52
554034,5540.34
554115,5541.15
554196,5541.96
554278,5542.78
554359,5543.59
554441,5544.41
554525,5545.25
554608,5546.08
554691,5546.91
554773,5547.73
554855,5548.55
554935,5549.35
555014,5550.14
555090,5550.9
555164,5551.64
555237,5552.37
555312,5553.12
555388,5553.88
555463,5554.63
555541,5555.41
555625,5556.25
555712,5557.12
555797,5557.97
555881,5558.81
555965,5559.65
556049,5560.49
556134,5561.34
556221,5562.21
556309,5563.09
556395,5563.95
556482,5564.82
556569,5565.69
556657,5566.57
556745,5567.45
556831,5568.31
556916,5569.16
557002,5570.02
557087,5570.87
557174,5571.74
557260,5572.6
557346,5573.46
557432,5574.32
557518,5575.18
557606,5576.06
557692,5576.92
557776,5577.76
557858,5578.58
557939,5579.39
558020,5580.2
558103,5581.03
558190,5581.9
558275,5582.75
558358,5583.58
558441,5584.41
558523,5585.23
558605,5586.05
558689,5586.89
558771,5587.71
558853,5588.53
558935,5589.35
559016,5590.16
559100,5591.0
559185,5591.85
559268,5592.68
559352,5593.52
559435,5594.35
559519,5595.19
559605,5596.05
559690,5596.9
559773,5597.73
559857,5598.57
559940,5599.4
560023,5600.23
560105,5601.05
560186,5601.86
560268,5602.68
560351,5603.51
560435,5604.35
560521,5605.21
560607,5606.07
560691,5606.91
560777,5607.77
560863,5608.63
560948,5609.48
561032,5610.32
561114,5611.14
561195,5611.95
561278,5612.78
561363,5613.63
561448,5614.48
561531,5615.31
561615,5616.15
561697,5616.97
561780,5617.8
561865,5618.65
561950,5619.5
562034,5620.34
562117,5621.17
562200,5622.0
562285,5622.85
562369,5623.69
562451,5624.51
562532,5625.32
562612,5626.12
562693,5626.93
562777,5627.77
562862,5628.62
562948,5629.48
563032,5630.32
563118,5631.18
563204,5632.04
563288,5632.88
563373,5633.73
563458,5634.58
563540,5635.4
563621,5636.21
563701,5637.01
563786,5637.86
563870,5638.7
563956,5639.56
564040,5640.4
564126,5641.26
564214,5642.14
564303,5643.03
564390,5643.9
564477,5644.77
564562,5645.62
564646,5646.46
564729,5647.29
564810,5648.1
564891,5648.91
564972,5649.72
565052,5650.52
565130,5651.3
565207,5652.07
565280,5652.8
565352,5653.52
565421,5654.21
565489,5654.89
565555,5655.55
565620,5656.2
565686,5656.86
565752,5657.52
565818,5658.18
565885,5658.85
565951,5659.51
566016,5660.16
566082,5660.82
566150,5661.5
566218,5662.18
566287,5662.87
566356,5663.56
566425,5664.25
566493,5664.93
566561,5665.61
566628,5666.28
566695,5666.95
566766,5667.66
566850,5668.5
566938,5669.38
567025,5670.25
567112,5671.12
567195,5671.95
567279,5672.79
567361,5673.61
567440,5674.4
567519,5675.19
567598,5675.98
567680,5676.8
567761,5677.61
567845,5678.45
567929,5679.29
568013,5680.13
568095,5680.95
568177,5681.77
568258,5682.58
568341,5683.41
568425,5684.25
568512,5685.12
568599,5685.99
568685,5686.85
568770,5687.7
568854,5688.54
568936,5689.36
569022,5690.22
569109,5691.09
569196,5691.96
569284,5692.84
569371,5693.71
569457,5694.57
569543,5695.43
569628,5696.28
569713,5697.13
569797,5697.97
569879,5698.79
569960,5699.6
570042,5700.42
570128,5701.28
570217,5702.17
570307,5703.07
570395,5703.95
570483,5704.83
570569,5705.69
570656,5706.56
570742,5707.42
570827,5708.27
570910,5709.1
570992,5709.92
571073,5710.73
571154,5711.54
571237,5712.37
571325,5713.25
571415,5714.15
571504,5715.04
571593,5715.93
571680,5716.8
571767,5717.67
571851,5718.51
571934,5719.34
572015,5720.15
572098,5720.98
572183,5721.83
572270,5722.7
572359,5723.59
572449,5724.49
572537,5725.37
572623,5726.23
572707,5727.07
572789,5727.89
572871,5728.71
572954,5729.54
573039,5730.39
573124,5731.24
573208,5732.08
573291,5732.91
573375,5733.75
573461,5734.61
573549,5735.49
573637,5736.37
573726,5737.26
573816,5738.16
573902,5739.02
573986,5739.86
574070,5740.7
574155,5741.55
574241,5742.41
574328,5743.28
574414,5744.14
574502,5745.02
574591,5745.91
574680,5746.8
574767,5747.67
574851,5748.51
574934,5749.34
575018,5750.18
575103,5751.03
575189,5751.89
575276,5752.76
575363,5753.63
575449,5754.49
575534,5755.34
575618,5756.18
575699,5756.99
575780,5757.8
575861,5758.61
575946,5759.46
576033,5760.33
576122,5761.22
576212,5762.12
576301,5763.01
576388,5763.88
576474,5764.74
576560,5765.6
576644,5766.44
576726,5767.26
576807,5768.07
576890,5768.9
576974,5769.74
577060,5770.6
577146,5771.46
577230,5772.3
577313,5773.13
577394,5773.94
577476,5774.76
577558,5775.58
577638,5776.38
577716,5777.16
577791,5777.91
577863,5778.63
577936,5779.36
578012,5780.12
578088,5780.88
578164,5781.64
578239,5782.39
578314,5783.14
578388,5783.88
578462,5784.62
578533,5785.33
578601,5786.01
578669,5786.69
578737,5787.37
578805,5788.05
578872,5788.72
578938,5789.38
579003,5790.03
579067,5790.67
579130,5791.3
579193,5791.93
579256,5792.56
579321,5793.21
579387,5793.87
579454,5794.54
579525,5795.25
579605,5796.05
579686,5796.86
579766,5797.66
579845,5798.45
579926,5799.26
580007,5800.07
580089,5800.89
580171,5801.71
580260,5802.6
580360,5803.6
580456,5804.56
580551,5805.51
580644,5806.44
580735,5807.35
580828,5808.28
580920,5809.2
581016,5810.16
581108,5811.08
581198,5811.98
581287,5812.87
581375,5813.75
581466,5814.66
581563,5815.63
581658,5816.58
581752,5817.52
581843,5818.43
581934,5819.34
582022,5820.22
582110,5821.1
582196,5821.96
582286,5822.86
582384,5823.84
582481,5824.81
582573,5825.73
582667,5826.67
582756,5827.56
582843,5828.43
582927,5829.27
583009,5830.09
583091,5830.91
583170,5831.7
583249,5832.49
583327,5833.27
583402,5834.02
583474,5834.74
583545,5835.45
583613,5836.13
583681,5836.81
583746,5837.46
583812,5838.12
583877,5838.77
583942,5839.42
584006,5840.06
584071,5840.71
584135,5841.35
584199,5841.99
584264,5842.64
584329,5843.29
584396,5843.96
584463,5844.63
584532,5845.32
584600,5846.0
584669,5846.69
584736,5847.36
584802,5848.02
584868,5848.68
584938,5849.38
585008,5850.08
585080,5850.8
585157,5851.57
585243,5852.43
585329,5853.29
585413,5854.13
585497,5854.97
585581,5855.81
585663,5856.63
585743,5857.43
585823,5858.23
585907,5859.07
585996,5859.96
586086,5860.86
586175,5861.75
586263,5862.63
586350,5863.5
586435,5864.35
586519,5865.19
586602,5866.02
586687,5866.87
586775,5867.75
586864,5868.64
586951,5869.51
587037,5870.37
587122,5871.22
587207,5872.07
587292,5872.92
587377,5873.77
587463,5874.63
587549,5875.49
587633,5876.33
587719,5877.19
587802,5878.02
587886,5878.86
587968,5879.68
588053,5880.53
588136,5881.36
588219,5882.19
588301,5883.01
588383,5883.83
588466,5884.66
588549,5885.49
588631,5886.31
588712,5887.12
588792,5887.92
588872,5888.72
588953,5889.53
589037,5890.37
589120,5891.2
589202,5892.02
589282,5892.82
589358,5893.58
589432,5894.32
589509,5895.09
589593,5895.93
589680,5896.8
589765,5897.65
589847,5898.47
589928,5899.28
590009,5900.09
590086,5900.86
590160,5901.6
590233,5902.33
590308,5903.08
590386,5903.86
590467,5904.67
590553,5905.53
590646,5906.46
590740,5907.4
590830,5908.3
590920,5909.2
591009,5910.09
591097,5910.97
591182,5911.82
591266,5912.66
591350,5913.5
591435,5914.35
591523,5915.23
591614,5916.14
591703,5917.03
591792,5917.92
591879,5918.79
591966,5919.66
592051,5920.51
592136,5921.36
592220,5922.2
592304,5923.04
592393,5923.93
592486,5924.86
592575,5925.75
592663,5926.63
592751,5927.51
592837,5928.37
592923,5929.23
593008,5930.08
593093,5930.93
593179,5931.79
593267,5932.67
593361,5933.61
593455,5934.55
593543,5935.43
593632,5936.32
593718,5937.18
593804,5938.04
593889,5938.89
593973,5939.73
594057,5940.57
594140,5941.4
594222,5942.22
594306,5943.06
594389,5943.89
594471,5944.71
594550,5945.5
594626,5946.26
594698,5946.98
594770,5947.7
594841,5948.41
594913,5949.13
594986,5949.86
595063,5950.63
595143,5951.43
595223,5952.23
595304,5953.04
595384,5953.84
595463,5954.63
595543,5955.43
595624,5956.24
595707,5957.07
595792,5957.92
595877,5958.77
595962,5959.62
596048,5960.48
596133,5961.33
596217,5962.17
596301,5963.01
596384,5963.84
596465,5964.65
596544,5965.44
596620,5966.2
596692,5966.92
596763,5967.63
596832,5968.32
596905,5969.05
596981,5969.81
597061,5970.61
597143,5971.43
597224,5972.24
597305,5973.05
597385,5973.85
597461,5974.61
597537,5975.37
597614,5976.14
597694,5976.94
597776,5977.76
597860,5978.6
597946,5979.46
598040,5980.4
598134,5981.34
598222,5982.22
598311,5983.11
598400,5984.0
598488,5984.88
598576,5985.76
598662,5986.62
598748,5987.48
598832,5988.32
598915,5989.15
599000,5990.0
599088,5990.88
599179,5991.79
599272,5992.72
599365,5993.65
599454,5994.54
599540,5995.4
599628,5996.28
599712,5997.12
599795,5997.95
599878,5998.78
599961,5999.61
600046,6000.46
600135,6001.35
600225,6002.25
600313,6003.13
600400,6004.0
600484,6004.84
600567,6005.67
600649,6006.49
600731,6007.31
600813,6008.13
600897,6008.97
600982,6009.82
601067,6010.67
601154,6011.54
601239,6012.39
601325,6013.25
601411,6014.11
601496,6014.96
601581,6015.81
601665,6016.65
601749,6017.49
601832,6018.32
601914,6019.14
601999,6019.99
602086,6020.86
602172,6021.72
602260,6022.6
602347,6023.47
602433,6024.33
602518,6025.18
602602,6026.02
602686,6026.86
602768,6027.68
602850,6028.5
602931,6029.31
603013,6030.13
603099,6030.99
603188,6031.88
603278,6032.78
603364,6033.64
603451,6034.51
603535,6035.35
603618,6036.18
603700,6037.0
603785,6037.85
603870,6038.7
603957,6039.57
604045,6040.45
604133,6041.33
604220,6042.2
604308,6043.08
604397,6043.97
604483,6044.83
604568,6045.68
604654,6046.54
604739,6047.39
604823,6048.23
604906,6049.06
604988,6049.88
605071,6050.71
605154,6051.54
605238,6052.38
605328,6053.28
605418,6054.18
605508,6055.08
605595,6055.95
605683,6056.83
605771,6057.71
605859,6058.59
605944,6059.44
606028,6060.28
606113,6061.13
606197,6061.97
606283,6062.83
606370,6063.7
606457,6064.57
606544,6065.44
606629,6066.29
606712,6067.12
606794,6067.94
606873,6068.73
606952,6069.52
607028,6070.28
607104,6071.04
607183,6071.83
607264,6072.64
607347,6073.47
607432,6074.32
607516,6075.16
607600,6076.0
607686,6076.86
607776,6077.76
607867,6078.67
607955,6079.55
608042,6080.42
608129,6081.29
608214,6082.14
608298,6082.98
608381,6083.81
608467,6084.67
608555,6085.55
608643,6086.43
608731,6087.31
608818,6088.18
608906,6089.06
608993,6089.93
609078,6090.78
609163,6091.63
609247,6092.47
609331,6093.31
609415,6094.15
609501,6095.01
609588,6095.88
609677,6096.77
609768,6097.68
609857,6098.57
609947,6099.47
610035,6100.35
610124,6101.24
610213,6102.13
610299,6102.99
610385,6103.85
610469,6104.69
610554,6105.54
610637,6106.37
610719,6107.19
610802,6108.02
610890,6108.9
610976,6109.76
611064,6110.64
611152,6111.52
611240,6112.4
611326,6113.26
611412,6114.12
611499,6114.99
611584,6115.84
611668,6116.68
611754,6117.54
611838,6118.38
611921,6119.21
612002,6120.02
612086,6120.86
612171,6121.71
612256,6122.56
612342,6123.42
612427,6124.27
612511,6125.11
612594,6125.94
612679,6126.79
612766,6127.66
612852,6128.52
612938,6129.38
613024,6130.24
613109,6131.09
613193,6131.93
613275,6132.75
613358,6133.58
613441,6134.41
613527,6135.27
613612,6136.12
613698,6136.98
613784,6137.84
613869,6138.69
613955,6139.55
614040,6140.4
614127,6141.27
614215,6142.15
614303,6143.03
614393,6143.93
614481,6144.81
614569,6145.69
614655,6146.55
614741,6147.41
614828,6148.28
614922,6149.22
615015,6150.15
615108,6151.08
615199,6151.99
615290,6152.9
615377,6153.77
615461,6154.61
615545,6155.45
615629,6156.29
615713,6157.13
615798,6157.98
615884,6158.84
615966,6159.66
616046,6160.46
616123,6161.23
616198,6161.98
616273,6162.73
616350,6163.5
616428,6164.28
616510,6165.1
616594,6165.94
616679,6166.79
616762,6167.62
616846,6168.46
616929,6169.29
617011,6170.11
617095,6170.95
617183,6171.83
617270,6172.7
617359,6173.59
617448,6174.48
617537,6175.37
617624,6176.24
617711,6177.11
617796,6177.96
617881,6178.81
617967,6179.67
618056,6180.56
618147,6181.47
618239,6182.39
618330,6183.3
618420,6184.2
618509,6185.09
618597,6185.97
618685,6186.85
618769,6187.69
618854,6188.54
618940,6189.4
619028,6190.28
619118,6191.18
619210,6192.1
619301,6193.01
619391,6193.91
619478,6194.78
619566,6195.66
619654,6196.54
619743,6197.43
619833,6198.33
619921,6199.21
620010,6200.1
620099,6200.99
620186,6201.86
620273,6202.73
620359,6203.59
620445,6204.45
620534,6205.34
620625,6206.25
620716,6207.16
620808,6208.08
620900,6209.0
620988,6209.88
621078,6210.78
621166,6211.66
621251,6212.51
621336,6213.36
621421,6214.21
621509,6215.09
621598,6215.98
621688,6216.88
621777,6217.77
621867,6218.67
621959,6219.59
622050,6220.5
622140,6221.4
622228,6222.28
622312,6223.12
622395,6223.95
622479,6224.79
622564,6225.64
622651,6226.51
622739,6227.39
622827,6228.27
622914,6229.14
623000,6230.0
623088,6230.88
623177,6231.77
623266,6232.66
623356,6233.56
623444,6234.44
623530,6235.3
623616,6236.16
623701,6237.01
623786,6237.86
623872,6238.72
623957,6239.57
624043,6240.43
624128,6241.28
624218,6242.18
624307,6243.07
624397,6243.97
624485,6244.85
624574,6245.74
624665,6246.65
624753,6247.53
624841,6248.41
624926,6249.26
625013,6250.13
625101,6251.01
625192,6251.92
625283,6252.83
625370,6253.7
625456,6254.56
625543,6255.43
625631,6256.31
625717,6257.17
625804,6258.04
625891,6258.91
625977,6259.77
626065,6260.65
626155,6261.55
626246,6262.46
626335,6263.35
626422,6264.22
626509,6265.09
626597,6265.97
626686,6266.86
626774,6267.74
626862,6268.62
626949,6269.49
627036,6270.36
627124,6271.24
627214,6272.14
627306,6273.06
627395,6273.95
627482,6274.82
627571,6275.71
627658,6276.58
627745,6277.45
627831,6278.31
627915,6279.15
628001,6280.01
628087,6280.87
628175,6281.75
628264,6282.64
628353,6283.53
628443,6284.43
628534,6285.34
628622,6286.22
628710,6287.1
628800,6288.0
628889,6288.89
628976,6289.76
629061,6290.61
629148,6291.48
629235,6292.35
629323,6293.23
629412,6294.12
629498,6294.98
629583,6295.83
629670,6296.7
629756,6297.56
629843,6298.43
629927,6299.27
630012,6300.12
630096,6300.96
630180,6301.8
630264,6302.64
630347,6303.47
630431,6304.31
630515,6305.15
630599,6305.99
630684,6306.84
630768,6307.68
630852,6308.52
630937,6309.37
631023,6310.23
631107,6311.07
631189,6311.89
631272,6312.72
631356,6313.56
631440,6314.4
631526,6315.26
631611,6316.11
631696,6316.96
631783,6317.83
631869,6318.69
631957,6319.57
632043,6320.43
632129,6321.29
632213,6322.13
632297,6322.97
632381,6323.81
632465,6324.65
632548,6325.48
632631,6326.31
632713,6327.13
632798,6327.98
632886,6328.86
632975,6329.75
633066,6330.66
633155,6331.55
633245,6332.45
633336,6333.36
633427,6334.27
633517,6335.17
633606,6336.06
633697,6336.97
633785,6337.85
633873,6338.73
633961,6339.61
634049,6340.49
634138,6341.38
634227,6342.27
634310,6343.1
634394,6343.94
634480,6344.8
634568,6345.68
634657,6346.57
634747,6347.47
634835,6348.35
634920,6349.2
635006,6350.06
635094,6350.94
635182,6351.82
635271,6352.71
635361,6353.61
635450,6354.5
635539,6355.39
635630,6356.3
635720,6357.2
635809,6358.09
635898,6358.98
635987,6359.87
636077,6360.77
636166,6361.66
636254,6362.54
636340,6363.4
636425,6364.25
636510,6365.1
636594,6365.94
636678,6366.78
636760,6367.6
636841,6368.41
636928,6369.28
637019,6370.19
637109,6371.09
637200,6372.0
637289,6372.89
637381,6373.81
637474,6374.74
637563,6375.63
637651,6376.51
637739,6377.39
637828,6378.28
637914,6379.14
638000,6380.0
638083,6380.83
638167,6381.67
638252,6382.52
638337,6383.37
638423,6384.23
638508,6385.08
638595,6385.95
638684,6386.84
638772,6387.72
638858,6388.58
638944,6389.44
639032,6390.32
639119,6391.19
639204,6392.04
639290,6392.9
639374,6393.74
639460,6394.6
639547,6395.47
639637,6396.37
639727,6397.27
639816,6398.16
639905,6399.05
639996,6399.96
640086,6400.86
640174,6401.74
640261,6402.61
640347,6403.47
640432,6404.32
640516,6405.16
640599,6405.99
640680,6406.8
640760,6407.6
640839,6408.39
640919,6409.19
640997,6409.97
641073,6410.73
641147,6411.47
641222,6412.22
641297,6412.97
641375,6413.75
641455,6414.55
641539,6415.39
641624,6416.24
641711,6417.11
641799,6417.99
641889,6418.89
641979,6419.79
642069,6420.69
642160,6421.6
642253,6422.53
642341,6423.41
642429,6424.29
642518,6425.18
642606,6426.06
642694,6426.94
642780,6427.8
642868,6428.68
642957,6429.57
643047,6430.47
643134,6431.34
643221,6432.21
643311,6433.11
643402,6434.02
643490,6434.9
643575,6435.75
643661,6436.61
643746,6437.46
643835,6438.35
643924,6439.24
644012,6440.12
644102,6441.02
644193,6441.93
644283,6442.83
644373,6443.73
644462,6444.62
644551,6445.51
644641,6446.41
644733,6447.33
644827,6448.27
644916,6449.16
645003,6450.03
645091,6450.91
645181,6451.81
645275,6452.75
645367,6453.67
645461,6454.61
645551,6455.51
645641,6456.41
645730,6457.3
645820,6458.2
645906,6459.06
645992,6459.92
646077,6460.77
646164,6461.64
646250,6462.5
646336,6463.36
646420,6464.2
646503,6465.03
646588,6465.88
646674,6466.74
646758,6467.58
646842,6468.42
646925,6469.25
647009,6470.09
647095,6470.95
647184,6471.84
647274,6472.74
647361,6473.61
647449,6474.49
647539,6475.39
647631,6476.31
647722,6477.22
647812,6478.12
647902,6479.02
647989,6479.89
648078,6480.78
648166,6481.66
648255,6482.55
648343,6483.43
648430,6484.3
648515,6485.15
648598,6485.98
648683,6486.83
648770,6487.7
648860,6488.6
648949,6489.49
649045,6490.45
649142,6491.42
649236,6492.36
649330,6493.3
649421,6494.21
649513,6495.13
649605,6496.05
649695,6496.95
649782,6497.82
649869,6498.69
649956,6499.56
650043,6500.43
650129,6501.29
650216,6502.16
650305,6503.05
650396,6503.96
650488,6504.88
650579,6505.79
650668,6506.68
650754,6507.54
650839,6508.39
650926,6509.26
651015,6510.15
651104,6511.04
651194,6511.94
651279,6512.79
651363,6513.63
651447,6514.47
651532,6515.32
651613,6516.13
651693,6516.93
651773,6517.73
651854,6518.54
651936,6519.36
652019,6520.19
652104,6521.04
652190,6521.9
652278,6522.78
652371,6523.71
652463,6524.63
652557,6525.57
652650,6526.5
652741,6527.41
652833,6528.33
652921,6529.21
653010,6530.1
653101,6531.01
653193,6531.93
653286,6532.86
653376,6533.76
653466,6534.66
653556,6535.56
653647,6536.47
653738,6537.38
653825,6538.25
653912,6539.12
654001,6540.01
654091,6540.91
654181,6541.81
654270,6542.7
654363,6543.63
654458,6544.58
654552,6545.52
654644,6546.44
654733,6547.33
654823,6548.23
654913,6549.13
655002,6550.02
655092,6550.92
655180,6551.8
655269,6552.69
655357,6553.57
655445,6554.45
655534,6555.34
655624,6556.24
655715,6557.15
655803,6558.03
655889,6558.89
655976,6559.76
656065,6560.65
656158,6561.58
656251,6562.51
656340,6563.4
656430,6564.3
656520,6565.2
656611,6566.11
656703,6567.03
656791,6567.91
656880,6568.8
656969,6569.69
657060,6570.6
657148,6571.48
657234,6572.34
657319,6573.19
657404,6574.04
657490,6574.9
657578,6575.78
657666,6576.66
657751,6577.51
657837,6578.37
657925,6579.25
658016,6580.16
658105,6581.05
658192,6581.92
658278,6582.78
658366,6583.66
658453,6584.53
658539,6585.39
658623,6586.23
658707,6587.07
658792,6587.92
658876,6588.76
658963,6589.63
659050,6590.5
659136,6591.36
659224,6592.24
659312,6593.12
659400,6594.0
659487,6594.87
659571,6595.71
659655,6596.55
659739,6597.39
659825,6598.25
659912,6599.12
659996,6599.96
660080,6600.8
660164,6601.64
660250,6602.5
660338,6603.38
660428,6604.28
660517,6605.17
660608,6606.08
660701,6607.01
660795,6607.95
660885,6608.85
660974,6609.74
661064,6610.64
661155,6611.55
661245,6612.45
661332,6613.32
661419,6614.19
661507,6615.07
661595,6615.95
661680,6616.8
661763,6617.63
661848,6618.48
661935,6619.35
662023,6620.23
662110,6621.1
662199,6621.99
662289,6622.89
662380,6623.8
662471,6624.71
662559,6625.59
662647,6626.47
662734,6627.34
662826,6628.26
662916,6629.16
663004,6630.04
663091,6630.91
663179,6631.79
663273,6632.73
663367,6633.67
663458,6634.58
663554,6635.54
663647,6636.47
663743,6637.43
663837,6638.37
663929,6639.29
664021,6640.21
664114,6641.14
664205,6642.05
664298,6642.98
664389,6643.89
664480,6644.8
664571,6645.71
664660,6646.6
664751,6647.51
664841,6648.41
664932,6649.32
665024,6650.24
665116,6651.16
665207,6652.07
665299,6652.99
665391,6653.91
665480,6654.8
665568,6655.68
665653,6656.53
665739,6657.39
665827,6658.27
665917,6659.17
666005,6660.05
666091,6660.91
666178,6661.78
666265,6662.65
666352,6663.52
666438,6664.38
666524,6665.24
666612,6666.12
666701,6667.01
666790,6667.9
666876,6668.76
666961,6669.61
667046,6670.46
667130,6671.3
667215,6672.15
667300,6673.0
667384,6673.84
667468,6674.68
667556,6675.56
667642,6676.42
667729,6677.29
667814,6678.14
667898,6678.98
667983,6679.83
668069,6680.69
668155,6681.55
668241,6682.41
668327,6683.27
668415,6684.15
668505,6685.05
668593,6685.93
668682,6686.82
668772,6687.72
668861,6688.61
668949,6689.49
669036,6690.36
669121,6691.21
669207,6692.07
669294,6692.94
669380,6693.8
669464,6694.64
669551,6695.51
669638,6696.38
669727,6697.27
669815,6698.15
669903,6699.03
669991,6699.91
670079,6700.79
670167,6701.67
670256,6702.56
670343,6703.43
670433,6704.33
670527,6705.27
670622,6706.22
670713,6707.13
670804,6708.04
670895,6708.95
670987,6709.87
671078,6710.78
671167,6711.67
671256,6712.56
671345,6713.45
671435,6714.35
671524,6715.24
671612,6716.12
671696,6716.96
671781,6717.81
671866,6718.66
671954,6719.54
672042,6720.42
672131,6721.31
672217,6722.17
672302,6723.02
672389,6723.89
672480,6724.8
672573,6725.73
672664,6726.64
672752,6727.52
672843,6728.43
672934,6729.34
673025,6730.25
673114,6731.14
673203,6732.03
673294,6732.94
673389,6733.89
673481,6734.81
673573,6735.73
673663,6736.63
673755,6737.55
673847,6738.47
673940,6739.4
674031,6740.31
674119,6741.19
674206,6742.06
674295,6742.95
674383,6743.83
674471,6744.71
674559,6745.59
674645,6746.45
674732,6747.32
674821,6748.21
674912,6749.12
674999,6749.99
675083,6750.83
675168,6751.68
675254,6752.54
675342,6753.42
675428,6754.28
675514,6755.14
675600,6756.0
675689,6756.89
675778,6757.78
675867,6758.67
675953,6759.53
676041,6760.41
676129,6761.29
676216,6762.16
676303,6763.03
676388,6763.88
676474,6764.74
676562,6765.62
676650,6766.5
676739,6767.39
676829,6768.29
676917,6769.17
677006,6770.06
677095,6770.95
677182,6771.82
677268,6772.68
677355,6773.55
677441,6774.41
677526,6775.26
677611,6776.11
677697,6776.97
677784,6777.84
677872,6778.72
677959,6779.59
678047,6780.47
678136,6781.36
678227,6782.27
678316,6783.16
678402,6784.02
678489,6784.89
678576,6785.76
678664,6786.64
678752,6787.52
678841,6788.41
678934,6789.34
679027,6790.27
679122,6791.22
679215,6792.15
679311,6793.11
679407,6794.07
679500,6795.0
679592,6795.92
679685,6796.85
679778,6797.78
679870,6798.7
679960,6799.6
680048,6800.48
680138,6801.38
680229,6802.29
680320,6803.2
680410,6804.1
680496,6804.96
680584,6805.84
680671,6806.71
680758,6807.58
680841,6808.41
680923,6809.23
681004,6810.04
681085,6810.85
681170,6811.7
681255,6812.55
681340,6813.4
681429,6814.29
681520,6815.2
681613,6816.13
681703,6817.03
681791,6817.91
681880,6818.8
681970,6819.7
682061,6820.61
682153,6821.53
682242,6822.42
682332,6823.32
682424,6824.24
682515,6825.15
682607,6826.07
682696,6826.96
682785,6827.85
682874,6828.74
682962,6829.62
683053,6830.53
683144,6831.44
683234,6832.34
683322,6833.22
683411,6834.11
683497,6834.97
683583,6835.83
683670,6836.7
683758,6837.58
683847,6838.47
683930,6839.3
684013,6840.13
684095,6840.95
684177,6841.77
684261,6842.61
684345,6843.45
684437,6844.37
684530,6845.3
684622,6846.22
684711,6847.11
684801,6848.01
684891,6848.91
684981,6849.81
685068,6850.68
685154,6851.54
685240,6852.4
685328,6853.28
685417,6854.17
685504,6855.04
685590,6855.9
685678,6856.78
685765,6857.65
685852,6858.52
685938,6859.38
686024,6860.24
686110,6861.1
686196,6861.96
686283,6862.83
686369,6863.69
686454,6864.54
686541,6865.41
686629,6866.29
686717,6867.17
686804,6868.04
686888,6868.88
686972,6869.72
687058,6870.58
687144,6871.44
687229,6872.29
687313,6873.13
687395,6873.95
687476,6874.76
687558,6875.58
687639,6876.39
687721,6877.21
687803,6878.03
687888,6878.88
687977,6879.77
688066,6880.66
688153,6881.53
688238,6882.38
688324,6883.24
688411,6884.11
688501,6885.01
688591,6885.91
688679,6886.79
688769,6887.69
688862,6888.62
688955,6889.55
689046,6890.46
689133,6891.33
689218,6892.18
689300,6893.0
689383,6893.83
689468,6894.68
689555,6895.55
689643,6896.43
689734,6897.34
689829,6898.29
689923,6899.23
690019,6900.19
690114,6901.14
690206,6902.06
690298,6902.98
690390,6903.9
690480,6904.8
690570,6905.7
690658,6906.58
690747,6907.47
690836,6908.36
690927,6909.27
691018,6910.18
691105,6911.05
691191,6911.91
691277,6912.77
691364,6913.64
691453,6914.53
691538,6915.38
691621,6916.21
691703,6917.03
691785,6917.85
691868,6918.68
691954,6919.54
692039,6920.39
692123,6921.23
692207,6922.07
692293,6922.93
692382,6923.82
692470,6924.7
692558,6925.58
692645,6926.45
692731,6927.31
692817,6928.17
692904,6929.04
692993,6929.93
693083,6930.83
693172,6931.72
693260,6932.6
693349,6933.49
693440,6934.4
693531,6935.31
693621,6936.21
693708,6937.08
693795,6937.95
693882,6938.82
693970,6939.7
694058,6940.58
694147,6941.47
694235,6942.35
694321,6943.21
694407,6944.07
694494,6944.94
694582,6945.82
694667,6946.67
694751,6947.51
694835,6948.35
694920,6949.2
695005,6950.05
695089,6950.89
695173,6951.73
695257,6952.57
695341,6953.41
695426,6954.26
695512,6955.12
695598,6955.98
695683,6956.83
695767,6957.67
695852,6958.52
695936,6959.36
696020,6960.2
696103,6961.03
696185,6961.85
696267,6962.67
696350,6963.5
696435,6964.35
696520,6965.2
696607,6966.07
696697,6966.97
696790,6967.9
696881,6968.81
696970,6969.7
697060,6970.6
697150,6971.5
697240,6972.4
697326,6973.26
697412,6974.12
697499,6974.99
697586,6975.86
697672,6976.72
697757,6977.57
697843,6978.43
697932,6979.32
698019,6980.19
698105,6981.05
698190,6981.9
698278,6982.78
698366,6983.66
698453,6984.53
698541,6985.41
698630,6986.3
698717,6987.17
698804,6988.04
698889,6988.89
698976,6989.76
699064,6990.64
699158,6991.58
699250,6992.5
699340,6993.4
699432,6994.32
699527,6995.27
699621,6996.21
699713,6997.13
699803,6998.03
699890,6998.9
699979,6999.79
700068,7000.68
700157,7001.57
700245,7002.45
700332,7003.32
700416,7004.16
700501,7005.01
700587,7005.87
700674,7006.74
700760,7007.6
700845,7008.45
700930,7009.3
701017,7010.17
701103,7011.03
701189,7011.89
701272,7012.72
701356,7013.56
701440,7014.4
701527,7015.27
701613,7016.13
701698,7016.98
701785,7017.85
701873,7018.73
701962,7019.62
702050,7020.5
702136,7021.36
702221,7022.21
702307,7023.07
702397,7023.97
702486,7024.86
702576,7025.76
702667,7026.67
702756,7027.56
702845,7028.45
702935,7029.35
703027,7030.27
703119,7031.19
703206,7032.06
703293,7032.93
703381,7033.81
703468,7034.68
703555,7035.55
703642,7036.42
703728,7037.28
703813,7038.13
703899,7038.99
703987,7039.87
704075,7040.75
704163,7041.63
704248,7042.48
704333,7043.33
704418,7044.18
704504,7045.04
704590,7045.9
704676,7046.76
704760,7047.6
704845,7048.45
704933,7049.33
705020,7050.2
705106,7051.06
705189,7051.89
705272,7052.72
705353,7053.53
705436,7054.36
705520,7055.2
705603,7056.03
705687,7056.87
705773,7057.73
705861,7058.61
705948,7059.48
706034,7060.34
706122,7061.22
706211,7062.11
706302,7063.02
706394,7063.94
706483,7064.83
706572,7065.72
706663,7066.63
706750,7067.5
706836,7068.36
706924,7069.24
707013,7070.13
707101,7071.01
707186,7071.86
707272,7072.72
707357,7073.57
707443,7074.43
707528,7075.28
707611,7076.11
707696,7076.96
707782,7077.82
707869,7078.69
707955,7079.55
708040,7080.4
708126,7081.26
708214,7082.14
708304,7083.04
708394,7083.94
708481,7084.81
708570,7085.7
708659,7086.59
708748,7087.48
708835,7088.35
708919,7089.19
709002,7090.02
709085,7090.85
709170,7091.7
709254,7092.54
709338,7093.38
709424,7094.24
709513,7095.13
709603,7096.03
709688,7096.88
709775,7097.75
709859,7098.59
709944,7099.44
710028,7100.28
710111,7101.11
710196,7101.96
710282,7102.82
710369,7103.69
710455,7104.55
710541,7105.41
710631,7106.31
710723,7107.23
710813,7108.13
710901,7109.01
710988,7109.88
711076,7110.76
711165,7111.65
711253,7112.53
711340,7113.4
711425,7114.25
711509,7115.09
711594,7115.94
711679,7116.79
711762,7117.62
711846,7118.46
711930,7119.3
712016,7120.16
712101,7121.01
712185,7121.85
712270,7122.7
712357,7123.57
712444,7124.44
712530,7125.3
712616,7126.16
712703,7127.03
712790,7127.9
712875,7128.75
712961,7129.61
713046,7130.46
713132,7131.32
713221,7132.21
713310,7133.1
713398,7133.98
713486,7134.86
713574,7135.74
713662,7136.62
713747,7137.47
713833,7138.33
713920,7139.2
714005,7140.05
714088,7140.88
714172,7141.72
714259,7142.59
714348,7143.48
714438,7144.38
714523,7145.23
714607,7146.07
714693,7146.93
714779,7147.79
714863,7148.63
714946,7149.46
715030,7150.3
715118,7151.18
715204,7152.04
715289,7152.89
715375,7153.75
715463,7154.63
715552,7155.52
715641,7156.41
715727,7157.27
715814,7158.14
715902,7159.02
715992,7159.92
716083,7160.83
716171,7161.71
716257,7162.57
716344,7163.44
716431,7164.31
716520,7165.2
716607,7166.07
716692,7166.92
716781,7167.81
716871,7168.71
716964,7169.64
717058,7170.58
717145,7171.45
717232,7172.32
717317,7173.17
717401,7174.01
717484,7174.84
717568,7175.68
717657,7176.57
717744,7177.44
717830,7178.3
717915,7179.15
717998,7179.98
718079,7180.79
718161,7181.61
718244,7182.44
718327,7183.27
718410,7184.1
718495,7184.95
718579,7185.79
718661,7186.61
718743,7187.43
718823,7188.23
718904,7189.04
718985,7189.85
719066,7190.66
719148,7191.48
719230,7192.3
719311,7193.11
719391,7193.91
719472,7194.72
719553,7195.53
719636,7196.36
719719,7197.19
719801,7198.01
719882,7198.82
719963,7199.63
720044,7200.44
720125,7201.25
720208,7202.08
720291,7202.91
720375,7203.75
720457,7204.57
720540,7205.4
720624,7206.24
720711,7207.11
720797,7207.97
720883,7208.83
720969,7209.69
721052,7210.52
721137,7211.37
721221,7212.21
721304,7213.04
721386,7213.86
721467,7214.67
721547,7215.47
721627,7216.27
721706,7217.06
721790,7217.9
721880,7218.8
721967,7219.67
722055,7220.55
722145,7221.45
722233,7222.33
722322,7223.22
722414,7224.14
722506,7225.06
722598,7225.98
722689,7226.89
722778,7227.78
722869,7228.69
722958,7229.58
723048,7230.48
723134,7231.34
723219,7232.19
723304,7233.04
723391,7233.91
723477,7234.77
723564,7235.64
723652,7236.52
723740,7237.4
723829,7238.29
723917,7239.17
724005,7240.05
724093,7240.93
724182,7241.82
724266,7242.66
724349,7243.49
724432,7244.32
724516,7245.16
724600,7246.0
724684,7246.84
724766,7247.66
724851,7248.51
724939,7249.39
725028,7250.28
725116,7251.16
725203,7252.03
725291,7252.91
725381,7253.81
725470,7254.7
725560,7255.6
725648,7256.48
725737,7257.37
725826,7258.26
725913,7259.13
725998,7259.98
726083,7260.83
726169,7261.69
726256,7262.56
726344,7263.44
726434,7264.34
726522,7265.22
726608,7266.08
726695,7266.95
726782,7267.82
726869,7268.69
726954,7269.54
727038,7270.38
727122,7271.22
727205,7272.05
727292,7272.92
727378,7273.78
727463,7274.63
727544,7275.44
727625,7276.25
727707,7277.07
727791,7277.91
727875,7278.75
727958,7279.58
728041,7280.41
728125,7281.25
728209,7282.09
728293,7282.93
728374,7283.74
728457,7284.57
728540,7285.4
728624,7286.24
728708,7287.08
728792,7287.92
728875,7288.75
728960,7289.6
729046,7290.46
729131,7291.31
729214,7292.14
729299,7292.99
729384,7293.84
729471,7294.71
729560,7295.6
729646,7296.46
729732,7297.32
729819,7298.19
729905,7299.05
729990,7299.9
730073,7300.73
730155,7301.55
730237,7302.37
730321,7303.21
730404,7304.04
730488,7304.88
730574,7305.74
730661,7306.61
730748,7307.48
730835,7308.35
730920,7309.2
731006,7310.06
731092,7310.92
731179,7311.79
731266,7312.66
731351,7313.51
731436,7314.36
731519,7315.19
731605,7316.05
731693,7316.93
731780,7317.8
731869,7318.69
731962,7319.62
732054,7320.54
732147,7321.47
732236,7322.36
732325,7323.25
732416,7324.16
732506,7325.06
732596,7325.96
732684,7326.84
732770,7327.7
732858,7328.58
732946,7329.46
733035,7330.35
733122,7331.22
733208,7332.08
733293,7332.93
733380,7333.8
733471,7334.71
733563,7335.63
733652,7336.52
733736,7337.36
733818,7338.18
733899,7338.99
733982,7339.82
734067,7340.67
734154,7341.54
734242,7342.42
734327,7343.27
734410,7344.1
734492,7344.92
734575,7345.75
734659,7346.59
734745,7347.45
734831,7348.31
734917,7349.17
735003,7350.03
735087,7350.87
735173,7351.73
735258,7352.58
735344,7353.44
735428,7354.28
735512,7355.12
735596,7355.96
735678,7356.78
735759,7357.59
735842,7358.42
735925,7359.25
736009,7360.09
736093,7360.93
736176,7361.76
736258,7362.58
736339,7363.39
736420,7364.2
736500,7365.0
736580,7365.8
736661,7366.61
736746,7367.46
736832,7368.32
736918,7369.18
737002,7370.02
737084,7370.84
737164,7371.64
737242,7372.42
737319,7373.19
737395,7373.95
737470,7374.7
737546,7375.46
737625,7376.25
737706,7377.06
737788,7377.88
737868,7378.68
737947,7379.47
738026,7380.26
738104,7381.04
738181,7381.81
738258,7382.58
738335,7383.35
738412,7384.12
738491,7384.91
738572,7385.72
738655,7386.55
738739,7387.39
738821,7388.21
738902,7389.02
738982,7389.82
739061,7390.61
739140,7391.4
739219,7392.19
739300,7393.0
739379,7393.79
739456,7394.56
739529,7395.29
739599,7395.99
739668,7396.68
739737,7397.37
739806,7398.06
739879,7398.79
739955,7399.55
740033,7400.33
740110,7401.1
740188,7401.88
740267,7402.67
740346,7403.46
740427,7404.27
740510,7405.1
740594,7405.94
740677,7406.77
740759,7407.59
740840,7408.4
740920,7409.2
741001,7410.01
741083,7410.83
741165,7411.65
741247,7412.47
741330,7413.3
741414,7414.14
741498,7414.98
741584,7415.84
741670,7416.7
741755,7417.55
741839,7418.39
741921,7419.21
742004,7420.04
742089,7420.89
742173,7421.73
742258,7422.58
742344,7423.44
742428,7424.28
742512,7425.12
742598,7425.98
742685,7426.85
742771,7427.71
742858,7428.58
742944,7429.44
743029,7430.29
743114,7431.14
743201,7432.01
743287,7432.87
743371,7433.71
743454,7434.54
743537,7435.37
743622,7436.22
743709,7437.09
743795,7437.95
743879,7438.79
743962,7439.62
744043,7440.43
744127,7441.27
744215,7442.15
744301,7443.01
744389,7443.89
744477,7444.77
744563,7445.63
744648,7446.48
744735,7447.35
744824,7448.24
744914,7449.14
745003,7450.03
745090,7450.9
745177,7451.77
745266,7452.66
745353,7453.53
745442,7454.42
745530,7455.3
745618,7456.18
745704,7457.04
745789,7457.89
745874,7458.74
745960,7459.6
746045,7460.45
746130,7461.3
746213,7462.13
746299,7462.99
746387,7463.87
746476,7464.76
746565,7465.65
746650,7466.5
746735,7467.35
746820,7468.2
746906,7469.06
746993,7469.93
747078,7470.78
747165,7471.65
747255,7472.55
747344,7473.44
747434,7474.34
747524,7475.24
747609,7476.09
747695,7476.95
747780,7477.8
747867,7478.67
747953,7479.53
748040,7480.4
748125,7481.25
748212,7482.12
748301,7483.01
748389,7483.89
748478,7484.78
748567,7485.67
748655,7486.55
748743,7487.43
748830,7488.3
748917,7489.17
749002,7490.02
749086,7490.86
749171,7491.71
749257,7492.57
749345,7493.45
749434,7494.34
749521,7495.21
749608,7496.08
749696,7496.96
749786,7497.86
749875,7498.75
749962,7499.62
750049,7500.49
750138,7501.38
750227,7502.27
750317,7503.17
750404,7504.04
750489,7504.89
750576,7505.76
750663,7506.63
