sample,time_sec
26759,267.59
26852,268.52
26973,269.73
27069,270.69
27374,273.74
27679,276.79
27918,279.18
28000,280.0
28063,280.63
28157,281.57
28209,282.09
28247,282.47
28325,283.25
28373,283.73
28426,284.26
28475,284.75
28524,285.24
28573,285.73
28627,286.27
28684,286.84
28757,287.57
28900,289.0
28973,289.73
29020,290.2
29077,290.77
29135,291.35
29171,291.71
29217,292.17
29260,292.6
29304,293.04
29360,293.6
29411,294.11
29536,295.36
60120,601.2
60194,601.94
60296,602.96
62192,621.92
64089,640.89
64747,647.47
65406,654.06
65480,654.8
65558,655.58
65615,656.15
65654,656.54
65699,656.99
65755,657.55
65810,658.1
65848,658.48
65930,659.3
66012,660.12
66090,660.9
66133,661.33
66201,662.01
66273,662.73
66352,663.52
66449,664.49
66507,665.07
66560,665.6
66595,665.95
66713,667.13
66876,668.76
66990,669.9
67139,671.39
67170,671.7
67221,672.21
67267,672.67
67298,672.98
67342,673.42
67428,674.28
67506,675.06
67564,675.64
67643,676.43
67739,677.39
67831,678.31
67914,679.14
67992,679.92
68068,680.68
68150,681.5
68206,682.06
68256,682.56
68363,683.63
68468,684.68
68572,685.72
68675,686.75
68777,687.77
68878,688.78
68977,689.77
69077,690.77
69179,691.79
69279,692.79
69381,693.81
69485,694.85
69588,695.88
69690,696.9
69792,697.92
69893,698.93
69993,699.93
70095,700.95
70200,702.0
70307,703.07
70415,704.15
70523,705.23
70628,706.28
70721,707.21
70809,708.09
70891,708.91
70969,709.69
71050,710.5
71137,711.37
71229,712.29
71327,713.27
71424,714.24
71513,715.13
71607,716.07
71702,717.02
71796,717.96
71886,718.86
71983,719.83
72083,720.83
72184,721.84
72279,722.79
72379,723.79
72483,724.83
72583,725.83
72678,726.78
72780,727.8
72883,728.83
72988,729.88
73088,730.88
73189,731.89
73292,732.92
73398,733.98
73499,734.99
73596,735.96
73697,736.97
73800,738.0
73901,739.01
74000,740.0
74100,741.0
74202,742.02
74301,743.01
74400,744.0
74500,745.0
74601,746.01
74700,747.0
74799,747.99
74898,748.98
74998,749.98
75093,750.93
75180,751.8
75265,752.65
75351,753.51
75439,754.39
75523,755.23
75614,756.14
75708,757.08
75803,758.03
75899,758.99
75990,759.9
76083,760.83
76175,761.75
76268,762.68
76356,763.56
76446,764.46
76538,765.38
76635,766.35
76724,767.24
76814,768.14
76909,769.09
77008,770.08
77105,771.05
77198,771.98
77296,772.96
77395,773.95
77491,774.91
77585,775.85
77684,776.84
77787,777.87
77887,778.87
77983,779.83
78082,780.82
78179,781.79
78273,782.73
78359,783.59
78448,784.48
78541,785.41
78637,786.37
78731,787.31
78829,788.29
78930,789.3
79034,790.34
79134,791.34
79237,792.37
79340,793.4
79439,794.39
79531,795.31
79624,796.24
79718,797.18
79807,798.07
79907,799.07
80005,800.05
80108,801.08
80196,801.96
80276,802.76
80353,803.53
80430,804.3
80511,805.11
80605,806.05
80702,807.02
80795,807.95
80888,808.88
80982,809.82
81074,810.74
81164,811.64
81247,812.47
81329,813.29
81414,814.14
81499,814.99
81592,815.92
81687,816.87
81778,817.78
81872,818.72
81972,819.72
82074,820.74
82172,821.72
82270,822.7
82371,823.71
82467,824.67
82557,825.57
82649,826.49
82748,827.48
82847,828.47
82942,829.42
83039,830.39
83136,831.36
83229,832.29
83316,833.16
83411,834.11
83511,835.11
83609,836.09
83699,836.99
83793,837.93
83890,838.9
83987,839.87
84078,840.78
84171,841.71
84270,842.7
84372,843.72
84471,844.71
84569,845.69
84668,846.68
84766,847.66
84864,848.64
84955,849.55
85052,850.52
85154,851.54
85253,852.53
85345,853.45
85440,854.4
85537,855.37
85635,856.35
85725,857.25
85812,858.12
85911,859.11
86016,860.16
86119,861.19
86207,862.07
86316,863.16
86426,864.26
86516,865.16
86621,866.21
86709,867.09
86798,867.98
86863,868.63
86929,869.29
86997,869.97
87066,870.66
87142,871.42
87218,872.18
87299,872.99
87383,873.83
87468,874.68
87531,875.31
87605,876.05
87688,876.88
87752,877.52
87817,878.17
87902,879.02
87988,879.88
88073,880.73
88155,881.55
88240,882.4
88329,883.29
88389,883.89
88450,884.5
88523,885.23
88596,885.96
88690,886.9
88787,887.87
88877,888.77
88959,889.59
89043,890.43
89140,891.4
89240,892.4
89338,893.38
89449,894.49
89560,895.6
89646,896.46
89732,897.32
89827,898.27
89917,899.17
90008,900.08
90100,901.0
90185,901.85
90271,902.71
90359,903.59
90440,904.4
90519,905.19
90597,905.97
90676,906.76
90762,907.62
90853,908.53
90943,909.43
91030,910.3
91119,911.19
91210,912.1
91298,912.98
91382,913.82
91468,914.68
91555,915.55
91641,916.41
91723,917.23
91802,918.02
91885,918.85
91965,919.65
92042,920.42
92123,921.23
92210,922.1
92302,923.02
92403,924.03
92506,925.06
92607,926.07
92704,927.04
92802,928.02
92902,929.02
92997,929.97
93091,930.91
93189,931.89
93289,932.89
93380,933.8
93473,934.73
93569,935.69
93662,936.62
93749,937.49
93831,938.31
93911,939.11
93988,939.88
94068,940.68
94152,941.52
94243,942.43
94331,943.31
94418,944.18
94509,945.09
94606,946.06
94702,947.02
94793,947.93
94886,948.86
94983,949.83
95082,950.82
95177,951.77
95280,952.8
95385,953.85
95488,954.88
95588,955.88
95692,956.92
95798,957.98
95907,959.07
96014,960.14
96118,961.18
96218,962.18
96317,963.17
96418,964.18
96521,965.21
96623,966.23
96720,967.2
96815,968.15
96915,969.15
97019,970.19
97123,971.23
97224,972.24
97327,973.27
97433,974.33
97538,975.38
97642,976.42
97745,977.45
97843,978.43
97944,979.44
98042,980.42
98138,981.38
98241,982.41
98348,983.48
98448,984.48
98533,985.33
98622,986.22
98708,987.08
98798,987.98
98905,989.05
99013,990.13
99124,991.24
99234,992.34
99342,993.42
99447,994.47
99549,995.49
99652,996.52
99759,997.59
99866,998.66
99972,999.72
100078,1000.78
100181,1001.81
100284,1002.84
100391,1003.91
100498,1004.98
100604,1006.04
100710,1007.1
100816,1008.16
100914,1009.14
101011,1010.11
101111,1011.11
101215,1012.15
101322,1013.22
101424,1014.24
101527,1015.27
101630,1016.3
101733,1017.33
101833,1018.33
101934,1019.34
102035,1020.35
102136,1021.36
102236,1022.36
102333,1023.33
102431,1024.31
102531,1025.31
102633,1026.33
102731,1027.31
102830,1028.3
102931,1029.31
103032,1030.32
103133,1031.33
103232,1032.32
103327,1033.27
103422,1034.22
103519,1035.19
103614,1036.14
103705,1037.05
103801,1038.01
103902,1039.02
104002,1040.02
104095,1040.95
104182,1041.82
104271,1042.71
104362,1043.62
104451,1044.51
104538,1045.38
104622,1046.22
104709,1047.09
104803,1048.03
104897,1048.97
104988,1049.88
105085,1050.85
105187,1051.87
105290,1052.9
105389,1053.89
105487,1054.87
105586,1055.86
105681,1056.81
105765,1057.65
105846,1058.46
105929,1059.29
106008,1060.08
106091,1060.91
106185,1061.85
106275,1062.75
106367,1063.67
106465,1064.65
106564,1065.64
106657,1066.57
106750,1067.5
106842,1068.42
106928,1069.28
107013,1070.13
107097,1070.97
107180,1071.8
107260,1072.6
107340,1073.4
107423,1074.23
107514,1075.14
107608,1076.08
107717,1077.17
107830,1078.3
107940,1079.4
108051,1080.51
108161,1081.61
108270,1082.7
108378,1083.78
108485,1084.85
108589,1085.89
108692,1086.92
108796,1087.96
108900,1089.0
109005,1090.05
109109,1091.09
109210,1092.1
109313,1093.13
109416,1094.16
109517,1095.17
109615,1096.15
109712,1097.12
109798,1097.98
109879,1098.79
109967,1099.67
110016,1100.16
110065,1100.65
110115,1101.15
110164,1101.64
110236,1102.36
110308,1103.08
110385,1103.85
110462,1104.62
110559,1105.59
110659,1106.59
110760,1107.6
110857,1108.57
110956,1109.56
111056,1110.56
111154,1111.54
111252,1112.52
111351,1113.51
111450,1114.5
111550,1115.5
111641,1116.41
111730,1117.3
111824,1118.24
111917,1119.17
112010,1120.1
112105,1121.05
112204,1122.04
112302,1123.02
112402,1124.02
112504,1125.04
112603,1126.03
112703,1127.03
112807,1128.07
112914,1129.14
113016,1130.16
113118,1131.18
113219,1132.19
113314,1133.14
113403,1134.03
113487,1134.87
113569,1135.69
113656,1136.56
113754,1137.54
113854,1138.54
113953,1139.53
114051,1140.51
114150,1141.5
114250,1142.5
114347,1143.47
114450,1144.5
114554,1145.54
114653,1146.53
114754,1147.54
114856,1148.56
114959,1149.59
115057,1150.57
115160,1151.6
115263,1152.63
115358,1153.58
115454,1154.54
115548,1155.48
115647,1156.47
115747,1157.47
115844,1158.44
115941,1159.41
116040,1160.4
116139,1161.39
116235,1162.35
116322,1163.22
116411,1164.11
116504,1165.04
116604,1166.04
116705,1167.05
116805,1168.05
116908,1169.08
117013,1170.13
117116,1171.16
117215,1172.15
117317,1173.17
117423,1174.23
117525,1175.25
117628,1176.28
117733,1177.33
117834,1178.34
117934,1179.34
118038,1180.38
118143,1181.43
118241,1182.41
118330,1183.3
118419,1184.19
118511,1185.11
118609,1186.09
118708,1187.08
118818,1188.18
118929,1189.29
119032,1190.32
119134,1191.34
119237,1192.37
119344,1193.44
119448,1194.48
119549,1195.49
119653,1196.53
119759,1197.59
119863,1198.63
119964,1199.64
120070,1200.7
120175,1201.75
120279,1202.79
120381,1203.81
120486,1204.86
120590,1205.9
120691,1206.91
120792,1207.92
120898,1208.98
121003,1210.03
121105,1211.05
121209,1212.09
121316,1213.16
121421,1214.21
121524,1215.24
121629,1216.29
121731,1217.31
121820,1218.2
121910,1219.1
121999,1219.99
122084,1220.84
122175,1221.75
122267,1222.67
122359,1223.59
122454,1224.54
122546,1225.46
122635,1226.35
122721,1227.21
122804,1228.04
122884,1228.84
122961,1229.61
123036,1230.36
123110,1231.1
123191,1231.91
123301,1233.01
123411,1234.11
123520,1235.2
123628,1236.28
123735,1237.35
123838,1238.38
123946,1239.46
124054,1240.54
124160,1241.6
124267,1242.67
124373,1243.73
124472,1244.72
124566,1245.66
124654,1246.54
124742,1247.42
124838,1248.38
124941,1249.41
125046,1250.46
125152,1251.52
125255,1252.55
125358,1253.58
125463,1254.63
125571,1255.71
125679,1256.79
125785,1257.85
125888,1258.88
125993,1259.93
126099,1260.99
126204,1262.04
126306,1263.06
126405,1264.05
126505,1265.05
126609,1266.09
126711,1267.11
126813,1268.13
126915,1269.15
127022,1270.22
127129,1271.29
127230,1272.3
127332,1273.32
127437,1274.37
127544,1275.44
127645,1276.45
127750,1277.5
127858,1278.58
127966,1279.66
128071,1280.71
128179,1281.79
128287,1282.87
128391,1283.91
128490,1284.9
128577,1285.77
128664,1286.64
128751,1287.51
128856,1288.56
128961,1289.61
129070,1290.7
129178,1291.78
129283,1292.83
129388,1293.88
129496,1294.96
129605,1296.05
129710,1297.1
129815,1298.15
129920,1299.2
130024,1300.24
130125,1301.25
130228,1302.28
130330,1303.3
130425,1304.25
130520,1305.2
130615,1306.15
130708,1307.08
130798,1307.98
130893,1308.93
130994,1309.94
131094,1310.94
131190,1311.9
131292,1312.92
131395,1313.95
131497,1314.97
131596,1315.96
131699,1316.99
131805,1318.05
131907,1319.07
132008,1320.08
132113,1321.13
132217,1322.17
132316,1323.16
132418,1324.18
132524,1325.24
132628,1326.28
132730,1327.3
132835,1328.35
132939,1329.39
133037,1330.37
133137,1331.37
133239,1332.39
133342,1333.42
133449,1334.49
133560,1335.6
133670,1336.7
133777,1337.77
133885,1338.85
133991,1339.91
134095,1340.95
134200,1342.0
134310,1343.1
134418,1344.18
134523,1345.23
134624,1346.24
134721,1347.21
134817,1348.17
134919,1349.19
135028,1350.28
135140,1351.4
135249,1352.49
135354,1353.54
135456,1354.56
135557,1355.57
135659,1356.59
135764,1357.64
135872,1358.72
135982,1359.82
136091,1360.91
136196,1361.96
136297,1362.97
136400,1364.0
136508,1365.08
136617,1366.17
136724,1367.24
136830,1368.3
136928,1369.28
137026,1370.26
137121,1371.21
137217,1372.17
137315,1373.15
137423,1374.23
137536,1375.36
137649,1376.49
137763,1377.63
137876,1378.76
137988,1379.88
138099,1380.99
138206,1382.06
138311,1383.11
138419,1384.19
138528,1385.28
138638,1386.38
138747,1387.47
138851,1388.51
138953,1389.53
139055,1390.55
139161,1391.61
139270,1392.7
139379,1393.79
139485,1394.85
139590,1395.9
139695,1396.95
139802,1398.02
139909,1399.09
140016,1400.16
140117,1401.17
140217,1402.17
140324,1403.24
140432,1404.32
140538,1405.38
140641,1406.41
140746,1407.46
140853,1408.53
140960,1409.6
141064,1410.64
141166,1411.66
141273,1412.73
141379,1413.79
141481,1414.81
141582,1415.82
141685,1416.85
141789,1417.89
141891,1418.91
141990,1419.9
142093,1420.93
142198,1421.98
142299,1422.99
142399,1423.99
142504,1425.04
142611,1426.11
142716,1427.16
142819,1428.19
142925,1429.25
143032,1430.32
143134,1431.34
143235,1432.35
143340,1433.4
143446,1434.46
143550,1435.5
143652,1436.52
143757,1437.57
143863,1438.63
143967,1439.67
144067,1440.67
144171,1441.71
144279,1442.79
144389,1443.89
144495,1444.95
144602,1446.02
144712,1447.12
144819,1448.19
144921,1449.21
145021,1450.21
145127,1451.27
145232,1452.32
145332,1453.32
145430,1454.3
145533,1455.33
145641,1456.41
145747,1457.47
145850,1458.5
145957,1459.57
146065,1460.65
146169,1461.69
146271,1462.71
146377,1463.77
146485,1464.85
146590,1465.9
146693,1466.93
146798,1467.98
146904,1469.04
147008,1470.08
147112,1471.12
147219,1472.19
147327,1473.27
147429,1474.29
147529,1475.29
147633,1476.33
147740,1477.4
147845,1478.45
147944,1479.44
148043,1480.43
148150,1481.5
148260,1482.6
148367,1483.67
148473,1484.73
148583,1485.83
148694,1486.94
148801,1488.01
148909,1489.09
149019,1490.19
149129,1491.29
149235,1492.35
149342,1493.42
149454,1494.54
149563,1495.63
149669,1496.69
149779,1497.79
149888,1498.88
149993,1499.93
150097,1500.97
150204,1502.04
150312,1503.12
150416,1504.16
150516,1505.16
150621,1506.21
150727,1507.27
150837,1508.37
150941,1509.41
151049,1510.49
151158,1511.58
151263,1512.63
151363,1513.63
151467,1514.67
151574,1515.74
151679,1516.79
151778,1517.78
151868,1518.68
151950,1519.5
152033,1520.33
152126,1521.26
152219,1522.19
152309,1523.09
152405,1524.05
152502,1525.02
152596,1525.96
152685,1526.85
152776,1527.76
152869,1528.69
152958,1529.58
153043,1530.43
153133,1531.33
153228,1532.28
153325,1533.25
153421,1534.21
153519,1535.19
153622,1536.22
153726,1537.26
153827,1538.27
153930,1539.3
154035,1540.35
154139,1541.39
154239,1542.39
154344,1543.44
154453,1544.53
154561,1545.61
154664,1546.64
154770,1547.7
154878,1548.78
154981,1549.81
155083,1550.83
155189,1551.89
155299,1552.99
155406,1554.06
155514,1555.14
155618,1556.18
155718,1557.18
155809,1558.09
155901,1559.01
155997,1559.97
156095,1560.95
156197,1561.97
156303,1563.03
156407,1564.07
156508,1565.08
156608,1566.08
156710,1567.1
156814,1568.14
156916,1569.16
157018,1570.18
157123,1571.23
157230,1572.3
157335,1573.35
157442,1574.42
157551,1575.51
157659,1576.59
157762,1577.62
157868,1578.68
157976,1579.76
158083,1580.83
158186,1581.86
158293,1582.93
158403,1584.03
158511,1585.11
158615,1586.15
158724,1587.24
158832,1588.32
158938,1589.38
159040,1590.4
159147,1591.47
159257,1592.57
159364,1593.64
159473,1594.73
159583,1595.83
159692,1596.92
159795,1597.95
159903,1599.03
160014,1600.14
160122,1601.22
160227,1602.27
160336,1603.36
160445,1604.45
160551,1605.51
160657,1606.57
160769,1607.69
160878,1608.78
160984,1609.84
161090,1610.9
161202,1612.02
161312,1613.12
161419,1614.19
161526,1615.26
161630,1616.3
161730,1617.3
161823,1618.23
161920,1619.2
162025,1620.25
162131,1621.31
162235,1622.35
162340,1623.4
162447,1624.47
162554,1625.54
162657,1626.57
162759,1627.59
162865,1628.65
162974,1629.74
163078,1630.78
163180,1631.8
163285,1632.85
163391,1633.91
163495,1634.95
163600,1636.0
163703,1637.03
163812,1638.12
163921,1639.21
164023,1640.23
164113,1641.13
164204,1642.04
164297,1642.97
164401,1644.01
164511,1645.11
164624,1646.24
164732,1647.32
164838,1648.38
164947,1649.47
165057,1650.57
165166,1651.66
165271,1652.71
165380,1653.8
165492,1654.92
165602,1656.02
165710,1657.1
165819,1658.19
165931,1659.31
166043,1660.43
166152,1661.52
166260,1662.6
166372,1663.72
166485,1664.85
166595,1665.95
166705,1667.05
166818,1668.18
166933,1669.33
167044,1670.44
167154,1671.54
167268,1672.68
167382,1673.82
167492,1674.92
167603,1676.03
167717,1677.17
167832,1678.32
167941,1679.41
168049,1680.49
168163,1681.63
168277,1682.77
168387,1683.87
168494,1684.94
168605,1686.05
168717,1687.17
168830,1688.3
168940,1689.4
169054,1690.54
169167,1691.67
169277,1692.77
169386,1693.86
169496,1694.96
169607,1696.07
169714,1697.14
169818,1698.18
169928,1699.28
170038,1700.38
170143,1701.43
170247,1702.47
170356,1703.56
170466,1704.66
170571,1705.71
170678,1706.78
170786,1707.86
170893,1708.93
170997,1709.97
171105,1711.05
171215,1712.15
171320,1713.2
171425,1714.25
171533,1715.33
171642,1716.42
171743,1717.43
171845,1718.45
171948,1719.48
172050,1720.5
172149,1721.49
172251,1722.51
172354,1723.54
172456,1724.56
172557,1725.57
172661,1726.61
172766,1727.66
172869,1728.69
172968,1729.68
173068,1730.68
173172,1731.72
173276,1732.76
173373,1733.73
173471,1734.71
173572,1735.72
173673,1736.73
173771,1737.71
173871,1738.71
173975,1739.75
174075,1740.75
174177,1741.77
174282,1742.82
174385,1743.85
174482,1744.82
174580,1745.8
174682,1746.82
174786,1747.86
174888,1748.88
174994,1749.94
175101,1751.01
175204,1752.04
175307,1753.07
175413,1754.13
175517,1755.17
175617,1756.17
175719,1757.19
175823,1758.23
175925,1759.25
176026,1760.26
176130,1761.3
176236,1762.36
176342,1763.42
176446,1764.46
176552,1765.52
176657,1766.57
176760,1767.6
176861,1768.61
176965,1769.65
177070,1770.7
177172,1771.72
177276,1772.76
177383,1773.83
177491,1774.91
177596,1775.96
177700,1777.0
177806,1778.06
177911,1779.11
178013,1780.13
178115,1781.15
178221,1782.21
178328,1783.28
178432,1784.32
178535,1785.35
178643,1786.43
178750,1787.5
178852,1788.52
178951,1789.51
179055,1790.55
179159,1791.59
179261,1792.61
179362,1793.62
179466,1794.66
179568,1795.68
179670,1796.7
179766,1797.66
179852,1798.52
179938,1799.38
180032,1800.32
180136,1801.36
180230,1802.3
180324,1803.24
180419,1804.19
180515,1805.15
180608,1806.08
180697,1806.97
180779,1807.79
180857,1808.57
180934,1809.34
181006,1810.06
181085,1810.85
181187,1811.87
181283,1812.83
181378,1813.78
181474,1814.74
181562,1815.62
181647,1816.47
181732,1817.32
181774,1817.74
181823,1818.23
181876,1818.76
181914,1819.14
181959,1819.59
181994,1819.94
182030,1820.3
182094,1820.94
182159,1821.59
182248,1822.48
182338,1823.38
182421,1824.21
182504,1825.04
182585,1825.85
182668,1826.68
182752,1827.52
182838,1828.38
182918,1829.18
182999,1829.99
183081,1830.81
183162,1831.62
183218,1832.18
183274,1832.74
183332,1833.32
183390,1833.9
183461,1834.61
183534,1835.34
183605,1836.05
183680,1836.8
183756,1837.56
183834,1838.34
183909,1839.09
183974,1839.74
184045,1840.45
184113,1841.13
184180,1841.8
184246,1842.46
184313,1843.13
184379,1843.79
184447,1844.47
184517,1845.17
184591,1845.91
184671,1846.71
184759,1847.59
184846,1848.46
184924,1849.24
185001,1850.01
185083,1850.83
185167,1851.67
185254,1852.54
185337,1853.37
185415,1854.15
185487,1854.87
185560,1855.6
185631,1856.31
185704,1857.04
185781,1857.81
185865,1858.65
185948,1859.48
186035,1860.35
186124,1861.24
186209,1862.09
186290,1862.9
186372,1863.72
186455,1864.55
186540,1865.4
186625,1866.25
186709,1867.09
186794,1867.94
186877,1868.77
186960,1869.6
187045,1870.45
187133,1871.33
187215,1872.15
187297,1872.97
187376,1873.76
187454,1874.54
187529,1875.29
187609,1876.09
187689,1876.89
187777,1877.77
187868,1878.68
187953,1879.53
188033,1880.33
188110,1881.1
188188,1881.88
188262,1882.62
188338,1883.38
188407,1884.07
188476,1884.76
188557,1885.57
188630,1886.3
188706,1887.06
188783,1887.83
188855,1888.55
188928,1889.28
189022,1890.22
189115,1891.15
189214,1892.14
189312,1893.12
189408,1894.08
189497,1894.97
189585,1895.85
189669,1896.69
189749,1897.49
189831,1898.31
189928,1899.28
190028,1900.28
190126,1901.26
190228,1902.28
190330,1903.3
190430,1904.3
190527,1905.27
190624,1906.24
190718,1907.18
190813,1908.13
190906,1909.06
191008,1910.08
191114,1911.14
191223,1912.23
191331,1913.31
191437,1914.37
191542,1915.42
191647,1916.47
191754,1917.54
191860,1918.6
191960,1919.6
192046,1920.46
192124,1921.24
192195,1921.95
192263,1922.63
192330,1923.3
192397,1923.97
192476,1924.76
192580,1925.8
192685,1926.85
192778,1927.78
192871,1928.71
192974,1929.74
193083,1930.83
193187,1931.87
193275,1932.75
193364,1933.64
193466,1934.66
193572,1935.72
193675,1936.75
193783,1937.83
193891,1938.91
193999,1939.99
194106,1941.06
194211,1942.11
194315,1943.15
194424,1944.24
194534,1945.34
194641,1946.41
194748,1947.48
194855,1948.55
194963,1949.63
195071,1950.71
195177,1951.77
195284,1952.84
195394,1953.94
195502,1955.02
195608,1956.08
195715,1957.15
195823,1958.23
195928,1959.28
196032,1960.32
196139,1961.39
196249,1962.49
196357,1963.57
196462,1964.62
196567,1965.67
196674,1966.74
196780,1967.8
196884,1968.84
196987,1969.87
197094,1970.94
197201,1972.01
197306,1973.06
197412,1974.12
197520,1975.2
197627,1976.27
197731,1977.31
197834,1978.34
197939,1979.39
198046,1980.46
198152,1981.52
198257,1982.57
198366,1983.66
198475,1984.75
198581,1985.81
198684,1986.84
198790,1987.9
198897,1988.97
199002,1990.02
199106,1991.06
199213,1992.13
199320,1993.2
199426,1994.26
199531,1995.31
199637,1996.37
199742,1997.42
199844,1998.44
199948,1999.48
200053,2000.53
200158,2001.58
200259,2002.59
200364,2003.64
200470,2004.7
200573,2005.73
200673,2006.73
200776,2007.76
200881,2008.81
200983,2009.83
201081,2010.81
201181,2011.81
201283,2012.83
201381,2013.81
201479,2014.79
201581,2015.81
201683,2016.83
201784,2017.84
201882,2018.82
201983,2019.83
202088,2020.88
202188,2021.88
202285,2022.85
202386,2023.86
202487,2024.87
202586,2025.86
202688,2026.88
202792,2027.92
202896,2028.96
202995,2029.95
203095,2030.95
203194,2031.94
203294,2032.94
203391,2033.91
203491,2034.91
203593,2035.93
203695,2036.95
203794,2037.94
203896,2038.96
204000,2040.0
204103,2041.03
204203,2042.03
204304,2043.04
204406,2044.06
204505,2045.05
204600,2046.0
204696,2046.96
204780,2047.8
204864,2048.64
204952,2049.52
205042,2050.42
205141,2051.41
205240,2052.4
205339,2053.39
205436,2054.36
205534,2055.34
205633,2056.33
205725,2057.25
205817,2058.17
205912,2059.12
206015,2060.15
206115,2061.15
206216,2062.16
206321,2063.21
206426,2064.26
206527,2065.27
206631,2066.31
206737,2067.37
206839,2068.39
206939,2069.39
207041,2070.41
207148,2071.48
207253,2072.53
207356,2073.56
207462,2074.62
207570,2075.7
207676,2076.76
207779,2077.79
207885,2078.85
207992,2079.92
208097,2080.97
208202,2082.02
208307,2083.07
208414,2084.14
208515,2085.15
208617,2086.17
208721,2087.21
208829,2088.29
208933,2089.33
209040,2090.4
209148,2091.48
209254,2092.54
209359,2093.59
209467,2094.67
209577,2095.77
209683,2096.83
209788,2097.88
209898,2098.98
210009,2100.09
210115,2101.15
210221,2102.21
210329,2103.29
210436,2104.36
210542,2105.42
210649,2106.49
210758,2107.58
210863,2108.63
210969,2109.69
211077,2110.77
211185,2111.85
211290,2112.9
211397,2113.97
211507,2115.07
211614,2116.14
211717,2117.17
211823,2118.23
211931,2119.31
212037,2120.37
212142,2121.42
212249,2122.49
212355,2123.55
212459,2124.59
212563,2125.63
212668,2126.68
212774,2127.74
212876,2128.76
212982,2129.82
213090,2130.9
213193,2131.93
213294,2132.94
213398,2133.98
213503,2135.03
213603,2136.03
213707,2137.07
213813,2138.13
213919,2139.19
214020,2140.2
214124,2141.24
214229,2142.29
214331,2143.31
214431,2144.31
214535,2145.35
214641,2146.41
214744,2147.44
214848,2148.48
214955,2149.55
215061,2150.61
215164,2151.64
215270,2152.7
215378,2153.78
215483,2154.83
215589,2155.89
215695,2156.95
215799,2157.99
215900,2159.0
216002,2160.02
216109,2161.09
216213,2162.13
216314,2163.14
216418,2164.18
216524,2165.24
216628,2166.28
216732,2167.32
216840,2168.4
216948,2169.48
217053,2170.53
217158,2171.58
217265,2172.65
217374,2173.74
217480,2174.8
217584,2175.84
217689,2176.89
217795,2177.95
217898,2178.98
217997,2179.97
218099,2180.99
218206,2182.06
218313,2183.13
218418,2184.18
218525,2185.25
218633,2186.33
218739,2187.39
218841,2188.41
218946,2189.46
219054,2190.54
219161,2191.61
219265,2192.65
219373,2193.73
219482,2194.82
219589,2195.89
219695,2196.95
219801,2198.01
219907,2199.07
220011,2200.11
220113,2201.13
220221,2202.21
220330,2203.3
220436,2204.36
220541,2205.41
220647,2206.47
220751,2207.51
220851,2208.51
220955,2209.55
221064,2210.64
221172,2211.72
221276,2212.76
221384,2213.84
221494,2214.94
221598,2215.98
221700,2217.0
221812,2218.12
221924,2219.24
222030,2220.3
222134,2221.34
222243,2222.43
222353,2223.53
222459,2224.59
222563,2225.63
222671,2226.71
222778,2227.78
222882,2228.82
222984,2229.84
223090,2230.9
223199,2231.99
223303,2233.03
223407,2234.07
223514,2235.14
223620,2236.2
223723,2237.23
223827,2238.27
223934,2239.34
224041,2240.41
224143,2241.43
224249,2242.49
224355,2243.55
224457,2244.57
224555,2245.55
224660,2246.6
224768,2247.68
224871,2248.71
224973,2249.73
225079,2250.79
225186,2251.86
225289,2252.89
225391,2253.91
225496,2254.96
225602,2256.02
225701,2257.01
225798,2257.98
225901,2259.01
226007,2260.07
226114,2261.14
226216,2262.16
226322,2263.22
226432,2264.32
226540,2265.4
226642,2266.42
226745,2267.45
226848,2268.48
226949,2269.49
227047,2270.47
227151,2271.51
227256,2272.56
227359,2273.59
227464,2274.64
227570,2275.7
227675,2276.75
227775,2277.75
227878,2278.78
227983,2279.83
228086,2280.86
228187,2281.87
228291,2282.91
228395,2283.95
228495,2284.95
228595,2285.95
228698,2286.98
228796,2287.96
228893,2288.93
228996,2289.96
229102,2291.02
229205,2292.05
229303,2293.03
229406,2294.06
229510,2295.1
229612,2296.12
229709,2297.09
229812,2298.12
229919,2299.19
230020,2300.2
230113,2301.13
230206,2302.06
230298,2302.98
230387,2303.87
230476,2304.76
230577,2305.77
230688,2306.88
230797,2307.97
230902,2309.02
231009,2310.09
231116,2311.16
231220,2312.2
231323,2313.23
231424,2314.24
231520,2315.2
231620,2316.2
231726,2317.26
231833,2318.33
231936,2319.36
232035,2320.35
232137,2321.37
232241,2322.41
232342,2323.42
232437,2324.37
232535,2325.35
232631,2326.31
232722,2327.22
232810,2328.1
232899,2328.99
232990,2329.9
233085,2330.85
233184,2331.84
233291,2332.91
233399,2333.99
233494,2334.94
233582,2335.82
233676,2336.76
233773,2337.73
233878,2338.78
233989,2339.89
234096,2340.96
234200,2342.0
234307,2343.07
234417,2344.17
234523,2345.23
234633,2346.33
234744,2347.44
234853,2348.53
234957,2349.57
235067,2350.67
235177,2351.77
235284,2352.84
235388,2353.88
235493,2354.93
235601,2356.01
235705,2357.05
235810,2358.1
235919,2359.19
236027,2360.27
236131,2361.31
236232,2362.32
236338,2363.38
236448,2364.48
236553,2365.53
236653,2366.53
236750,2367.5
236845,2368.45
236936,2369.36
237020,2370.2
237104,2371.04
237193,2371.93
237304,2373.04
237416,2374.16
237528,2375.28
237645,2376.45
237762,2377.62
237876,2378.76
237987,2379.87
238098,2380.98
238208,2382.08
238312,2383.12
238416,2384.16
238522,2385.22
238627,2386.27
238731,2387.31
238840,2388.4
238950,2389.5
239057,2390.57
239159,2391.59
239261,2392.61
239366,2393.66
239472,2394.72
239573,2395.73
239676,2396.76
239780,2397.8
239871,2398.71
239956,2399.56
240040,2400.4
240126,2401.26
240228,2402.28
240331,2403.31
240421,2404.21
240512,2405.12
240607,2406.07
240709,2407.09
240811,2408.11
240918,2409.18
241030,2410.3
241140,2411.4
241247,2412.47
241353,2413.53
241465,2414.65
241575,2415.75
241681,2416.81
241783,2417.83
241885,2418.85
241989,2419.89
242093,2420.93
242194,2421.94
242291,2422.91
242389,2423.89
242484,2424.84
242571,2425.71
242651,2426.51
242730,2427.3
242807,2428.07
242884,2428.84
242984,2429.84
243093,2430.93
243202,2432.02
243318,2433.18
243434,2434.34
243547,2435.47
243660,2436.6
243767,2437.67
243874,2438.74
243989,2439.89
244105,2441.05
244216,2442.16
244324,2443.24
244435,2444.35
244546,2445.46
244655,2446.55
244761,2447.61
244862,2448.62
244968,2449.68
245072,2450.72
245169,2451.69
245258,2452.58
245353,2453.53
245466,2454.66
245581,2455.81
245691,2456.91
245802,2458.02
245913,2459.13
246019,2460.19
246115,2461.15
246205,2462.05
246300,2463.0
246409,2464.09
246519,2465.19
246627,2466.27
246742,2467.42
246858,2468.58
246973,2469.73
247084,2470.84
247193,2471.93
247304,2473.04
247414,2474.14
247523,2475.23
247627,2476.27
247730,2477.3
247834,2478.34
247941,2479.41
248049,2480.49
248153,2481.53
248252,2482.52
248351,2483.51
248451,2484.51
248553,2485.53
248653,2486.53
248752,2487.52
248861,2488.61
248971,2489.71
249081,2490.81
249187,2491.87
249293,2492.93
249407,2494.07
249520,2495.2
249628,2496.28
249727,2497.27
249831,2498.31
249937,2499.37
250044,2500.44
250148,2501.48
250257,2502.57
250367,2503.67
250473,2504.73
250575,2505.75
250677,2506.77
250781,2507.81
250885,2508.85
250985,2509.85
251082,2510.82
251188,2511.88
251299,2512.99
251409,2514.09
251513,2515.13
251619,2516.19
251727,2517.27
251833,2518.33
251936,2519.36
252036,2520.36
252142,2521.42
252248,2522.48
252348,2523.48
252450,2524.5
252564,2525.64
252678,2526.78
252786,2527.86
252891,2528.91
252998,2529.98
253109,2531.09
253216,2532.16
253319,2533.19
253426,2534.26
253536,2535.36
253646,2536.46
253754,2537.54
253860,2538.6
253972,2539.72
254084,2540.84
254193,2541.93
254295,2542.95
254400,2544.0
254505,2545.05
254610,2546.1
254714,2547.14
254820,2548.2
254930,2549.3
255035,2550.35
255135,2551.35
255237,2552.37
255345,2553.45
255455,2554.55
255562,2555.62
255663,2556.63
255767,2557.67
255872,2558.72
255975,2559.75
256075,2560.75
256177,2561.77
256286,2562.86
256395,2563.95
256501,2565.01
256602,2566.02
256705,2567.05
256812,2568.12
256921,2569.21
257027,2570.27
257131,2571.31
257240,2572.4
257351,2573.51
257460,2574.6
257564,2575.64
257673,2576.73
257784,2577.84
257897,2578.97
258004,2580.04
258107,2581.07
258213,2582.13
258321,2583.21
258428,2584.28
258529,2585.29
258630,2586.3
258739,2587.39
258848,2588.48
258953,2589.53
259052,2590.52
259153,2591.53
259256,2592.56
259358,2593.58
259460,2594.6
259558,2595.58
259658,2596.58
259763,2597.63
259863,2598.63
259960,2599.6
260067,2600.67
260176,2601.76
260285,2602.85
260389,2603.89
260498,2604.98
260607,2606.07
260710,2607.1
260808,2608.08
260911,2609.11
261021,2610.21
261132,2611.32
261239,2612.39
261340,2613.4
261439,2614.39
261542,2615.42
261644,2616.44
261744,2617.44
261844,2618.44
261953,2619.53
262068,2620.68
262178,2621.78
262286,2622.86
262396,2623.96
262511,2625.11
262625,2626.25
262736,2627.36
262843,2628.43
262955,2629.55
263069,2630.69
263181,2631.81
263287,2632.87
263395,2633.95
263506,2635.06
263618,2636.18
263726,2637.26
263834,2638.34
263944,2639.44
264053,2640.53
264160,2641.6
264264,2642.64
264370,2643.7
264477,2644.77
264579,2645.79
264676,2646.76
264771,2647.71
264874,2648.74
264952,2649.52
265030,2650.3
265136,2651.36
265240,2652.4
265343,2653.43
265453,2654.53
265565,2655.65
265672,2656.72
265776,2657.76
265887,2658.87
265999,2659.99
266106,2661.06
266209,2662.09
266309,2663.09
266421,2664.21
266532,2665.32
266641,2666.41
266747,2667.47
266855,2668.55
266965,2669.65
267076,2670.76
267185,2671.85
267293,2672.93
267408,2674.08
267522,2675.22
267634,2676.34
267742,2677.42
267855,2678.55
267970,2679.7
268083,2680.83
268193,2681.93
268303,2683.03
268415,2684.15
268528,2685.28
268640,2686.4
268748,2687.48
268855,2688.55
268960,2689.6
269064,2690.64
269167,2691.67
269269,2692.69
269368,2693.68
269473,2694.73
269580,2695.8
269687,2696.87
269788,2697.88
269888,2698.88
269986,2699.86
270093,2700.93
270203,2702.03
270308,2703.08
270411,2704.11
270515,2705.15
270625,2706.25
270733,2707.33
270836,2708.36
270937,2709.37
271041,2710.41
271148,2711.48
271251,2712.51
271353,2713.53
271458,2714.58
271566,2715.66
271671,2716.71
271773,2717.73
271878,2718.78
271984,2719.84
272089,2720.89
272195,2721.95
272297,2722.97
272404,2724.04
272514,2725.14
272625,2726.25
272733,2727.33
272839,2728.39
272954,2729.54
273070,2730.7
273184,2731.84
273293,2732.93
273405,2734.05
273518,2735.18
273630,2736.3
273736,2737.36
273840,2738.4
273947,2739.47
274057,2740.57
274166,2741.66
274270,2742.7
274373,2743.73
274479,2744.79
274588,2745.88
274693,2746.93
274796,2747.96
274900,2749.0
275006,2750.06
275112,2751.12
275213,2752.13
275310,2753.1
275412,2754.12
275515,2755.15
275617,2756.17
275718,2757.18
275812,2758.12
275920,2759.2
276029,2760.29
276132,2761.32
276230,2762.3
276322,2763.22
276422,2764.22
276529,2765.29
276638,2766.38
276742,2767.42
276842,2768.42
276952,2769.52
277061,2770.61
277168,2771.68
277270,2772.7
277376,2773.76
277486,2774.86
277599,2775.99
277707,2777.07
277811,2778.11
277921,2779.21
278035,2780.35
278147,2781.47
278256,2782.56
278360,2783.6
278467,2784.67
278577,2785.77
278688,2786.88
278794,2787.94
278895,2788.95
278998,2789.98
279106,2791.06
279215,2792.15
279320,2793.2
279420,2794.2
279523,2795.23
279636,2796.36
279750,2797.5
279863,2798.63
279971,2799.71
280082,2800.82
280195,2801.95
280305,2803.05
280412,2804.12
280514,2805.14
280618,2806.18
280726,2807.26
280832,2808.32
280937,2809.37
281038,2810.38
281143,2811.43
281251,2812.51
281362,2813.62
281469,2814.69
281574,2815.74
281682,2816.82
281791,2817.91
281898,2818.98
282000,2820.0
282101,2821.01
282206,2822.06
282312,2823.12
282417,2824.17
282518,2825.18
282622,2826.22
282727,2827.27
282831,2828.31
282930,2829.3
283025,2830.25
283130,2831.3
283239,2832.39
283348,2833.48
283451,2834.51
283555,2835.55
283661,2836.61
283770,2837.7
283874,2838.74
283977,2839.77
284087,2840.87
284196,2841.96
284304,2843.04
284409,2844.09
284520,2845.2
284636,2846.36
284749,2847.49
284856,2848.56
284967,2849.67
285081,2850.81
285194,2851.94
285302,2853.02
285409,2854.09
285518,2855.18
285626,2856.26
285732,2857.32
285834,2858.34
285933,2859.33
286037,2860.37
286144,2861.44
286249,2862.49
286349,2863.49
286453,2864.53
286560,2865.6
286666,2866.66
286766,2867.66
286861,2868.61
286962,2869.62
287064,2870.64
287168,2871.68
287270,2872.7
287372,2873.72
287481,2874.81
287587,2875.87
287690,2876.9
287789,2877.89
287885,2878.85
287984,2879.84
288086,2880.86
288187,2881.87
288287,2882.87
288390,2883.9
288496,2884.96
288603,2886.03
288706,2887.06
288805,2888.05
288907,2889.07
289012,2890.12
289114,2891.14
289214,2892.14
289319,2893.19
289421,2894.21
289525,2895.25
289627,2896.27
289731,2897.31
289843,2898.43
289958,2899.58
290070,2900.7
290177,2901.77
290289,2902.89
290401,2904.01
290510,2905.1
290617,2906.17
290726,2907.26
290835,2908.35
290945,2909.45
291050,2910.5
291150,2911.5
291249,2912.49
291349,2913.49
291453,2914.53
291557,2915.57
291658,2916.58
291765,2917.65
291873,2918.73
291977,2919.77
292079,2920.79
292186,2921.86
292295,2922.95
292403,2924.03
292506,2925.06
292614,2926.14
292725,2927.25
292835,2928.35
292940,2929.4
293042,2930.42
293149,2931.49
293258,2932.58
293363,2933.63
293464,2934.64
293562,2935.62
293662,2936.62
293765,2937.65
293866,2938.66
293964,2939.64
294068,2940.68
294178,2941.78
294287,2942.87
294390,2943.9
294496,2944.96
294608,2946.08
294719,2947.19
294828,2948.28
294934,2949.34
295043,2950.43
295156,2951.56
295266,2952.66
295373,2953.73
295475,2954.75
295581,2955.81
295688,2956.88
295796,2957.96
295900,2959.0
296002,2960.02
296110,2961.1
296219,2962.19
296324,2963.24
296424,2964.24
296527,2965.27
296633,2966.33
296738,2967.38
296838,2968.38
296938,2969.38
297044,2970.44
297154,2971.54
297259,2972.59
297360,2973.6
297465,2974.65
297572,2975.72
297675,2976.75
297775,2977.75
297874,2978.74
297977,2979.77
298077,2980.77
298172,2981.72
298271,2982.71
298374,2983.74
298480,2984.8
298582,2985.82
298682,2986.82
298787,2987.87
298895,2988.95
299001,2990.01
299104,2991.04
299210,2992.1
299320,2993.2
299428,2994.28
299532,2995.32
299638,2996.38
299749,2997.49
299858,2998.58
299964,2999.64
300064,3000.64
300168,3001.68
300275,3002.75
300383,3003.83
300489,3004.89
300594,3005.94
300702,3007.02
300810,3008.1
300915,3009.15
301017,3010.17
301123,3011.23
301230,3012.3
301335,3013.35
301438,3014.38
301538,3015.38
301643,3016.43
301750,3017.5
301855,3018.55
301954,3019.54
302053,3020.53
302158,3021.58
302266,3022.66
302372,3023.72
302474,3024.74
302580,3025.8
302686,3026.86
302790,3027.9
302890,3028.9
302990,3029.9
303096,3030.96
303205,3032.05
303311,3033.11
303414,3034.14
303517,3035.17
303624,3036.24
303730,3037.3
303833,3038.33
303937,3039.37
304044,3040.44
304154,3041.54
304261,3042.61
304364,3043.64
304471,3044.71
304579,3045.79
304685,3046.85
304787,3047.87
304889,3048.89
304996,3049.96
305105,3051.05
305210,3052.1
305317,3053.17
305429,3054.29
305542,3055.42
305651,3056.51
305755,3057.55
305865,3058.65
305975,3059.75
306082,3060.82
306185,3061.85
306288,3062.88
306394,3063.94
306503,3065.03
306608,3066.08
306709,3067.09
306816,3068.16
306927,3069.27
307035,3070.35
307140,3071.4
307247,3072.47
307357,3073.57
307463,3074.63
307567,3075.67
307670,3076.7
307775,3077.75
307880,3078.8
307983,3079.83
308083,3080.83
308189,3081.89
308299,3082.99
308408,3084.08
308513,3085.13
308621,3086.21
308729,3087.29
308836,3088.36
308939,3089.39
309043,3090.43
309152,3091.52
309263,3092.63
309371,3093.71
309475,3094.75
309581,3095.81
309690,3096.9
309797,3097.97
309899,3098.99
310004,3100.04
310111,3101.11
310217,3102.17
310320,3103.2
310421,3104.21
310530,3105.3
310638,3106.38
310742,3107.42
310843,3108.43
310951,3109.51
311061,3110.61
311167,3111.67
311270,3112.7
311372,3113.72
311474,3114.74
311576,3115.76
311678,3116.78
311778,3117.78
311883,3118.83
311991,3119.91
312098,3120.98
312202,3122.02
312306,3123.06
312415,3124.15
312526,3125.26
312634,3126.34
312737,3127.37
312846,3128.46
312956,3129.56
313059,3130.59
313159,3131.59
313264,3132.64
313372,3133.72
313478,3134.78
313581,3135.81
313689,3136.89
313797,3137.97
313903,3139.03
314006,3140.06
314112,3141.12
314220,3142.2
314326,3143.26
314429,3144.29
314530,3145.3
314639,3146.39
314748,3147.48
314855,3148.55
314958,3149.58
315064,3150.64
315172,3151.72
315279,3152.79
315381,3153.81
315486,3154.86
315596,3155.96
315706,3157.06
315809,3158.09
315914,3159.14
316021,3160.21
316128,3161.28
316232,3162.32
316334,3163.34
316438,3164.38
316546,3165.46
316655,3166.55
316760,3167.6
316861,3168.61
316966,3169.66
317075,3170.75
317183,3171.83
317286,3172.86
317389,3173.89
317495,3174.95
317602,3176.02
317706,3177.06
317807,3178.07
317914,3179.14
318023,3180.23
318132,3181.32
318238,3182.38
318340,3183.4
318448,3184.48
318556,3185.56
318661,3186.61
318762,3187.62
318864,3188.64
318969,3189.69
319075,3190.75
319179,3191.79
319282,3192.82
319391,3193.91
319500,3195.0
319607,3196.07
319710,3197.1
319816,3198.16
319924,3199.24
320032,3200.32
320135,3201.35
320237,3202.37
320345,3203.45
320453,3204.53
320558,3205.58
320657,3206.57
320757,3207.57
320861,3208.61
320964,3209.64
321067,3210.67
321164,3211.64
321267,3212.67
321374,3213.74
321480,3214.8
321583,3215.83
321683,3216.83
321790,3217.9
321898,3218.98
322004,3220.04
322105,3221.05
322211,3222.11
322319,3223.19
322424,3224.24
322525,3225.25
322624,3226.24
322730,3227.3
322837,3228.37
322939,3229.39
323045,3230.45
323153,3231.53
323261,3232.61
323366,3233.66
323466,3234.66
323571,3235.71
323678,3236.78
323782,3237.82
323882,3238.82
323983,3239.83
324093,3240.93
324204,3242.04
324310,3243.1
324412,3244.12
324517,3245.17
324623,3246.23
324729,3247.29
324831,3248.31
324929,3249.29
325032,3250.32
325138,3251.38
325241,3252.41
325341,3253.41
325442,3254.42
325548,3255.48
325654,3256.54
325757,3257.57
325856,3258.56
325959,3259.59
326066,3260.66
326170,3261.7
326271,3262.71
326373,3263.73
326482,3264.82
326590,3265.9
326693,3266.93
326794,3267.94
326900,3269.0
327007,3270.07
327112,3271.12
327213,3272.13
327317,3273.17
327423,3274.23
327527,3275.27
327627,3276.27
327729,3277.29
327835,3278.35
327942,3279.42
328041,3280.41
328142,3281.42
328242,3282.42
328340,3283.4
328436,3284.36
328535,3285.35
328641,3286.41
328748,3287.48
328853,3288.53
328958,3289.58
329069,3290.69
329178,3291.78
329286,3292.86
329389,3293.89
329491,3294.91
329596,3295.96
329702,3297.02
329803,3298.03
329906,3299.06
330015,3300.15
330126,3301.26
330232,3302.32
330335,3303.35
330440,3304.4
330549,3305.49
330658,3306.58
330758,3307.58
330858,3308.58
330962,3309.62
331070,3310.7
331176,3311.76
331278,3312.78
331384,3313.84
331492,3314.92
331600,3316.0
331708,3317.08
331813,3318.13
331915,3319.15
332022,3320.22
332129,3321.29
332235,3322.35
332336,3323.36
332438,3324.38
332547,3325.47
332658,3326.58
332769,3327.69
332872,3328.72
332979,3329.79
333089,3330.89
333200,3332.0
333308,3333.08
333412,3334.12
333520,3335.2
333632,3336.32
333743,3337.43
333852,3338.52
333957,3339.57
334065,3340.65
334177,3341.77
334287,3342.87
334391,3343.91
334492,3344.92
334595,3345.95
334702,3347.02
334809,3348.09
334910,3349.1
335007,3350.07
335108,3351.08
335212,3352.12
335316,3353.16
335415,3354.15
335516,3355.16
335620,3356.2
335726,3357.26
335831,3358.31
335932,3359.32
336034,3360.34
336144,3361.44
336252,3362.52
336357,3363.57
336458,3364.58
336563,3365.63
336671,3366.71
336778,3367.78
336882,3368.82
336987,3369.87
337095,3370.95
337204,3372.04
337311,3373.11
337416,3374.16
337519,3375.19
337624,3376.24
337729,3377.29
337832,3378.32
337931,3379.31
338032,3380.32
338139,3381.39
338246,3382.46
338348,3383.48
338446,3384.46
338549,3385.49
338656,3386.56
338761,3387.61
338862,3388.62
338968,3389.68
339078,3390.78
339188,3391.88
339293,3392.93
339401,3394.01
339511,3395.11
339620,3396.2
339725,3397.25
339829,3398.29
339936,3399.36
340045,3400.45
340152,3401.52
340255,3402.55
340359,3403.59
340465,3404.65
340571,3405.71
340675,3406.75
340776,3407.76
340883,3408.83
340993,3409.93
341102,3411.02
341205,3412.05
341305,3413.05
341408,3414.08
341513,3415.13
341617,3416.17
341719,3417.19
341822,3418.22
341933,3419.33
342044,3420.44
342151,3421.51
342255,3422.55
342362,3423.62
342473,3424.73
342582,3425.82
342686,3426.86
342787,3427.87
342893,3428.93
343001,3430.01
343107,3431.07
343208,3432.08
343313,3433.13
343419,3434.19
343525,3435.25
343631,3436.31
343733,3437.33
343832,3438.32
343934,3439.34
344037,3440.37
344139,3441.39
344238,3442.38
344339,3443.39
344445,3444.45
344551,3445.51
344654,3446.54
344758,3447.58
344864,3448.64
344971,3449.71
345077,3450.77
345176,3451.76
345279,3452.79
345386,3453.86
345495,3454.95
345601,3456.01
345703,3457.03
345807,3458.07
345915,3459.15
346024,3460.24
346128,3461.28
346227,3462.27
346330,3463.3
346435,3464.35
346540,3465.4
346642,3466.42
346743,3467.43
346849,3468.49
346954,3469.54
347056,3470.56
347157,3471.57
347262,3472.62
347370,3473.7
347474,3474.74
347575,3475.75
347684,3476.84
347793,3477.93
347902,3479.02
348006,3480.06
348113,3481.13
348223,3482.23
348332,3483.32
348437,3484.37
348545,3485.45
348654,3486.54
348762,3487.62
348866,3488.66
348968,3489.68
349074,3490.74
349180,3491.8
349286,3492.86
349385,3493.85
349488,3494.88
349596,3495.96
349706,3497.06
349813,3498.13
349916,3499.16
350020,3500.2
350126,3501.26
350234,3502.34
350336,3503.36
350438,3504.38
350543,3505.43
350650,3506.5
350756,3507.56
350860,3508.6
350964,3509.64
351071,3510.71
351179,3511.79
351280,3512.8
351380,3513.8
351485,3514.85
351592,3515.92
351695,3516.95
351794,3517.94
351894,3518.94
352000,3520.0
352108,3521.08
352213,3522.13
352317,3523.17
352427,3524.27
352537,3525.37
352645,3526.45
352746,3527.46
352851,3528.51
352959,3529.59
353066,3530.66
353171,3531.71
353271,3532.71
353375,3533.75
353482,3534.82
353589,3535.89
353691,3536.91
353787,3537.87
353888,3538.88
353993,3539.93
354098,3540.98
354202,3542.02
354303,3543.03
354410,3544.1
354519,3545.19
354625,3546.25
354727,3547.27
354832,3548.32
354940,3549.4
355050,3550.5
355156,3551.56
355257,3552.57
355364,3553.64
355473,3554.73
355582,3555.82
355687,3556.87
355788,3557.88
355896,3558.96
356004,3560.04
356112,3561.12
356217,3562.17
356323,3563.23
356432,3564.32
356536,3565.36
356634,3566.34
356734,3567.34
356840,3568.4
356946,3569.46
357048,3570.48
357151,3571.51
357255,3572.55
357359,3573.59
357459,3574.59
357558,3575.58
357662,3576.62
357769,3577.69
357874,3578.74
357976,3579.76
358086,3580.86
358195,3581.95
358301,3583.01
358406,3584.06
358511,3585.11
358617,3586.17
358724,3587.24
358825,3588.25
358928,3589.28
359035,3590.35
359143,3591.43
359248,3592.48
359348,3593.48
359453,3594.53
359559,3595.59
359667,3596.67
359771,3597.71
359870,3598.7
359978,3599.78
360085,3600.85
360189,3601.89
360289,3602.89
360395,3603.95
360503,3605.03
360610,3606.1
360713,3607.13
360816,3608.16
360924,3609.24
361033,3610.33
361139,3611.39
361240,3612.4
361346,3613.46
361455,3614.55
361564,3615.64
361667,3616.67
361770,3617.7
361879,3618.79
361989,3619.89
362096,3620.96
362200,3622.0
362308,3623.08
362416,3624.16
362523,3625.23
362627,3626.27
362729,3627.29
362835,3628.35
362942,3629.42
363043,3630.43
363141,3631.41
363247,3632.47
363353,3633.53
363459,3634.59
363562,3635.62
363664,3636.64
363771,3637.71
363879,3638.79
363986,3639.86
364089,3640.89
364193,3641.93
364297,3642.97
364401,3644.01
364503,3645.03
364602,3646.02
364705,3647.05
364810,3648.1
364917,3649.17
365018,3650.18
365120,3651.2
365227,3652.27
365334,3653.34
365441,3654.41
365543,3655.43
365648,3656.48
365754,3657.54
365858,3658.58
365962,3659.62
366067,3660.67
366173,3661.73
366280,3662.8
366385,3663.85
366491,3664.91
366602,3666.02
366711,3667.11
366820,3668.2
366924,3669.24
367029,3670.29
367137,3671.37
367246,3672.46
367351,3673.51
367452,3674.52
367557,3675.57
367664,3676.64
367770,3677.7
367872,3678.72
367977,3679.77
368081,3680.81
368183,3681.83
368284,3682.84
368389,3683.89
368499,3684.99
368607,3686.07
368712,3687.12
368820,3688.2
368931,3689.31
369042,3690.42
369148,3691.48
369253,3692.53
369362,3693.62
369471,3694.71
369578,3695.78
369680,3696.8
369786,3697.86
369894,3698.94
370001,3700.01
370105,3701.05
370206,3702.06
370309,3703.09
370413,3704.13
370513,3705.13
370608,3706.08
370703,3707.03
370803,3708.03
370904,3709.04
371007,3710.07
371108,3711.08
371214,3712.14
371321,3713.21
371428,3714.28
371530,3715.3
371634,3716.34
371740,3717.4
371848,3718.48
371953,3719.53
372058,3720.58
372168,3721.68
372280,3722.8
372386,3723.86
372491,3724.91
372598,3725.98
372706,3727.06
372809,3728.09
372909,3729.09
373012,3730.12
373116,3731.16
373218,3732.18
373320,3733.2
373427,3734.27
373538,3735.38
373645,3736.45
373750,3737.5
373856,3738.56
373964,3739.64
374073,3740.73
374179,3741.79
374281,3742.81
374387,3743.87
374495,3744.95
374602,3746.02
374703,3747.03
374806,3748.06
374912,3749.12
375017,3750.17
375119,3751.19
375218,3752.18
375321,3753.21
375429,3754.29
375535,3755.35
375637,3756.37
375742,3757.42
375849,3758.49
375954,3759.54
376054,3760.54
376156,3761.56
376262,3762.62
376370,3763.7
376474,3764.74
376572,3765.72
376675,3766.75
376783,3767.83
376890,3768.9
376993,3769.93
377097,3770.97
377205,3772.05
377313,3773.13
377421,3774.21
377525,3775.25
377630,3776.3
377739,3777.39
377847,3778.47
377951,3779.51
378052,3780.52
378158,3781.58
378267,3782.67
378369,3783.69
378467,3784.67
378570,3785.7
378676,3786.76
378781,3787.81
378884,3788.84
378983,3789.83
379089,3790.89
379193,3791.93
379298,3792.98
379399,3793.99
379501,3795.01
379608,3796.08
379714,3797.14
379816,3798.16
379917,3799.17
380023,3800.23
380131,3801.31
380234,3802.34
380334,3803.34
380438,3804.38
380545,3805.45
380652,3806.52
380753,3807.53
380858,3808.58
380964,3809.64
381069,3810.69
381172,3811.72
381276,3812.76
381383,3813.83
381490,3814.9
381594,3815.94
381694,3816.94
381795,3817.95
381896,3818.96
381998,3819.98
382102,3821.02
382204,3822.04
382309,3823.09
382420,3824.2
382529,3825.29
382634,3826.34
382742,3827.42
382853,3828.53
382960,3829.6
383063,3830.63
383170,3831.7
383279,3832.79
383387,3833.87
383491,3834.91
383596,3835.96
383702,3837.02
383807,3838.07
383909,3839.09
384010,3840.1
384112,3841.12
384217,3842.17
384319,3843.19
384417,3844.17
384516,3845.16
384620,3846.2
384728,3847.28
384834,3848.34
384938,3849.38
385043,3850.43
385153,3851.53
385259,3852.59
385362,3853.62
385465,3854.65
385573,3855.73
385682,3856.82
385788,3857.88
385890,3858.9
385998,3859.98
386112,3861.12
386222,3862.22
386328,3863.28
386438,3864.38
386547,3865.47
386652,3866.52
386755,3867.55
386863,3868.63
386972,3869.72
387076,3870.76
387179,3871.79
387283,3872.83
387389,3873.89
387492,3874.92
387590,3875.9
387691,3876.91
387795,3877.95
387900,3879.0
388001,3880.01
388105,3881.05
388214,3882.14
388324,3883.24
388426,3884.26
388522,3885.22
388623,3886.23
388729,3887.29
388831,3888.31
388931,3889.31
389037,3890.37
389149,3891.49
389259,3892.59
389363,3893.63
389472,3894.72
389581,3895.81
389690,3896.9
389793,3897.93
389895,3898.95
390003,3900.03
390113,3901.13
390218,3902.18
390320,3903.2
390426,3904.26
390534,3905.34
390639,3906.39
390740,3907.4
390835,3908.35
390933,3909.33
391037,3910.37
391143,3911.43
391246,3912.46
391350,3913.5
391459,3914.59
391573,3915.73
391679,3916.79
391785,3917.85
391897,3918.97
392009,3920.09
392116,3921.16
392219,3922.19
392327,3923.27
392436,3924.36
392542,3925.42
392642,3926.42
392744,3927.44
392848,3928.48
392953,3929.53
393056,3930.56
393156,3931.56
393259,3932.59
393364,3933.64
393472,3934.72
393574,3935.74
393676,3936.76
393783,3937.83
393891,3938.91
393995,3939.95
394097,3940.97
394206,3942.06
394313,3943.13
394419,3944.19
394521,3945.21
394627,3946.27
394734,3947.34
394837,3948.37
394938,3949.38
395043,3950.43
395152,3951.52
395259,3952.59
395364,3953.64
395469,3954.69
395577,3955.77
395685,3956.85
395789,3957.89
395891,3958.91
395998,3959.98
396105,3961.05
396211,3962.11
396312,3963.12
396416,3964.16
396524,3965.24
396632,3966.32
396734,3967.34
396833,3968.33
396938,3969.38
397046,3970.46
397153,3971.53
397255,3972.55
397357,3973.57
397462,3974.62
397567,3975.67
397671,3976.71
397776,3977.76
397886,3978.86
397997,3979.97
398104,3981.04
398209,3982.09
398316,3983.16
398425,3984.25
398534,3985.34
398639,3986.39
398741,3987.41
398848,3988.48
398955,3989.55
399059,3990.59
399159,3991.59
399265,3992.65
399374,3993.74
399484,3994.84
399588,3995.88
399691,3996.91
399798,3997.98
399905,3999.05
400011,4000.11
400113,4001.13
400215,4002.15
400319,4003.19
400423,4004.23
400524,4005.24
400625,4006.25
400733,4007.33
400842,4008.42
400948,4009.48
401050,4010.5
401156,4011.56
401263,4012.63
401364,4013.64
401464,4014.64
401569,4015.69
401674,4016.74
401776,4017.76
401875,4018.75
401975,4019.75
402081,4020.81
402188,4021.88
402294,4022.94
402396,4023.96
402501,4025.01
402610,4026.1
402720,4027.2
402825,4028.25
402925,4029.25
403030,4030.3
403135,4031.35
403239,4032.39
403339,4033.39
403436,4034.36
403538,4035.38
403641,4036.41
403742,4037.42
403846,4038.46
403954,4039.54
404063,4040.63
404169,4041.69
404271,4042.71
404376,4043.76
404483,4044.83
404588,4045.88
404688,4046.88
404792,4047.92
404901,4049.01
405009,4050.09
405111,4051.11
405207,4052.07
405308,4053.08
405412,4054.12
405516,4055.16
405616,4056.16
405717,4057.17
405823,4058.23
405931,4059.31
406036,4060.36
406137,4061.37
406240,4062.4
406348,4063.48
406455,4064.55
406561,4065.61
406663,4066.63
406771,4067.71
406880,4068.8
406988,4069.88
407090,4070.9
407195,4071.95
407305,4073.05
407414,4074.14
407518,4075.18
407620,4076.2
407727,4077.27
407836,4078.36
407942,4079.42
408044,4080.44
408148,4081.48
408254,4082.54
408362,4083.62
408466,4084.66
408566,4085.66
408667,4086.67
408775,4087.75
408883,4088.83
408986,4089.86
409087,4090.87
409194,4091.94
409302,4093.02
409407,4094.07
409510,4095.1
409614,4096.14
409723,4097.23
409835,4098.35
409941,4099.41
410046,4100.46
410155,4101.55
410264,4102.64
410368,4103.68
410466,4104.66
410567,4105.67
410673,4106.73
410781,4107.81
410884,4108.84
410984,4109.84
411089,4110.89
411196,4111.96
411301,4113.01
411400,4114.0
411502,4115.02
411608,4116.08
411715,4117.15
411819,4118.19
411924,4119.24
412031,4120.31
412137,4121.37
412236,4122.36
412332,4123.32
412431,4124.31
412536,4125.36
412641,4126.41
412743,4127.43
412844,4128.44
412951,4129.51
413059,4130.59
413164,4131.64
413266,4132.66
413375,4133.75
413483,4134.83
413590,4135.9
413695,4136.95
413803,4138.03
413914,4139.14
414020,4140.2
414121,4141.21
414220,4142.2
414325,4143.25
414434,4144.34
414541,4145.41
414644,4146.44
414743,4147.43
414849,4148.49
414956,4149.56
415060,4150.6
415162,4151.62
415269,4152.69
415380,4153.8
415488,4154.88
415593,4155.93
415700,4157.0
415809,4158.09
415919,4159.19
416024,4160.24
416127,4161.27
416233,4162.33
416341,4163.41
416449,4164.49
416553,4165.53
416657,4166.57
416763,4167.63
416871,4168.71
416975,4169.75
417075,4170.75
417178,4171.78
417283,4172.83
417390,4173.9
417489,4174.89
417589,4175.89
417694,4176.94
417802,4178.02
417910,4179.1
418017,4180.17
418119,4181.19
418222,4182.22
418326,4183.26
418428,4184.28
418529,4185.29
418633,4186.33
418740,4187.4
418849,4188.49
418953,4189.53
419053,4190.53
419158,4191.58
419268,4192.68
419375,4193.75
419478,4194.78
419579,4195.79
419685,4196.85
419792,4197.92
419897,4198.97
419999,4199.99
420104,4201.04
420213,4202.13
420323,4203.23
420430,4204.3
420533,4205.33
420635,4206.35
420735,4207.35
420839,4208.39
420938,4209.38
421035,4210.35
421139,4211.39
421246,4212.46
421353,4213.53
421458,4214.58
421561,4215.61
421669,4216.69
421777,4217.77
421880,4218.8
421979,4219.79
422082,4220.82
422185,4221.85
422289,4222.89
422392,4223.92
422492,4224.92
422594,4225.94
422700,4227.0
422805,4228.05
422907,4229.07
423016,4230.16
423128,4231.28
423239,4232.39
423347,4233.47
423453,4234.53
423563,4235.63
423673,4236.73
423783,4237.83
423888,4238.88
423996,4239.96
424106,4241.06
424216,4242.16
424322,4243.22
424424,4244.24
424528,4245.28
424633,4246.33
424737,4247.37
424838,4248.38
424938,4249.38
425043,4250.43
425151,4251.51
425259,4252.59
425365,4253.65
425465,4254.65
425570,4255.7
425678,4256.78
425783,4257.83
425884,4258.84
425983,4259.83
426089,4260.89
426198,4261.98
426305,4263.05
426407,4264.07
426514,4265.14
426623,4266.23
426731,4267.31
426835,4268.35
426937,4269.37
427043,4270.43
427149,4271.49
427252,4272.52
427353,4273.53
427459,4274.59
427566,4275.66
427673,4276.73
427777,4277.77
427879,4278.79
427988,4279.88
428097,4280.97
428204,4282.04
428305,4283.05
428409,4284.09
428517,4285.17
428626,4286.26
428732,4287.32
428835,4288.35
428940,4289.4
429040,4290.4
429138,4291.38
429236,4292.36
429345,4293.45
429456,4294.56
429564,4295.64
429668,4296.68
429773,4297.73
429879,4298.79
429986,4299.86
430090,4300.9
430195,4301.95
430303,4303.03
430414,4304.14
430523,4305.23
430624,4306.24
430727,4307.27
430833,4308.33
430940,4309.4
431045,4310.45
431150,4311.5
431255,4312.55
431357,4313.57
431451,4314.51
431534,4315.34
431611,4316.11
431685,4316.85
431756,4317.56
431828,4318.28
431907,4319.07
431990,4319.9
432069,4320.69
432145,4321.45
432222,4322.22
432298,4322.98
432375,4323.75
432449,4324.49
432523,4325.23
432595,4325.95
432670,4326.7
432746,4327.46
432825,4328.25
432904,4329.04
432984,4329.84
433067,4330.67
433155,4331.55
433246,4332.46
433333,4333.33
433425,4334.25
433533,4335.33
433640,4336.4
433749,4337.49
433856,4338.56
433961,4339.61
434069,4340.69
434175,4341.75
434279,4342.79
434379,4343.79
434472,4344.72
434569,4345.69
434674,4346.74
434785,4347.85
434889,4348.89
434989,4349.89
435096,4350.96
435209,4352.09
435319,4353.19
435425,4354.25
435527,4355.27
435637,4356.37
435748,4357.48
435857,4358.57
435962,4359.62
436067,4360.67
436176,4361.76
436286,4362.86
436393,4363.93
436494,4364.94
436594,4365.94
436704,4367.04
436816,4368.16
436920,4369.2
437018,4370.18
437120,4371.2
437228,4372.28
437335,4373.35
437436,4374.36
437537,4375.37
437644,4376.44
437747,4377.47
437844,4378.44
437943,4379.43
438037,4380.37
438127,4381.27
438208,4382.08
438288,4382.88
438377,4383.77
438478,4384.78
438580,4385.8
438668,4386.68
438750,4387.5
438840,4388.4
438927,4389.27
439009,4390.09
439086,4390.86
439165,4391.65
439248,4392.48
439356,4393.56
439473,4394.73
439591,4395.91
439710,4397.1
439824,4398.24
439944,4399.44
440061,4400.61
440176,4401.76
440289,4402.89
440398,4403.98
440508,4405.08
440618,4406.18
440729,4407.29
440836,4408.36
440939,4409.39
441038,4410.38
441146,4411.46
441256,4412.56
441366,4413.66
441474,4414.74
441578,4415.78
441687,4416.87
441801,4418.01
441916,4419.16
442028,4420.28
442136,4421.36
442238,4422.38
442346,4423.46
442455,4424.55
442566,4425.66
442674,4426.74
442775,4427.75
442877,4428.77
442981,4429.81
443086,4430.86
443189,4431.89
443290,4432.9
443399,4433.99
443510,4435.1
443619,4436.19
443721,4437.21
443827,4438.27
443934,4439.34
444041,4440.41
444145,4441.45
444250,4442.5
444358,4443.58
444468,4444.68
444574,4445.74
444676,4446.76
444784,4447.84
444897,4448.97
445008,4450.08
445112,4451.12
445220,4452.2
445334,4453.34
445445,4454.45
445556,4455.56
445663,4456.63
445773,4457.73
445886,4458.86
445997,4459.97
446105,4461.05
446209,4462.09
446318,4463.18
446428,4464.28
446539,4465.39
446644,4466.44
446747,4467.47
446853,4468.53
446964,4469.64
447075,4470.75
447180,4471.8
447282,4472.82
447383,4473.83
447486,4474.86
447587,4475.87
447683,4476.83
447784,4477.84
447888,4478.88
447993,4479.93
448097,4480.97
448200,4482.0
448306,4483.06
448415,4484.15
448525,4485.25
448631,4486.31
448734,4487.34
448844,4488.44
448953,4489.53
449061,4490.61
449166,4491.66
449270,4492.7
449378,4493.78
449487,4494.87
449594,4495.94
449695,4496.95
449798,4497.98
449905,4499.05
450011,4500.11
450114,4501.14
450214,4502.14
450317,4503.17
450422,4504.22
450523,4505.23
450621,4506.21
450719,4507.19
450820,4508.2
450923,4509.23
451022,4510.22
451120,4511.2
451223,4512.23
451328,4513.28
451434,4514.34
451537,4515.37
451645,4516.45
451757,4517.57
451868,4518.68
451974,4519.74
452083,4520.83
452195,4521.95
452305,4523.05
452412,4524.12
452518,4525.18
452629,4526.29
452741,4527.41
452849,4528.49
452954,4529.54
453063,4530.63
453170,4531.7
453274,4532.74
453373,4533.73
453476,4534.76
453582,4535.82
453688,4536.88
453787,4537.87
453885,4538.85
453987,4539.87
454091,4540.91
454191,4541.91
454291,4542.91
454393,4543.93
454496,4544.96
454598,4545.98
454702,4547.02
454811,4548.11
454919,4549.19
455023,4550.23
455123,4551.23
455231,4552.31
455339,4553.39
455443,4554.43
455537,4555.37
455630,4556.3
455724,4557.24
455832,4558.32
455942,4559.42
456050,4560.5
456162,4561.62
456274,4562.74
456385,4563.85
456489,4564.89
456596,4565.96
456703,4567.03
456810,4568.1
456912,4569.12
457012,4570.12
457117,4571.17
457221,4572.21
457327,4573.27
457426,4574.26
457528,4575.28
457634,4576.34
457740,4577.4
457844,4578.44
457942,4579.42
458048,4580.48
458157,4581.57
458265,4582.65
458368,4583.68
458475,4584.75
458586,4585.86
458697,4586.97
458808,4588.08
458915,4589.15
459023,4590.23
459135,4591.35
459246,4592.46
459353,4593.53
459457,4594.57
459565,4595.65
459673,4596.73
459781,4597.81
459885,4598.85
459991,4599.91
460097,4600.97
460203,4602.03
460304,4603.04
460404,4604.04
460509,4605.09
460615,4606.15
460718,4607.18
460818,4608.18
460922,4609.22
461029,4610.29
461137,4611.37
461242,4612.42
461345,4613.45
461451,4614.51
461558,4615.58
461663,4616.63
461763,4617.63
461867,4618.67
461973,4619.73
462077,4620.77
462179,4621.79
462285,4622.85
462388,4623.88
462487,4624.87
462584,4625.84
462688,4626.88
462793,4627.93
462900,4629.0
463004,4630.04
463107,4631.07
463218,4632.18
463327,4633.27
463435,4634.35
463538,4635.38
463642,4636.42
463752,4637.52
463862,4638.62
463966,4639.66
464072,4640.72
464182,4641.82
464291,4642.91
464398,4643.98
464502,4645.02
464607,4646.07
464717,4647.17
464828,4648.28
464934,4649.34
465035,4650.35
465141,4651.41
465249,4652.49
465357,4653.57
465462,4654.62
465564,4655.64
465671,4656.71
465777,4657.77
465881,4658.81
465983,4659.83
466082,4660.82
466189,4661.89
466298,4662.98
466404,4664.04
466508,4665.08
466614,4666.14
466727,4667.27
466837,4668.37
466944,4669.44
467048,4670.48
467157,4671.57
467265,4672.65
467371,4673.71
467473,4674.73
467580,4675.8
467687,4676.87
467794,4677.94
467897,4678.97
467996,4679.96
468099,4680.99
468203,4682.03
468303,4683.03
468401,4684.01
468504,4685.04
468608,4686.08
468710,4687.1
468810,4688.1
468914,4689.14
469019,4690.19
469123,4691.23
469223,4692.23
469325,4693.25
469431,4694.31
469541,4695.41
469647,4696.47
469752,4697.52
469862,4698.62
469973,4699.73
470080,4700.8
470186,4701.86
470298,4702.98
470408,4704.08
470513,4705.13
470614,4706.14
470719,4707.19
470828,4708.28
470936,4709.36
471040,4710.4
471145,4711.45
471252,4712.52
471360,4713.6
471466,4714.66
471566,4715.66
471667,4716.67
471769,4717.69
471874,4718.74
471977,4719.77
472076,4720.76
472181,4721.81
472288,4722.88
472392,4723.92
472494,4724.94
472595,4725.95
472700,4727.0
472807,4728.07
472911,4729.11
473012,4730.12
473116,4731.16
473223,4732.23
473329,4733.29
473431,4734.31
473533,4735.33
473638,4736.38
473745,4737.45
473851,4738.51
473955,4739.55
474060,4740.6
474168,4741.68
474275,4742.75
474379,4743.79
474477,4744.77
474576,4745.76
474679,4746.79
474786,4747.86
474891,4748.91
474993,4749.93
475097,4750.97
475202,4752.02
475305,4753.05
475404,4754.04
475509,4755.09
475617,4756.17
475724,4757.24
475827,4758.27
475928,4759.28
476034,4760.34
476143,4761.43
476247,4762.47
476350,4763.5
476457,4764.57
476565,4765.65
476671,4766.71
476772,4767.72
476875,4768.75
476982,4769.82
477089,4770.89
477193,4771.93
477297,4772.97
477405,4774.05
477512,4775.12
477615,4776.15
477718,4777.18
477824,4778.24
477929,4779.29
478030,4780.3
478130,4781.3
478234,4782.34
478340,4783.4
478447,4784.47
478552,4785.52
478654,4786.54
478759,4787.59
478866,4788.66
478970,4789.7
479072,4790.72
479177,4791.77
479283,4792.83
479387,4793.87
479488,4794.88
479589,4795.89
479696,4796.96
479804,4798.04
479909,4799.09
480010,4800.1
480114,4801.14
480220,4802.2
480325,4803.25
480427,4804.27
480532,4805.32
480638,4806.38
480745,4807.45
480848,4808.48
480948,4809.48
481051,4810.51
481155,4811.55
481258,4812.58
481360,4813.6
481466,4814.66
481573,4815.73
481677,4816.77
481777,4817.77
481883,4818.83
481988,4819.88
482093,4820.93
482194,4821.94
482296,4822.96
482404,4824.04
482510,4825.1
482614,4826.14
482714,4827.14
482822,4828.22
482929,4829.29
483036,4830.36
483140,4831.4
483244,4832.44
483348,4833.48
483453,4834.53
483553,4835.53
483653,4836.53
483760,4837.6
483866,4838.66
483970,4839.7
484070,4840.7
484172,4841.72
484276,4842.76
484378,4843.78
484475,4844.75
484575,4845.75
484679,4846.79
484784,4847.84
484885,4848.85
484989,4849.89
485097,4850.97
485203,4852.03
485304,4853.04
485406,4854.06
485513,4855.13
485620,4856.2
485726,4857.26
485829,4858.29
485937,4859.37
486046,4860.46
486154,4861.54
486257,4862.57
486360,4863.6
486464,4864.64
486570,4865.7
486676,4866.76
486777,4867.77
486877,4868.77
486976,4869.76
487076,4870.76
487174,4871.74
487272,4872.72
487382,4873.82
487493,4874.93
487603,4876.03
487707,4877.07
487816,4878.16
487927,4879.27
488037,4880.37
488140,4881.4
488241,4882.41
488349,4883.49
488458,4884.58
488563,4885.63
488667,4886.67
488771,4887.71
488877,4888.77
488980,4889.8
489079,4890.79
489182,4891.82
489289,4892.89
489396,4893.96
489502,4895.02
489606,4896.06
489714,4897.14
489824,4898.24
489931,4899.31
490032,4900.32
490136,4901.36
490243,4902.43
490350,4903.5
490452,4904.52
490556,4905.56
490665,4906.65
490773,4907.73
490876,4908.76
490976,4909.76
491079,4910.79
491185,4911.85
491290,4912.9
491388,4913.88
491485,4914.85
491584,4915.84
491688,4916.88
491788,4917.88
491885,4918.85
491990,4919.9
492095,4920.95
492200,4922.0
492303,4923.03
492408,4924.08
492520,4925.2
492630,4926.3
492736,4927.36
492843,4928.43
492953,4929.53
493061,4930.61
493166,4931.66
493265,4932.65
493369,4933.69
493473,4934.73
493575,4935.75
493672,4936.72
493769,4937.69
493872,4938.72
493978,4939.78
494082,4940.82
494183,4941.83
494285,4942.85
494390,4943.9
494497,4944.97
494602,4946.02
494702,4947.02
494807,4948.07
494919,4949.19
495030,4950.3
495137,4951.37
495242,4952.42
495351,4953.51
495462,4954.62
495571,4955.71
495675,4956.75
495781,4957.81
495891,4958.91
496002,4960.02
496109,4961.09
496212,4962.12
496319,4963.19
496426,4964.26
496533,4965.33
496640,4966.4
496741,4967.41
496844,4968.44
496949,4969.49
497056,4970.56
497161,4971.61
497261,4972.61
497363,4973.63
497469,4974.69
497576,4975.76
497679,4976.79
497780,4977.8
497884,4978.84
497990,4979.9
498091,4980.91
498191,4981.91
498297,4982.97
498404,4984.04
498509,4985.09
498612,4986.12
498713,4987.13
498820,4988.2
498929,4989.29
499039,4990.39
499143,4991.43
499247,4992.47
499357,4993.57
499468,4994.68
499576,4995.76
499680,4996.8
499786,4997.86
499895,4998.95
500002,5000.02
500105,5001.05
500209,5002.09
500310,5003.1
500411,5004.11
500512,5005.12
500608,5006.08
500709,5007.09
500817,5008.17
500927,5009.27
501035,5010.35
501142,5011.42
501255,5012.55
501369,5013.69
501479,5014.79
501584,5015.84
501691,5016.91
501799,5017.99
501906,5019.06
502007,5020.07
502111,5021.11
502218,5022.18
502324,5023.24
502426,5024.26
502530,5025.3
502635,5026.35
502741,5027.41
502846,5028.46
502949,5029.49
503054,5030.54
503163,5031.63
503272,5032.72
503380,5033.8
503482,5034.82
503589,5035.89
503698,5036.98
503806,5038.06
503909,5039.09
504013,5040.13
504121,5041.21
504227,5042.27
504328,5043.28
504425,5044.25
504522,5045.22
504624,5046.24
504729,5047.29
504834,5048.34
504933,5049.33
505035,5050.35
505138,5051.38
505245,5052.45
505348,5053.48
505446,5054.46
505551,5055.51
505658,5056.58
505761,5057.61
505864,5058.64
505971,5059.71
506078,5060.78
506182,5061.82
506285,5062.85
506391,5063.91
506498,5064.98
506604,5066.04
506706,5067.06
506811,5068.11
506918,5069.18
507025,5070.25
507128,5071.28
507231,5072.31
507336,5073.36
507441,5074.41
507544,5075.44
507644,5076.44
507745,5077.45
507852,5078.52
507960,5079.6
508067,5080.67
508171,5081.71
508278,5082.78
508387,5083.87
508490,5084.9
508590,5085.9
508693,5086.93
508799,5087.99
508903,5089.03
509004,5090.04
509103,5091.03
509206,5092.06
509311,5093.11
509415,5094.15
509515,5095.15
509617,5096.17
509722,5097.22
509828,5098.28
509930,5099.3
510028,5100.28
510130,5101.3
510235,5102.35
510337,5103.37
510437,5104.37
510538,5105.38
510644,5106.44
510750,5107.5
510852,5108.52
510956,5109.56
511063,5110.63
511169,5111.69
511273,5112.73
511374,5113.74
511477,5114.77
511581,5115.81
511689,5116.89
511794,5117.94
511894,5118.94
511999,5119.99
512107,5121.07
512210,5122.1
512307,5123.07
512408,5124.08
512513,5125.13
512617,5126.17
512721,5127.21
512824,5128.24
512930,5129.3
513038,5130.38
513144,5131.44
513247,5132.47
513355,5133.55
513461,5134.61
513568,5135.68
513672,5136.72
513773,5137.73
513879,5138.79
513985,5139.85
514093,5140.93
514200,5142.0
514305,5143.05
514413,5144.13
514522,5145.22
514628,5146.28
514733,5147.33
514839,5148.39
514945,5149.45
515049,5150.49
515147,5151.47
515248,5152.48
515351,5153.51
515454,5154.54
515556,5155.56
515652,5156.52
515753,5157.53
515858,5158.58
515961,5159.61
516061,5160.61
516160,5161.6
516260,5162.6
516361,5163.61
516460,5164.6
516557,5165.57
516659,5166.59
516769,5167.69
516876,5168.76
516980,5169.8
517086,5170.86
517194,5171.94
517302,5173.02
517406,5174.06
517510,5175.1
517618,5176.18
517725,5177.25
517831,5178.31
517933,5179.33
518037,5180.37
518143,5181.43
518248,5182.48
518350,5183.5
518448,5184.48
518550,5185.5
518656,5186.56
518762,5187.62
518861,5188.61
518962,5189.62
519068,5190.68
519175,5191.75
519280,5192.8
519380,5193.8
519483,5194.83
519590,5195.9
519698,5196.98
519800,5198.0
519901,5199.01
520007,5200.07
520117,5201.17
520225,5202.25
520328,5203.28
520433,5204.33
520540,5205.4
520648,5206.48
520750,5207.5
520853,5208.53
520957,5209.57
521061,5210.61
521162,5211.62
521262,5212.62
521365,5213.65
521469,5214.69
521568,5215.68
521666,5216.66
521768,5217.68
521869,5218.69
521971,5219.71
522070,5220.7
522171,5221.71
522275,5222.75
522382,5223.82
522483,5224.83
522580,5225.8
522679,5226.79
522781,5227.81
522888,5228.88
522994,5229.94
523096,5230.96
523204,5232.04
523317,5233.17
523427,5234.27
523533,5235.33
523638,5236.38
523745,5237.45
523853,5238.53
523960,5239.6
524063,5240.63
524167,5241.67
524277,5242.77
524389,5243.89
524495,5244.95
524597,5245.97
524695,5246.95
524799,5247.99
524905,5249.05
525009,5250.09
525109,5251.09
525212,5252.12
525320,5253.2
525428,5254.28
525530,5255.3
525637,5256.37
525745,5257.45
525855,5258.55
525960,5259.6
526064,5260.64
526173,5261.73
526284,5262.84
526390,5263.9
526493,5264.93
526598,5265.98
526705,5267.05
526812,5268.12
526916,5269.16
527014,5270.14
527117,5271.17
527224,5272.24
527330,5273.3
527433,5274.33
527534,5275.34
527639,5276.39
527745,5277.45
527849,5278.49
527949,5279.49
528050,5280.5
528158,5281.58
528265,5282.65
528367,5283.67
528471,5284.71
528578,5285.78
528684,5286.84
528786,5287.86
528887,5288.87
528994,5289.94
529102,5291.02
529209,5292.09
529309,5293.09
529410,5294.1
529513,5295.13
529615,5296.15
529719,5297.19
529819,5298.19
529920,5299.2
530023,5300.23
530131,5301.31
530235,5302.35
530336,5303.36
530441,5304.41
530549,5305.49
530657,5306.57
530759,5307.59
530860,5308.6
530966,5309.66
531073,5310.73
531178,5311.78
531279,5312.79
531378,5313.78
531481,5314.81
531585,5315.85
531688,5316.88
531786,5317.86
531890,5318.9
531996,5319.96
532101,5321.01
532203,5322.03
532306,5323.06
532414,5324.14
532523,5325.23
532630,5326.3
532733,5327.33
532838,5328.38
532948,5329.48
533057,5330.57
533160,5331.6
533264,5332.64
533371,5333.71
533479,5334.79
533584,5335.84
533684,5336.84
533788,5337.88
533897,5338.97
534003,5340.03
534104,5341.04
534206,5342.06
534311,5343.11
534417,5344.17
534520,5345.2
534619,5346.19
534724,5347.24
534830,5348.3
534935,5349.35
535035,5350.35
535138,5351.38
535245,5352.45
535353,5353.53
535457,5354.57
535561,5355.61
535669,5356.69
535777,5357.77
535886,5358.86
535989,5359.89
536094,5360.94
536203,5362.03
536311,5363.11
536415,5364.15
536517,5365.17
536624,5366.24
536733,5367.33
536839,5368.39
536941,5369.41
537049,5370.49
537158,5371.58
537264,5372.64
537367,5373.67
537474,5374.74
537581,5375.81
537683,5376.83
537782,5377.82
537887,5378.87
537995,5379.95
538099,5380.99
538198,5381.98
538301,5383.01
538408,5384.08
538513,5385.13
538615,5386.15
538711,5387.11
538806,5388.06
538904,5389.04
539007,5390.07
539109,5391.09
539209,5392.09
539312,5393.12
539418,5394.18
539524,5395.24
539626,5396.26
539725,5397.25
539828,5398.28
539934,5399.34
540039,5400.39
540139,5401.39
540242,5402.42
540348,5403.48
540455,5404.55
540558,5405.58
540662,5406.62
540768,5407.68
540874,5408.74
540980,5409.8
541081,5410.81
541185,5411.85
541292,5412.92
541400,5414.0
541504,5415.04
541605,5416.05
541706,5417.06
541810,5418.1
541917,5419.17
542017,5420.17
542117,5421.17
542219,5422.19
542326,5423.26
542430,5424.3
542530,5425.3
542634,5426.34
542741,5427.41
542846,5428.46
542948,5429.48
543051,5430.51
543158,5431.58
543263,5432.63
543364,5433.64
543468,5434.68
543576,5435.76
543687,5436.87
543791,5437.91
543890,5438.9
543980,5439.8
544070,5440.7
544156,5441.56
544237,5442.37
544314,5443.14
544389,5443.89
544460,5444.6
544531,5445.31
544601,5446.01
544671,5446.71
544741,5447.41
544811,5448.11
544881,5448.81
544950,5449.5
545019,5450.19
545089,5450.89
545157,5451.57
545226,5452.26
545294,5452.94
545362,5453.62
545430,5454.3
545498,5454.98
545566,5455.66
545635,5456.35
545706,5457.06
545781,5457.81
545861,5458.61
545948,5459.48
546042,5460.42
546141,5461.41
546243,5462.43
546345,5463.45
546444,5464.44
546544,5465.44
546645,5466.45
546745,5467.45
546843,5468.43
546934,5469.34
547033,5470.33
547143,5471.43
547253,5472.53
547358,5473.58
547457,5474.57
547561,5475.61
547670,5476.7
547780,5477.8
547883,5478.83
547990,5479.9
548101,5481.01
548213,5482.13
548321,5483.21
548424,5484.24
548536,5485.36
548652,5486.52
548764,5487.64
548872,5488.72
548979,5489.79
549091,5490.91
549191,5491.91
549283,5492.83
549367,5493.67
549445,5494.45
549526,5495.26
549613,5496.13
549702,5497.02
549786,5497.86
549867,5498.67
549951,5499.51
550036,5500.36
550119,5501.19
550199,5501.99
550278,5502.78
550357,5503.57
550435,5504.35
550521,5505.21
550628,5506.28
550729,5507.29
550829,5508.29
550932,5509.32
551033,5510.33
551137,5511.37
551249,5512.49
551364,5513.64
551477,5514.77
551590,5515.9
551699,5516.99
551810,5518.1
551922,5519.22
552031,5520.31
552141,5521.41
552244,5522.44
552349,5523.49
552462,5524.62
552572,5525.72
552683,5526.83
552785,5527.85
552886,5528.86
552993,5529.93
553091,5530.91
553184,5531.84
553267,5532.67
553345,5533.45
553421,5534.21
553496,5534.96
553571,5535.71
553645,5536.45
553719,5537.19
553795,5537.95
553877,5538.77
553979,5539.79
554082,5540.82
554182,5541.82
554291,5542.91
554407,5544.07
554522,5545.22
554633,5546.33
554747,5547.47
554865,5548.65
554982,5549.82
555094,5550.94
555198,5551.98
555302,5553.02
555413,5554.13
555522,5555.22
555630,5556.3
555737,5557.37
555840,5558.4
555951,5559.51
556065,5560.65
556176,5561.76
556282,5562.82
556386,5563.86
556497,5564.97
556611,5566.11
556723,5567.23
556827,5568.27
556933,5569.33
557043,5570.43
557155,5571.55
557260,5572.6
557355,5573.55
557452,5574.52
557546,5575.46
557642,5576.42
557746,5577.46
557851,5578.51
557951,5579.51
558063,5580.63
558178,5581.78
558287,5582.87
558391,5583.91
558500,5585.0
558613,5586.13
558725,5587.25
558831,5588.31
558937,5589.37
559045,5590.45
559156,5591.56
559262,5592.62
559363,5593.63
559467,5594.67
559575,5595.75
559684,5596.84
559790,5597.9
559888,5598.88
559977,5599.77
560060,5600.6
560138,5601.38
560213,5602.13
560287,5602.87
560359,5603.59
560432,5604.32
560508,5605.08
560588,5605.88
560670,5606.7
560751,5607.51
560828,5608.28
560905,5609.05
560983,5609.83
561072,5610.72
561186,5611.86
561299,5612.99
561406,5614.06
561522,5615.22
561639,5616.39
561757,5617.57
561867,5618.67
561975,5619.75
562087,5620.87
562194,5621.94
562300,5623.0
562402,5624.02
562512,5625.12
562624,5626.24
562735,5627.35
562845,5628.45
562949,5629.49
563053,5630.53
563165,5631.65
563274,5632.74
563379,5633.79
563476,5634.76
563570,5635.7
563674,5636.74
563786,5637.86
563893,5638.93
563993,5639.93
564094,5640.94
564191,5641.91
564291,5642.91
564391,5643.91
564496,5644.96
564605,5646.05
564715,5647.15
564820,5648.2
564925,5649.25
565033,5650.33
565140,5651.4
565242,5652.42
565344,5653.44
565448,5654.48
565555,5655.55
565654,5656.54
565755,5657.55
565862,5658.62
565971,5659.71
566077,5660.77
566176,5661.76
566272,5662.72
566360,5663.6
566439,5664.39
566513,5665.13
566585,5665.85
566656,5666.56
566730,5667.3
566808,5668.08
566891,5668.91
566972,5669.72
567053,5670.53
567134,5671.34
567212,5672.12
567289,5672.89
567367,5673.67
567446,5674.46
567532,5675.32
567627,5676.27
567716,5677.16
567802,5678.02
567910,5679.1
568023,5680.23
568136,5681.36
568246,5682.46
568361,5683.61
568480,5684.8
568598,5685.98
568713,5687.13
568824,5688.24
568928,5689.28
569038,5690.38
569149,5691.49
569260,5692.6
569365,5693.65
569469,5694.69
569574,5695.74
569671,5696.71
569763,5697.63
569848,5698.48
569927,5699.27
570003,5700.03
570078,5700.78
570155,5701.55
570240,5702.4
570348,5703.48
570461,5704.61
570570,5705.7
570673,5706.73
570780,5707.8
570893,5708.93
571007,5710.07
571115,5711.15
571218,5712.18
571320,5713.2
571428,5714.28
571535,5715.35
571637,5716.37
571733,5717.33
571839,5718.39
571949,5719.49
572059,5720.59
572164,5721.64
572264,5722.64
572366,5723.66
572471,5724.71
572578,5725.78
572679,5726.79
572780,5727.8
572887,5728.87
572997,5729.97
573100,5731.0
573204,5732.04
573314,5733.14
573427,5734.27
573532,5735.32
573631,5736.31
573732,5737.32
573842,5738.42
573953,5739.53
574052,5740.52
574135,5741.35
574211,5742.11
574286,5742.86
574358,5743.58
574432,5744.32
574508,5745.08
574587,5745.87
574673,5746.73
574765,5747.65
574848,5748.48
574926,5749.26
575004,5750.04
575084,5750.84
575163,5751.63
575250,5752.5
575363,5753.63
575475,5754.75
575578,5755.78
575681,5756.81
575786,5757.86
575888,5758.88
575983,5759.83
576081,5760.81
576185,5761.85
576296,5762.96
576405,5764.05
576508,5765.08
576616,5766.16
576726,5767.26
576835,5768.35
576939,5769.39
577042,5770.42
577151,5771.51
577262,5772.62
577372,5773.72
577480,5774.8
577583,5775.83
577690,5776.9
577801,5778.01
577913,5779.13
578020,5780.2
578125,5781.25
578224,5782.24
578318,5783.18
578423,5784.23
578533,5785.33
578642,5786.42
578749,5787.49
578851,5788.51
578956,5789.56
579067,5790.67
579178,5791.78
579288,5792.88
579394,5793.94
579499,5794.99
579609,5796.09
579722,5797.22
579834,5798.34
579941,5799.41
580042,5800.42
580149,5801.49
580253,5802.53
580362,5803.62
580470,5804.7
580573,5805.73
580678,5806.78
580794,5807.94
580909,5809.09
581017,5810.17
581123,5811.23
581235,5812.35
581349,5813.49
581459,5814.59
581562,5815.62
581667,5816.67
581779,5817.79
581891,5818.91
581997,5819.97
582101,5821.01
582199,5821.99
582298,5822.98
582399,5823.99
582502,5825.02
582604,5826.04
582701,5827.01
582802,5828.02
582909,5829.09
583019,5830.19
583125,5831.25
583230,5832.3
583338,5833.38
583448,5834.48
583553,5835.53
583655,5836.55
583759,5837.59
583867,5838.67
583976,5839.76
584083,5840.83
584185,5841.85
584287,5842.87
584397,5843.97
584506,5845.06
584616,5846.16
584720,5847.2
584818,5848.18
584919,5849.19
585025,5850.25
585133,5851.33
585234,5852.34
585331,5853.31
585416,5854.16
585493,5854.93
585568,5855.68
585641,5856.41
585716,5857.16
585793,5857.93
585874,5858.74
585959,5859.59
586044,5860.44
586128,5861.28
586222,5862.22
586335,5863.35
586438,5864.38
586544,5865.44
586658,5866.58
586773,5867.73
586887,5868.87
586991,5869.91
587080,5870.8
587163,5871.63
587240,5872.4
587316,5873.16
587396,5873.96
587485,5874.85
587598,5875.98
587718,5877.18
587839,5878.39
587956,5879.56
588070,5880.7
588188,5881.88
588305,5883.05
588417,5884.17
588525,5885.25
588640,5886.4
588755,5887.55
588869,5888.69
588980,5889.8
589083,5890.83
589185,5891.85
589283,5892.83
589391,5893.91
589500,5895.0
589602,5896.02
589700,5897.0
589811,5898.11
589929,5899.29
590039,5900.39
590143,5901.43
590241,5902.41
590345,5903.45
590458,5904.58
590567,5905.67
590676,5906.76
590778,5907.78
590873,5908.73
590965,5909.65
591053,5910.53
591138,5911.38
591218,5912.18
591294,5912.94
591369,5913.69
591443,5914.43
591523,5915.23
591614,5916.14
591730,5917.3
591850,5918.5
591970,5919.7
592086,5920.86
592202,5922.02
592325,5923.25
592444,5924.44
592558,5925.58
592668,5926.68
592766,5927.66
592857,5928.57
592961,5929.61
593070,5930.7
593182,5931.82
593290,5932.9
593395,5933.95
593503,5935.03
593612,5936.12
593722,5937.22
593831,5938.31
593938,5939.38
594041,5940.41
594149,5941.49
594258,5942.58
594365,5943.65
594468,5944.68
594566,5945.66
594661,5946.61
594767,5947.67
594875,5948.75
594983,5949.83
595092,5950.92
595198,5951.98
595302,5953.02
595410,5954.1
595517,5955.17
595618,5956.18
595712,5957.12
595805,5958.05
595897,5958.97
596001,5960.01
596105,5961.05
596204,5962.04
596303,5963.03
596417,5964.17
596529,5965.29
596642,5966.42
596753,5967.53
596855,5968.55
596953,5969.53
597059,5970.59
597167,5971.67
597271,5972.71
597371,5973.71
597483,5974.83
597596,5975.96
597709,5977.09
597814,5978.14
597914,5979.14
598022,5980.22
598132,5981.32
598241,5982.41
598344,5983.44
598443,5984.43
598548,5985.48
598658,5986.58
598768,5987.68
598873,5988.73
598974,5989.74
599080,5990.8
599185,5991.85
599283,5992.83
599378,5993.78
599473,5994.73
599565,5995.65
599663,5996.63
599764,5997.64
599865,5998.65
599964,5999.64
600059,6000.59
600149,6001.49
600247,6002.47
600351,6003.51
600456,6004.56
600560,6005.6
600658,6006.58
600758,6007.58
600861,6008.61
600968,6009.68
601071,6010.71
601169,6011.69
601268,6012.68
601373,6013.73
601482,6014.82
601589,6015.89
601689,6016.89
601783,6017.83
601885,6018.85
601993,6019.93
602098,6020.98
602196,6021.96
602288,6022.88
602379,6023.79
602485,6024.85
602594,6025.94
602704,6027.04
602811,6028.11
602911,6029.11
603014,6030.14
603121,6031.21
603229,6032.29
603333,6033.33
603429,6034.29
603533,6035.33
603641,6036.41
603750,6037.5
603858,6038.58
603961,6039.61
604057,6040.57
604159,6041.59
604266,6042.66
604374,6043.74
604477,6044.77
604571,6045.71
604659,6046.59
604752,6047.52
604854,6048.54
604959,6049.59
605058,6050.58
605153,6051.53
605257,6052.57
605367,6053.67
605477,6054.77
605584,6055.84
605685,6056.85
605790,6057.9
605897,6058.97
606003,6060.03
606111,6061.11
606211,6062.11
606310,6063.1
606415,6064.15
606520,6065.2
606623,6066.23
606722,6067.22
606814,6068.14
606914,6069.14
607020,6070.2
607124,6071.24
607221,6072.21
607310,6073.1
607396,6073.96
607484,6074.84
607579,6075.79
607681,6076.81
607781,6077.81
607879,6078.79
607979,6079.79
608085,6080.85
608191,6081.91
608292,6082.92
608389,6083.89
608485,6084.85
608582,6085.82
608682,6086.82
608780,6087.8
608873,6088.73
608971,6089.71
609068,6090.68
609172,6091.72
609277,6092.77
609375,6093.75
609469,6094.69
609567,6095.67
609664,6096.64
609765,6097.65
609861,6098.61
609953,6099.53
610050,6100.5
610144,6101.44
610232,6102.32
610314,6103.14
610392,6103.92
610467,6104.67
610540,6105.4
610613,6106.13
610690,6106.9
610783,6107.83
610889,6108.89
610998,6109.98
611104,6111.04
611210,6112.1
611318,6113.18
611429,6114.29
611537,6115.37
611640,6116.4
611750,6117.5
611865,6118.65
611977,6119.77
612085,6120.85
612186,6121.86
612287,6122.87
612386,6123.86
612477,6124.77
612567,6125.67
612660,6126.6
612752,6127.52
612853,6128.53
612964,6129.64
613076,6130.76
613186,6131.86
613294,6132.94
613397,6133.97
613505,6135.05
613614,6136.14
613717,6137.17
613812,6138.12
613897,6138.97
613979,6139.79
614059,6140.59
614144,6141.44
614255,6142.55
614361,6143.61
614466,6144.66
614580,6145.8
614695,6146.95
614802,6148.02
614902,6149.02
615002,6150.02
615109,6151.09
615212,6152.12
615300,6153.0
615382,6153.82
615461,6154.61
615537,6155.37
615610,6156.1
615683,6156.83
615759,6157.59
615839,6158.39
615932,6159.32
616047,6160.47
616159,6161.59
616266,6162.66
616378,6163.78
616491,6164.91
616606,6166.06
616718,6167.18
616825,6168.25
616931,6169.31
617041,6170.41
617148,6171.48
617251,6172.51
617350,6173.5
617457,6174.57
617566,6175.66
617674,6176.74
617771,6177.71
617857,6178.57
617939,6179.39
618023,6180.23
618132,6181.32
618244,6182.44
618354,6183.54
618458,6184.58
618563,6185.63
618668,6186.68
618777,6187.77
618885,6188.85
618990,6189.9
619091,6190.91
619198,6191.98
619299,6192.99
619401,6194.01
619501,6195.01
619602,6196.02
619702,6197.02
619805,6198.05
619908,6199.08
620007,6200.07
620108,6201.08
620212,6202.12
620318,6203.18
620423,6204.23
620522,6205.22
620618,6206.18
620713,6207.13
620811,6208.11
620911,6209.11
621008,6210.08
621108,6211.08
621215,6212.15
621322,6213.22
621428,6214.28
621528,6215.28
621628,6216.28
621729,6217.29
621833,6218.33
621937,6219.37
622039,6220.39
622138,6221.38
622235,6222.35
622325,6223.25
622412,6224.12
622498,6224.98
622587,6225.87
622689,6226.89
622797,6227.97
622904,6229.04
623005,6230.05
623106,6231.06
623214,6232.14
623319,6233.19
623423,6234.23
623524,6235.24
623619,6236.19
623713,6237.13
623816,6238.16
623925,6239.25
624033,6240.33
624138,6241.38
624237,6242.37
624338,6243.38
624444,6244.44
624552,6245.52
624658,6246.58
624755,6247.55
624842,6248.42
624925,6249.25
625005,6250.05
625088,6250.88
625184,6251.84
625279,6252.79
625370,6253.7
625469,6254.69
625577,6255.77
625680,6256.8
625790,6257.9
625907,6259.07
626025,6260.25
626136,6261.36
626239,6262.39
626344,6263.44
626452,6264.52
626559,6265.59
626663,6266.63
626762,6267.62
626855,6268.55
626952,6269.52
627053,6270.53
627155,6271.55
627253,6272.53
627344,6273.44
627435,6274.35
627527,6275.27
627619,6276.19
627712,6277.12
627816,6278.16
627930,6279.3
628039,6280.39
628148,6281.48
628252,6282.52
628355,6283.55
628461,6284.61
628568,6285.68
628673,6286.73
628770,6287.7
628860,6288.6
628945,6289.45
629041,6290.41
629151,6291.51
629263,6292.63
629369,6293.69
629473,6294.73
629579,6295.79
629685,6296.85
629789,6297.89
629893,6298.93
629991,6299.91
630090,6300.9
630191,6301.91
630294,6302.94
630397,6303.97
630496,6304.96
630590,6305.9
630688,6306.88
630791,6307.91
630897,6308.97
630995,6309.95
631095,6310.95
631198,6311.98
631302,6313.02
631403,6314.03
631497,6314.97
631592,6315.92
631693,6316.93
631801,6318.01
631905,6319.05
632001,6320.01
632099,6320.99
632198,6321.98
632300,6323.0
632397,6323.97
632494,6324.94
632596,6325.96
632705,6327.05
632810,6328.1
632913,6329.13
633017,6330.17
633124,6331.24
633222,6332.22
633319,6333.19
633419,6334.19
633529,6335.29
633645,6336.45
633766,6337.66
633882,6338.82
633998,6339.98
634116,6341.16
634231,6342.31
634347,6343.47
634463,6344.63
634577,6345.77
634688,6346.88
634802,6348.02
634917,6349.17
635025,6350.25
635125,6351.25
635215,6352.15
635311,6353.11
635415,6354.15
635514,6355.14
635607,6356.07
635714,6357.14
635825,6358.25
635936,6359.36
636039,6360.39
636137,6361.37
636244,6362.44
636355,6363.55
636465,6364.65
636572,6365.72
636670,6366.7
636762,6367.62
636855,6368.55
636956,6369.56
637068,6370.68
637177,6371.77
637281,6372.81
637379,6373.79
637479,6374.79
637583,6375.83
637691,6376.91
637799,6377.99
637900,6379.0
637992,6379.92
638090,6380.9
638194,6381.94
638300,6383.0
638402,6384.02
638499,6384.99
638600,6386.0
638705,6387.05
638808,6388.08
638912,6389.12
639009,6390.09
639103,6391.03
639204,6392.04
639310,6393.1
639413,6394.13
639507,6395.07
639598,6395.98
639695,6396.95
639800,6398.0
639906,6399.06
640013,6400.13
640118,6401.18
640222,6402.22
640330,6403.3
640435,6404.35
640535,6405.35
640633,6406.33
640735,6407.35
640840,6408.4
640941,6409.41
641042,6410.42
641147,6411.47
641257,6412.57
641361,6413.61
641464,6414.64
641567,6415.67
641674,6416.74
641781,6417.81
641889,6418.89
641996,6419.96
642105,6421.05
642213,6422.13
642320,6423.2
642432,6424.32
642528,6425.28
642627,6426.27
642731,6427.31
642832,6428.32
642928,6429.28
643035,6430.35
643143,6431.43
643241,6432.41
643327,6433.27
643409,6434.09
643488,6434.88
643570,6435.7
643656,6436.56
643738,6437.38
643821,6438.21
643919,6439.19
644033,6440.33
644141,6441.41
644247,6442.47
644347,6443.47
644446,6444.46
644548,6445.48
644651,6446.51
644751,6447.51
644848,6448.48
644936,6449.36
645018,6450.18
645096,6450.96
645174,6451.74
645253,6452.53
645362,6453.62
645479,6454.79
645598,6455.98
645716,6457.16
645828,6458.28
645933,6459.33
646043,6460.43
646157,6461.57
646270,6462.7
646380,6463.8
646488,6464.88
646596,6465.96
646699,6466.99
646798,6467.98
646895,6468.95
646998,6469.98
647106,6471.06
647213,6472.13
647317,6473.17
647416,6474.16
647510,6475.1
647604,6476.04
647698,6476.98
647801,6478.01
647907,6479.07
648010,6480.1
648107,6481.07
648200,6482.0
648297,6482.97
648394,6483.94
648497,6484.97
648596,6485.96
648695,6486.95
648791,6487.91
648882,6488.82
648968,6489.68
649061,6490.61
649168,6491.68
649273,6492.73
649376,6493.76
649471,6494.71
649561,6495.61
649657,6496.57
649759,6497.59
649862,6498.62
649962,6499.62
650057,6500.57
650148,6501.48
650239,6502.39
650334,6503.34
650433,6504.33
650533,6505.33
650630,6506.3
650721,6507.21
650820,6508.2
650924,6509.24
651025,6510.25
651116,6511.16
651199,6511.99
651280,6512.8
651359,6513.59
651450,6514.5
651559,6515.59
651663,6516.63
651777,6517.77
651891,6518.91
651997,6519.97
652090,6520.9
652178,6521.78
652264,6522.64
652365,6523.65
652477,6524.77
652584,6525.84
652685,6526.85
652786,6527.86
652887,6528.87
652984,6529.84
653073,6530.73
653155,6531.55
653236,6532.36
653312,6533.12
653385,6533.85
653458,6534.58
653533,6535.33
653617,6536.17
653705,6537.05
653787,6537.87
653869,6538.69
653949,6539.49
654027,6540.27
654104,6541.04
654180,6541.8
654256,6542.56
654330,6543.3
654404,6544.04
654478,6544.78
654551,6545.51
654622,6546.22
654694,6546.94
654766,6547.66
654838,6548.38
654909,6549.09
654981,6549.81
655053,6550.53
655125,6551.25
655198,6551.98
655272,6552.72
655349,6553.49
655431,6554.31
655521,6555.21
655618,6556.18
655719,6557.19
655818,6558.18
655923,6559.23
656028,6560.28
656134,6561.34
656240,6562.4
656340,6563.4
656439,6564.39
656535,6565.35
656631,6566.31
656733,6567.33
656837,6568.37
656939,6569.39
657045,6570.45
657153,6571.53
657264,6572.64
657371,6573.71
657476,6574.76
657577,6575.77
657684,6576.84
657799,6577.99
657911,6579.11
658021,6580.21
658126,6581.26
658224,6582.24
658333,6583.33
658445,6584.45
658559,6585.59
658670,6586.7
658774,6587.74
658880,6588.8
658991,6589.91
659103,6591.03
659212,6592.12
659319,6593.19
659413,6594.13
659498,6594.98
659580,6595.8
659662,6596.62
659756,6597.56
659865,6598.65
659976,6599.76
660092,6600.92
660207,6602.07
660320,6603.2
660429,6604.29
660544,6605.44
660659,6606.59
660773,6607.73
660883,6608.83
660987,6609.87
661098,6610.98
661214,6612.14
661331,6613.31
661439,6614.39
661540,6615.4
661648,6616.48
661761,6617.61
661871,6618.71
661976,6619.76
662073,6620.73
662177,6621.77
662287,6622.87
662396,6623.96
662503,6625.03
662603,6626.03
662697,6626.97
662794,6627.94
662899,6628.99
663006,6630.06
663113,6631.13
663212,6632.12
663313,6633.13
663421,6634.21
663531,6635.31
663639,6636.39
663745,6637.45
663849,6638.49
663954,6639.54
664063,6640.63
664170,6641.7
664270,6642.7
664359,6643.59
664441,6644.41
664519,6645.19
664595,6645.95
664669,6646.69
664742,6647.42
664816,6648.16
664890,6648.9
664964,6649.64
665042,6650.42
665130,6651.3
665219,6652.19
665326,6653.26
665438,6654.38
665549,6655.49
665657,6656.57
665770,6657.7
665891,6658.91
666010,6660.1
666127,6661.27
666239,6662.39
666343,6663.43
666436,6664.36
666532,6665.32
666649,6666.49
666768,6667.68
666881,6668.81
666995,6669.95
667115,6671.15
667234,6672.34
667351,6673.51
667466,6674.66
667572,6675.72
667682,6676.82
667793,6677.93
667906,6679.06
668016,6680.16
668119,6681.19
668217,6682.17
668324,6683.24
668434,6684.34
668547,6685.47
668657,6686.57
668764,6687.64
668867,6688.67
668973,6689.73
669085,6690.85
669199,6691.99
669309,6693.09
669407,6694.07
669494,6694.94
669577,6695.77
669663,6696.63
669768,6697.68
669874,6698.74
669987,6699.87
670108,6701.08
670227,6702.27
670345,6703.45
670459,6704.59
670558,6705.58
670658,6706.58
670768,6707.68
670875,6708.75
670976,6709.76
671082,6710.82
671192,6711.92
671305,6713.05
671414,6714.14
671517,6715.17
671615,6716.15
671722,6717.22
671831,6718.31
671938,6719.38
672043,6720.43
672138,6721.38
672223,6722.23
672306,6723.06
672386,6723.86
672465,6724.65
672556,6725.56
672661,6726.61
672764,6727.64
672877,6728.77
672991,6729.91
673102,6731.02
673212,6732.12
673318,6733.18
673429,6734.29
673548,6735.48
673666,6736.66
673781,6737.81
673894,6738.94
674000,6740.0
674112,6741.12
674226,6742.26
674337,6743.37
674447,6744.47
674558,6745.58
674664,6746.64
674774,6747.74
674884,6748.84
674993,6749.93
675097,6750.97
675195,6751.95
675294,6752.94
675397,6753.97
675499,6754.99
675602,6756.02
675701,6757.01
675795,6757.95
675899,6758.99
676004,6760.04
676108,6761.08
676210,6762.1
676306,6763.06
676405,6764.05
676509,6765.09
676619,6766.19
676726,6767.26
676828,6768.28
676933,6769.33
677040,6770.4
677144,6771.44
677242,6772.42
677346,6773.46
677454,6774.54
677563,6775.63
677666,6776.66
677765,6777.65
677869,6778.69
677979,6779.79
678085,6780.85
678185,6781.85
678287,6782.87
678396,6783.96
678505,6785.05
678614,6786.14
678720,6787.2
678819,6788.19
678923,6789.23
679033,6790.33
679145,6791.45
679255,6792.55
679363,6793.63
679475,6794.75
679588,6795.88
679700,6797.0
679811,6798.11
679924,6799.24
680039,6800.39
680154,6801.54
680271,6802.71
680388,6803.88
680502,6805.02
680616,6806.16
680735,6807.35
680851,6808.51
680961,6809.61
681071,6810.71
681187,6811.87
681303,6813.03
681412,6814.12
681521,6815.21
681636,6816.36
681749,6817.49
681857,6818.57
681976,6819.76
682092,6820.92
682204,6822.04
682310,6823.1
682425,6824.25
682538,6825.38
682644,6826.44
682744,6827.44
682851,6828.51
682960,6829.6
683065,6830.65
683170,6831.7
683281,6832.81
683390,6833.9
683494,6834.94
683593,6835.93
683704,6837.04
683815,6838.15
683920,6839.2
684010,6840.1
684098,6840.98
684191,6841.91
684296,6842.96
684396,6843.96
684489,6844.89
684574,6845.74
684657,6846.57
684740,6847.4
684827,6848.27
684918,6849.18
685010,6850.1
685096,6850.96
685180,6851.8
685263,6852.63
685347,6853.47
685434,6854.34
685525,6855.25
685635,6856.35
685744,6857.44
685855,6858.55
685967,6859.67
686077,6860.77
686183,6861.83
686287,6862.87
686392,6863.92
686498,6864.98
686603,6866.03
686704,6867.04
686797,6867.97
686891,6868.91
686994,6869.94
687103,6871.03
687213,6872.13
687318,6873.18
687414,6874.14
687502,6875.02
687594,6875.94
687697,6876.97
687804,6878.04
687910,6879.1
688006,6880.06
688091,6880.91
688174,6881.74
688257,6882.57
688354,6883.54
688462,6884.62
688564,6885.64
688661,6886.61
688769,6887.69
688883,6888.83
688991,6889.91
689093,6890.93
689203,6892.03
689316,6893.16
689425,6894.25
689531,6895.31
689631,6896.31
689736,6897.36
689841,6898.41
689948,6899.48
690056,6900.56
690162,6901.62
690262,6902.62
690363,6903.63
690466,6904.66
690572,6905.72
690677,6906.77
690781,6907.81
690880,6908.8
690973,6909.73
691072,6910.72
691177,6911.77
691286,6912.86
691394,6913.94
691499,6914.99
691596,6915.96
691682,6916.82
691766,6917.66
691848,6918.48
691927,6919.27
692006,6920.06
692084,6920.84
692161,6921.61
692251,6922.51
692352,6923.52
692458,6924.58
692570,6925.7
692681,6926.81
692793,6927.93
692892,6928.92
692990,6929.9
693091,6930.91
693200,6932.0
693309,6933.09
693416,6934.16
693529,6935.29
693651,6936.51
693770,6937.7
693887,6938.87
694000,6940.0
694106,6941.06
694216,6942.16
694328,6943.28
694441,6944.41
694548,6945.48
694656,6946.56
694769,6947.69
694883,6948.83
694995,6949.95
695104,6951.04
695207,6952.07
695309,6953.09
695420,6954.2
695527,6955.27
695633,6956.33
695736,6957.36
695832,6958.32
695925,6959.25
696019,6960.19
696117,6961.17
696211,6962.11
696301,6963.01
696401,6964.01
696504,6965.04
696604,6966.04
696698,6966.98
696791,6967.91
696889,6968.89
696992,6969.92
697098,6970.98
697197,6971.97
697290,6972.9
697389,6973.89
697489,6974.89
697592,6975.92
697697,6976.97
697799,6977.99
697903,6979.03
698015,6980.15
698126,6981.26
698236,6982.36
698344,6983.44
698446,6984.46
698549,6985.49
698656,6986.56
698765,6987.65
698869,6988.69
698969,6989.69
699070,6990.7
699174,6991.74
699281,6992.81
699384,6993.84
699484,6994.84
699577,6995.77
699666,6996.66
699769,6997.69
699883,6998.83
699999,6999.99
700113,7001.13
700225,7002.25
700333,7003.33
700438,7004.38
700547,7005.47
700659,7006.59
700773,7007.73
700884,7008.84
700994,7009.94
701106,7011.06
701218,7012.18
701329,7013.29
701437,7014.37
701544,7015.44
701654,7016.54
701764,7017.64
701875,7018.75
701985,7019.85
702090,7020.9
702192,7021.92
702301,7023.01
702409,7024.09
702516,7025.16
702623,7026.23
702725,7027.25
702826,7028.26
702934,7029.34
703045,7030.45
703156,7031.56
703260,7032.6
703359,7033.59
703464,7034.64
703572,7035.72
703678,7036.78
703780,7037.8
703879,7038.79
703984,7039.84
704092,7040.92
704197,7041.97
704295,7042.95
704391,7043.91
704493,7044.93
704596,7045.96
704694,7046.94
704783,7047.83
704873,7048.73
704965,7049.65
705059,7050.59
705153,7051.53
705247,7052.47
705346,7053.46
705455,7054.55
705566,7055.66
705676,7056.76
705780,7057.8
705887,7058.87
705991,7059.91
706100,7061.0
706206,7062.06
706309,7063.09
706420,7064.2
706533,7065.33
706646,7066.46
706752,7067.52
706855,7068.55
706962,7069.62
707069,7070.69
707174,7071.74
707274,7072.74
707371,7073.71
707480,7074.8
707591,7075.91
707702,7077.02
707808,7078.08
707908,7079.08
708014,7080.14
708120,7081.2
708228,7082.28
708335,7083.35
708434,7084.34
708534,7085.34
708641,7086.41
708750,7087.5
708858,7088.58
708965,7089.65
709067,7090.67
709169,7091.69
709274,7092.74
709380,7093.8
709485,7094.85
709585,7095.85
709677,7096.77
709775,7097.75
709879,7098.79
709986,7099.86
710090,7100.9
710187,7101.87
710288,7102.88
710389,7103.89
710496,7104.96
710597,7105.97
710692,7106.92
710789,7107.89
710887,7108.87
710990,7109.9
711095,7110.95
711197,7111.97
711303,7113.03
711411,7114.11
711519,7115.19
711627,7116.27
711733,7117.33
711833,7118.33
711932,7119.32
712037,7120.37
712145,7121.45
712249,7122.49
712347,7123.47
712449,7124.49
712558,7125.58
712669,7126.69
712776,7127.76
712877,7128.77
712970,7129.7
713073,7130.73
713182,7131.82
713290,7132.9
713396,7133.96
713503,7135.03
713607,7136.07
713717,7137.17
713831,7138.31
713943,7139.43
714050,7140.5
714157,7141.57
714267,7142.67
714378,7143.78
714489,7144.89
714594,7145.94
714693,7146.93
714796,7147.96
714900,7149.0
715009,7150.09
715115,7151.15
715219,7152.19
715330,7153.3
715443,7154.43
715553,7155.53
715661,7156.61
715761,7157.61
715858,7158.58
715964,7159.64
716074,7160.74
716185,7161.85
716289,7162.89
716385,7163.85
716487,7164.87
716597,7165.97
716705,7167.05
716807,7168.07
716902,7169.02
717004,7170.04
717112,7171.12
717223,7172.23
717330,7173.3
717427,7174.27
717523,7175.23
717627,7176.27
717735,7177.35
717838,7178.38
717943,7179.43
718044,7180.44
718141,7181.41
718239,7182.39
718327,7183.27
718410,7184.1
718488,7184.88
718562,7185.62
718639,7186.39
718747,7187.47
718863,7188.63
718980,7189.8
719094,7190.94
719211,7192.11
719329,7193.29
719443,7194.43
719549,7195.49
719664,7196.64
719783,7197.83
719898,7198.98
720010,7200.1
720118,7201.18
720232,7202.32
720345,7203.45
720457,7204.57
720569,7205.69
720676,7206.76
720789,7207.89
720907,7209.07
721020,7210.2
721131,7211.31
721234,7212.34
721342,7213.42
721453,7214.53
721561,7215.61
721667,7216.67
721767,7217.67
721871,7218.71
721980,7219.8
722090,7220.9
722200,7222.0
722303,7223.03
722405,7224.05
722514,7225.14
722622,7226.22
722728,7227.28
722834,7228.34
722935,7229.35
723037,7230.37
723147,7231.47
723261,7232.61
723372,7233.72
723479,7234.79
723579,7235.79
723686,7236.86
723796,7237.96
723907,7239.07
724014,7240.14
724116,7241.16
724220,7242.2
724328,7243.28
724437,7244.37
724545,7245.45
724640,7246.4
724735,7247.35
724839,7248.39
724945,7249.45
725051,7250.51
725149,7251.49
725244,7252.44
725342,7253.42
725437,7254.37
725530,7255.3
725621,7256.21
725718,7257.18
725819,7258.19
725915,7259.15
726009,7260.09
726109,7261.09
726219,7262.19
726326,7263.26
726430,7264.3
726529,7265.29
726633,7266.33
726739,7267.39
726847,7268.47
726951,7269.51
727051,7270.51
727156,7271.56
727263,7272.63
727365,7273.65
727461,7274.61
727563,7275.63
727661,7276.61
727762,7277.62
727862,7278.62
727961,7279.61
728069,7280.69
728179,7281.79
728287,7282.87
728387,7283.87
728492,7284.92
728600,7286.0
728708,7287.08
728810,7288.1
728911,7289.11
729008,7290.08
729107,7291.07
729204,7292.04
729301,7293.01
729411,7294.11
729527,7295.27
729645,7296.45
729757,7297.57
729871,7298.71
729987,7299.87
730101,7301.01
730208,7302.08
730316,7303.16
730426,7304.26
730538,7305.38
730647,7306.47
730753,7307.53
730853,7308.53
730951,7309.51
731056,7310.56
731165,7311.65
731273,7312.73
731379,7313.79
731479,7314.79
731577,7315.77
731683,7316.83
731794,7317.94
731902,7319.02
732002,7320.02
732098,7320.98
732207,7322.07
732316,7323.16
732424,7324.24
732526,7325.26
732623,7326.23
732728,7327.28
732835,7328.35
732940,7329.4
733042,7330.42
733138,7331.38
733239,7332.39
733345,7333.45
733454,7334.54
733558,7335.58
733659,7336.59
733769,7337.69
733879,7338.79
733987,7339.87
734095,7340.95
734199,7341.99
734302,7343.02
734412,7344.12
734524,7345.24
734634,7346.34
734741,7347.41
734846,7348.46
734958,7349.58
735069,7350.69
735177,7351.77
735279,7352.79
735387,7353.87
735498,7354.98
735606,7356.06
735715,7357.15
735818,7358.18
735924,7359.24
736034,7360.34
736144,7361.44
736251,7362.51
736353,7363.53
736451,7364.51
736555,7365.55
736662,7366.62
736768,7367.68
736872,7368.72
736970,7369.7
737065,7370.65
737165,7371.65
737269,7372.69
737374,7373.74
737471,7374.71
737565,7375.65
737669,7376.69
737776,7377.76
737884,7378.84
737992,7379.92
738093,7380.93
738195,7381.95
738303,7383.03
738414,7384.14
738522,7385.22
738626,7386.26
738721,7387.21
738820,7388.2
738923,7389.23
739028,7390.28
739133,7391.33
739232,7392.32
739326,7393.26
739426,7394.26
739535,7395.35
739644,7396.44
739748,7397.48
739847,7398.47
739952,7399.52
740062,7400.62
740174,7401.74
740281,7402.81
740382,7403.82
740491,7404.91
740604,7406.04
740718,7407.18
740829,7408.29
740935,7409.35
741040,7410.4
741145,7411.45
741247,7412.47
741345,7413.45
741454,7414.54
741568,7415.68
741676,7416.76
741771,7417.71
741863,7418.63
741954,7419.54
742055,7420.55
742162,7421.62
742266,7422.66
742362,7423.62
742463,7424.63
742569,7425.69
742681,7426.81
742791,7427.91
742894,7428.94
743002,7430.02
743113,7431.13
743222,7432.22
743326,7433.26
743424,7434.24
743518,7435.18
743621,7436.21
743729,7437.29
743837,7438.37
743937,7439.37
744038,7440.38
744147,7441.47
744255,7442.55
744360,7443.6
744462,7444.62
744561,7445.61
744669,7446.69
744782,7447.82
744891,7448.91
744996,7449.96
745105,7451.05
745217,7452.17
745325,7453.25
745426,7454.26
745534,7455.34
745646,7456.46
745761,7457.61
745868,7458.68
745968,7459.68
746073,7460.73
746181,7461.81
746290,7462.9
746399,7463.99
746503,7465.03
746601,7466.01
746706,7467.06
746816,7468.16
746928,7469.28
747035,7470.35
747135,7471.35
747241,7472.41
747351,7473.51
747456,7474.56
747553,7475.53
747647,7476.47
747751,7477.51
747859,7478.59
747965,7479.65
748063,7480.63
748160,7481.6
748265,7482.65
748370,7483.7
748476,7484.76
748576,7485.76
748669,7486.69
748769,7487.69
748880,7488.8
748992,7489.92
749098,7490.98
749200,7492.0
749309,7493.09
749422,7494.22
749533,7495.33
749637,7496.37
749739,7497.39
749847,7498.47
749956,7499.56
750062,7500.62
750166,7501.66
750269,7502.69
750380,7503.8
750488,7504.88
750594,7505.94
750700,7507.0
750799,7507.99
750900,7509.0
751005,7510.05
751113,7511.13
751218,7512.18
751323,7513.23
751428,7514.28
751534,7515.34
751634,7516.34
751727,7517.27
751814,7518.14
751901,7519.01
751987,7519.87
752057,7520.57
752127,7521.27
752215,7522.15
752303,7523.03
752403,7524.03
752510,7525.1
752615,7526.15
752728,7527.28
752846,7528.46
752962,7529.62
753073,7530.73
753180,7531.8
753295,7532.95
753412,7534.12
753526,7535.26
753637,7536.37
753742,7537.42
753854,7538.54
753969,7539.69
754083,7540.83
754192,7541.92
754297,7542.97
754407,7544.07
754515,7545.15
754623,7546.23
754725,7547.25
754828,7548.28
754933,7549.33
755045,7550.45
755156,7551.56
755256,7552.56
755354,7553.54
755449,7554.49
755544,7555.44
755640,7556.4
755740,7557.4
755834,7558.34
755925,7559.25
756029,7560.29
756138,7561.38
756248,7562.48
756353,7563.53
756457,7564.57
756563,7565.63
756669,7566.69
756773,7567.73
756870,7568.7
756963,7569.63
757063,7570.63
757166,7571.66
757268,7572.68
757362,7573.62
757453,7574.53
757557,7575.57
757666,7576.66
757771,7577.71
757870,7578.7
757967,7579.67
758068,7580.68
758172,7581.72
758279,7582.79
758381,7583.81
758479,7584.79
758587,7585.87
758691,7586.91
758782,7587.82
758867,7588.67
758946,7589.46
759027,7590.27
759116,7591.16
759233,7592.33
759348,7593.48
759469,7594.69
759590,7595.9
759710,7597.1
759823,7598.23
759935,7599.35
760053,7600.53
760170,7601.7
760284,7602.84
760396,7603.96
760501,7605.01
760610,7606.1
760723,7607.23
760839,7608.39
760948,7609.48
761054,7610.54
761167,7611.67
761281,7612.81
761392,7613.92
761498,7614.98
761600,7616.0
761707,7617.07
761815,7618.15
761921,7619.21
762023,7620.23
762120,7621.2
762223,7622.23
762328,7623.28
762431,7624.31
762532,7625.32
762629,7626.29
762736,7627.36
762844,7628.44
762949,7629.49
763051,7630.51
763149,7631.49
763252,7632.52
763358,7633.58
763463,7634.63
763559,7635.59
763659,7636.59
763766,7637.66
763877,7638.77
763983,7639.83
764081,7640.81
764183,7641.83
764291,7642.91
764401,7644.01
764508,7645.08
764611,7646.11
764711,7647.11
764813,7648.13
764918,7649.18
765022,7650.22
765124,7651.24
765228,7652.28
765339,7653.39
765452,7654.52
765561,7655.61
765665,7656.65
765774,7657.74
765884,7658.84
765996,7659.96
766107,7661.07
766214,7662.14
766316,7663.16
766420,7664.2
766527,7665.27
766636,7666.36
766743,7667.43
766848,7668.48
766956,7669.56
767065,7670.65
767169,7671.69
767271,7672.71
767382,7673.82
767494,7674.94
767602,7676.02
767703,7677.03
767811,7678.11
767920,7679.2
768028,7680.28
768134,7681.34
768240,7682.4
768352,7683.52
768463,7684.63
768572,7685.72
768677,7686.77
768786,7687.86
768896,7688.96
769006,7690.06
769113,7691.13
769216,7692.16
769323,7693.23
769434,7694.34
769548,7695.48
769649,7696.49
769755,7697.55
769857,7698.57
769968,7699.68
770078,7700.78
770182,7701.82
770281,7702.81
770387,7703.87
770497,7704.97
770603,7706.03
770701,7707.01
770800,7708.0
770909,7709.09
771020,7710.2
771130,7711.3
771237,7712.37
771339,7713.39
771444,7714.44
771556,7715.56
771666,7716.66
771772,7717.72
771869,7718.69
771973,7719.73
772081,7720.81
772188,7721.88
772291,7722.91
772389,7723.89
772500,7725.0
772613,7726.13
772727,7727.27
772835,7728.35
772941,7729.41
773051,7730.51
773164,7731.64
773273,7732.73
773374,7733.74
773471,7734.71
773580,7735.8
773695,7736.95
773810,7738.1
773921,7739.21
774027,7740.27
774125,7741.25
774223,7742.23
774336,7743.36
774449,7744.49
774557,7745.57
774663,7746.63
774771,7747.71
774876,7748.76
774976,7749.76
775075,7750.75
775179,7751.79
775283,7752.83
775383,7753.83
775481,7754.81
775588,7755.88
775697,7756.97
775799,7757.99
775897,7758.97
776006,7760.06
776117,7761.17
776229,7762.29
776336,7763.36
776436,7764.36
776541,7765.41
776652,7766.52
776762,7767.62
776866,7768.66
776968,7769.68
777076,7770.76
777187,7771.87
777296,7772.96
777403,7774.03
777504,7775.04
777609,7776.09
777719,7777.19
777828,7778.28
777934,7779.34
778034,7780.34
778136,7781.36
778238,7782.38
778342,7783.42
778442,7784.42
778536,7785.36
778634,7786.34
778737,7787.37
778841,7788.41
778942,7789.42
779040,7790.4
779145,7791.45
779254,7792.54
779360,7793.6
779463,7794.63
779569,7795.69
779680,7796.8
779792,7797.92
779900,7799.0
780002,7800.02
780111,7801.11
780213,7802.13
780316,7803.16
780421,7804.21
780526,7805.26
780638,7806.38
780753,7807.53
780866,7808.66
780976,7809.76
781083,7810.83
781194,7811.94
781303,7813.03
781410,7814.1
781515,7815.15
781616,7816.16
781721,7817.21
781827,7818.27
781932,7819.32
782037,7820.37
782135,7821.35
782236,7822.36
782347,7823.47
782457,7824.57
782566,7825.66
782670,7826.7
782770,7827.7
782881,7828.81
782991,7829.91
783099,7830.99
783205,7832.05
783313,7833.13
783420,7834.2
783527,7835.27
783628,7836.28
783723,7837.23
783824,7838.24
783929,7839.29
784031,7840.31
784128,7841.28
784222,7842.22
784322,7843.22
784432,7844.32
784538,7845.38
784639,7846.39
784747,7847.47
784857,7848.57
784966,7849.66
785071,7850.71
785170,7851.7
785274,7852.74
785382,7853.82
785489,7854.89
785591,7855.91
785687,7856.87
785792,7857.92
785903,7859.03
786013,7860.13
786119,7861.19
786223,7862.23
786329,7863.29
786436,7864.36
786542,7865.42
786641,7866.41
786739,7867.39
786841,7868.41
786946,7869.46
787048,7870.48
787144,7871.44
787244,7872.44
787349,7873.49
787455,7874.55
787559,7875.59
787659,7876.59
787765,7877.65
787874,7878.74
787981,7879.81
788083,7880.83
788185,7881.85
788286,7882.86
788393,7883.93
788497,7884.97
788594,7885.94
788699,7886.99
788808,7888.08
788916,7889.16
789020,7890.2
789123,7891.23
789233,7892.33
789340,7893.4
789444,7894.44
789541,7895.41
789644,7896.44
789751,7897.51
789859,7898.59
789961,7899.61
790059,7900.59
790159,7901.59
790266,7902.66
790372,7903.72
790472,7904.72
790577,7905.77
790681,7906.81
790782,7907.82
790879,7908.79
790976,7909.76
791074,7910.74
791173,7911.73
791273,7912.73
791369,7913.69
791476,7914.76
791589,7915.89
791696,7916.96
791799,7917.99
791905,7919.05
792017,7920.17
792126,7921.26
792229,7922.29
792333,7923.33
792442,7924.42
792551,7925.51
792657,7926.57
792759,7927.59
792867,7928.67
792982,7929.82
793092,7930.92
793198,7931.98
793304,7933.04
793412,7934.12
793523,7935.23
793629,7936.29
793731,7937.31
793836,7938.36
793945,7939.45
794055,7940.55
794158,7941.58
794257,7942.57
794361,7943.61
794467,7944.67
794572,7945.72
794677,7946.77
794781,7947.81
794888,7948.88
794992,7949.92
795093,7950.93
795187,7951.87
795289,7952.89
795397,7953.97
795502,7955.02
795600,7956.0
795692,7956.92
795790,7957.9
795891,7958.91
795995,7959.95
796096,7960.96
796192,7961.92
796290,7962.9
796396,7963.96
796503,7965.03
796605,7966.05
796706,7967.06
796815,7968.15
796924,7969.24
797030,7970.3
797131,7971.31
797236,7972.36
797340,7973.4
797443,7974.43
797545,7975.45
797644,7976.44
797747,7977.47
797855,7978.55
797961,7979.61
798063,7980.63
798167,7981.67
798275,7982.75
798382,7983.82
798487,7984.87
798592,7985.92
798700,7987.0
798808,7988.08
798917,7989.17
799022,7990.22
799130,7991.3
799238,7992.38
799344,7993.44
799445,7994.45
799549,7995.49
799655,7996.55
799761,7997.61
799863,7998.63
799962,7999.62
800066,8000.66
800172,8001.72
800276,8002.76
800374,8003.74
800478,8004.78
800586,8005.86
800690,8006.9
800797,8007.97
800902,8009.02
800999,8009.99
801098,8010.98
801199,8011.99
801305,8013.05
801406,8014.06
801503,8015.03
801610,8016.1
801720,8017.2
801824,8018.24
801925,8019.25
802030,8020.3
802137,8021.37
802244,8022.44
802346,8023.46
802446,8024.46
802552,8025.52
802657,8026.57
802759,8027.59
802856,8028.56
802959,8029.59
803066,8030.66
803172,8031.72
803273,8032.73
803374,8033.74
803481,8034.81
803588,8035.88
803691,8036.91
803788,8037.88
803891,8038.91
804000,8040.0
804108,8041.08
804210,8042.1
804314,8043.14
804391,8043.91
804469,8044.69
804574,8045.74
804676,8046.76
804781,8047.81
804890,8048.9
804999,8049.99
805105,8051.05
805206,8052.06
805313,8053.13
805423,8054.23
805531,8055.31
805632,8056.32
805739,8057.39
805846,8058.46
805953,8059.53
806057,8060.57
806161,8061.61
806271,8062.71
806381,8063.81
806492,8064.92
806596,8065.96
806698,8066.98
806806,8068.06
806916,8069.16
807024,8070.24
807126,8071.26
807229,8072.29
807336,8073.36
807446,8074.46
807553,8075.53
807656,8076.56
807762,8077.62
807870,8078.7
807975,8079.75
808077,8080.77
808180,8081.8
808287,8082.87
808394,8083.94
808499,8084.99
808598,8085.98
808700,8087.0
808810,8088.1
808918,8089.18
809024,8090.24
809125,8091.25
809232,8092.32
809342,8093.42
809446,8094.46
809543,8095.43
809635,8096.35
809732,8097.32
809832,8098.32
809929,8099.29
810019,8100.19
810113,8101.13
810216,8102.16
810322,8103.22
810421,8104.21
810520,8105.2
810625,8106.25
810733,8107.33
810838,8108.38
810939,8109.39
811043,8110.43
811151,8111.51
811259,8112.59
811362,8113.62
811462,8114.62
811570,8115.7
811676,8116.76
811781,8117.81
811881,8118.81
811984,8119.84
812095,8120.95
812205,8122.05
812311,8123.11
812417,8124.17
812530,8125.3
812644,8126.44
812752,8127.52
812855,8128.55
812955,8129.55
813061,8130.61
813168,8131.68
813275,8132.75
813376,8133.76
813475,8134.75
813579,8135.79
813685,8136.85
813790,8137.9
813888,8138.88
813993,8139.93
814099,8140.99
814205,8142.05
814306,8143.06
814408,8144.08
814517,8145.17
814623,8146.23
814727,8147.27
814827,8148.27
814931,8149.31
815036,8150.36
815141,8151.41
815242,8152.42
815350,8153.5
815459,8154.59
815566,8155.66
815665,8156.65
815766,8157.66
815872,8158.72
815979,8159.79
816079,8160.79
816179,8161.79
816283,8162.83
816387,8163.87
816488,8164.88
816584,8165.84
816683,8166.83
816789,8167.89
816897,8168.97
817000,8170.0
817102,8171.02
817210,8172.1
817319,8173.19
817422,8174.22
817523,8175.23
817631,8176.31
817739,8177.39
817843,8178.43
817942,8179.42
818047,8180.47
818154,8181.54
818260,8182.6
818361,8183.61
818470,8184.7
818582,8185.82
818693,8186.93
818800,8188.0
818910,8189.1
819023,8190.23
819135,8191.35
819240,8192.4
819345,8193.45
819453,8194.53
819561,8195.61
819665,8196.65
819764,8197.64
819866,8198.66
819973,8199.73
820082,8200.82
820183,8201.83
820283,8202.83
820387,8203.87
820491,8204.91
820593,8205.93
820691,8206.91
820791,8207.91
820896,8208.96
821003,8210.03
821106,8211.06
821205,8212.05
821308,8213.08
821411,8214.11
821515,8215.15
821615,8216.15
821713,8217.13
821817,8218.17
821925,8219.25
822031,8220.31
822133,8221.33
822241,8222.41
822352,8223.52
822459,8224.59
822562,8225.62
822666,8226.66
822772,8227.72
822878,8228.78
822983,8229.83
823088,8230.88
823190,8231.9
823286,8232.86
823384,8233.84
823483,8234.83
823586,8235.86
823690,8236.9
823792,8237.92
823886,8238.86
823981,8239.81
824070,8240.7
824161,8241.61
824254,8242.54
824348,8243.48
824461,8244.61
824578,8245.78
824691,8246.91
824802,8248.02
824918,8249.18
825032,8250.32
825144,8251.44
825251,8252.51
825364,8253.64
825472,8254.72
825578,8255.78
825679,8256.79
825786,8257.86
825900,8259.0
826011,8260.11
826117,8261.17
826220,8262.2
826331,8263.31
826443,8264.43
826551,8265.51
826654,8266.54
826761,8267.61
826867,8268.67
826973,8269.73
827070,8270.7
827171,8271.71
827275,8272.75
827382,8273.82
827484,8274.84
827579,8275.79
827681,8276.81
827791,8277.91
827896,8278.96
827998,8279.98
828102,8281.02
828210,8282.1
828315,8283.15
828412,8284.12
828507,8285.07
828606,8286.06
828708,8287.08
828813,8288.13
828914,8289.14
829020,8290.2
829127,8291.27
829234,8292.34
829334,8293.34
829433,8294.33
829538,8295.38
829647,8296.47
829751,8297.51
829854,8298.54
829963,8299.63
830071,8300.71
830175,8301.75
830273,8302.73
830377,8303.77
830482,8304.82
830582,8305.82
830676,8306.76
830775,8307.75
830879,8308.79
830985,8309.85
831084,8310.84
831188,8311.88
831298,8312.98
831407,8314.07
831511,8315.11
831610,8316.1
831717,8317.17
831827,8318.27
831931,8319.31
832032,8320.32
832138,8321.38
832246,8322.46
832351,8323.51
832449,8324.49
832542,8325.42
832641,8326.41
832744,8327.44
832845,8328.45
832942,8329.42
833045,8330.45
833154,8331.54
833263,8332.63
833367,8333.67
833471,8334.71
833577,8335.77
833684,8336.84
833789,8337.89
833891,8338.91
833998,8339.98
834111,8341.11
834222,8342.22
834326,8343.26
834431,8344.31
834541,8345.41
834650,8346.5
834754,8347.54
834855,8348.55
834960,8349.6
835068,8350.68
835173,8351.73
835273,8352.73
835376,8353.76
835483,8354.83
835590,8355.9
835690,8356.9
835788,8357.88
835889,8358.89
835992,8359.92
836095,8360.95
836191,8361.91
836290,8362.9
836393,8363.93
836499,8364.99
836599,8365.99
836701,8367.01
836807,8368.07
836915,8369.15
837019,8370.19
837118,8371.18
837224,8372.24
837332,8373.32
837439,8374.39
837539,8375.39
837640,8376.4
837741,8377.41
837843,8378.43
837940,8379.4
838042,8380.42
838150,8381.5
838257,8382.57
838361,8383.61
838462,8384.62
838567,8385.67
838676,8386.76
838784,8387.84
838886,8388.86
838996,8389.96
839105,8391.05
839211,8392.11
839314,8393.14
839424,8394.24
839534,8395.34
839639,8396.39
839736,8397.36
839840,8398.4
839948,8399.48
840052,8400.52
840153,8401.53
840258,8402.58
840365,8403.65
840468,8404.68
840566,8405.66
840671,8406.71
840779,8407.79
840888,8408.88
840991,8409.91
841098,8410.98
841208,8412.08
841318,8413.18
841427,8414.27
841531,8415.31
841639,8416.39
841747,8417.47
841852,8418.52
841952,8419.52
842055,8420.55
842163,8421.63
842271,8422.71
842375,8423.75
842478,8424.78
842585,8425.85
842690,8426.9
842788,8427.88
842881,8428.81
842981,8429.81
843082,8430.82
843186,8431.86
843284,8432.84
843390,8433.9
843499,8434.99
843607,8436.07
843710,8437.1
843816,8438.16
843924,8439.24
844031,8440.31
844132,8441.32
844235,8442.35
844341,8443.41
844448,8444.48
844551,8445.51
844654,8446.54
844760,8447.6
844866,8448.66
844970,8449.7
845068,8450.68
845170,8451.7
845277,8452.77
845383,8453.83
845485,8454.85
845593,8455.93
845700,8457.0
845806,8458.06
845909,8459.09
846014,8460.14
846123,8461.23
846231,8462.31
846334,8463.34
846437,8464.37
846545,8465.45
846651,8466.51
846754,8467.54
846852,8468.52
846951,8469.51
847055,8470.55
847160,8471.6
847261,8472.61
847363,8473.63
847473,8474.73
847578,8475.78
847683,8476.83
847782,8477.82
847889,8478.89
847996,8479.96
848103,8481.03
848204,8482.04
848309,8483.09
848414,8484.14
848516,8485.16
848618,8486.18
848722,8487.22
848827,8488.27
848926,8489.26
849020,8490.2
849113,8491.13
849215,8492.15
849317,8493.17
849415,8494.15
849512,8495.12
849611,8496.11
849722,8497.22
849835,8498.35
849943,8499.43
850046,8500.46
850155,8501.55
850266,8502.66
850372,8503.72
850471,8504.71
850574,8505.74
850685,8506.85
850792,8507.92
850896,8508.96
850994,8509.94
851099,8510.99
851210,8512.1
851321,8513.21
851428,8514.28
851528,8515.28
851629,8516.29
851733,8517.33
851837,8518.37
851939,8519.39
852037,8520.37
852143,8521.43
852257,8522.57
852368,8523.68
852478,8524.78
852581,8525.81
852689,8526.89
852802,8528.02
852908,8529.08
853009,8530.09
853114,8531.14
853224,8532.24
853333,8533.33
853437,8534.37
853537,8535.37
853646,8536.46
853755,8537.55
853858,8538.58
853955,8539.55
854057,8540.57
854165,8541.65
854272,8542.72
854375,8543.75
854479,8544.79
854587,8545.87
854696,8546.96
854804,8548.04
854908,8549.08
855007,8550.07
855109,8551.09
855213,8552.13
855315,8553.15
855413,8554.13
855510,8555.1
855617,8556.17
855722,8557.22
855825,8558.25
855921,8559.21
856023,8560.23
856127,8561.27
856235,8562.35
856337,8563.37
856437,8564.37
856541,8565.41
856649,8566.49
856752,8567.52
856852,8568.52
856959,8569.59
857068,8570.68
857177,8571.77
857283,8572.83
857389,8573.89
857498,8574.98
857607,8576.07
857710,8577.1
857809,8578.09
857914,8579.14
858020,8580.2
858127,8581.27
858227,8582.27
858330,8583.3
858437,8584.37
858545,8585.45
858648,8586.48
858754,8587.54
858862,8588.62
858970,8589.7
859072,8590.72
859167,8591.67
859263,8592.63
859366,8593.66
859467,8594.67
859567,8595.67
859660,8596.6
859754,8597.54
859863,8598.63
859970,8599.7
860077,8600.77
860188,8601.88
860299,8602.99
860409,8604.09
860514,8605.14
860623,8606.23
860733,8607.33
860843,8608.43
860947,8609.47
861045,8610.45
861147,8611.47
861252,8612.52
861354,8613.54
861452,8614.52
861554,8615.54
861658,8616.58
861762,8617.62
861860,8618.6
861959,8619.59
862062,8620.62
862166,8621.66
862267,8622.67
862369,8623.69
862476,8624.76
862581,8625.81
862686,8626.86
862784,8627.84
862883,8628.83
862987,8629.87
863091,8630.91
863191,8631.91
863285,8632.85
863385,8633.85
863489,8634.89
863595,8635.95
863695,8636.95
863790,8637.9
863893,8638.93
864000,8640.0
864102,8641.02
864201,8642.01
864302,8643.02
864415,8644.15
864529,8645.29
864640,8646.4
864746,8647.46
864856,8648.56
864966,8649.66
865071,8650.71
865170,8651.7
865276,8652.76
865390,8653.9
865501,8655.01
865606,8656.06
865711,8657.11
865820,8658.2
865929,8659.29
866036,8660.36
866136,8661.36
866240,8662.4
866347,8663.47
866455,8664.55
866558,8665.58
866660,8666.6
866768,8667.68
866877,8668.77
866986,8669.86
867090,8670.9
867192,8671.92
867299,8672.99
867408,8674.08
867513,8675.13
867610,8676.1
867710,8677.1
867815,8678.15
867919,8679.19
868019,8680.19
868118,8681.18
868222,8682.22
868328,8683.28
868430,8684.3
868528,8685.28
868631,8686.31
868739,8687.39
868844,8688.44
868944,8689.44
869042,8690.42
869148,8691.48
869257,8692.57
869364,8693.64
869463,8694.63
869569,8695.69
869679,8696.79
869787,8697.87
869889,8698.89
869995,8699.95
870104,8701.04
870216,8702.16
870321,8703.21
870423,8704.23
870531,8705.31
870639,8706.39
870742,8707.42
870840,8708.4
870940,8709.4
871043,8710.43
871147,8711.47
871244,8712.44
871341,8713.41
871445,8714.45
871551,8715.51
871654,8716.54
871750,8717.5
871853,8718.53
871958,8719.58
872062,8720.62
872159,8721.59
872259,8722.59
872365,8723.65
872471,8724.71
872573,8725.73
872676,8726.76
872782,8727.82
872891,8728.91
872999,8729.99
873102,8731.02
873208,8732.08
873320,8733.2
873427,8734.27
873526,8735.26
873626,8736.26
873727,8737.27
873829,8738.29
873929,8739.29
874024,8740.24
874129,8741.29
874242,8742.42
874350,8743.5
874453,8744.53
874559,8745.59
874670,8746.7
874777,8747.77
874879,8748.79
874978,8749.78
875085,8750.85
875194,8751.94
875295,8752.95
875392,8753.92
875498,8754.98
875606,8756.06
875714,8757.14
875816,8758.16
875923,8759.23
876035,8760.35
876141,8761.41
876242,8762.42
876347,8763.47
876455,8764.55
876563,8765.63
876665,8766.65
876768,8767.68
876872,8768.72
876976,8769.76
877076,8770.76
877172,8771.72
877274,8772.74
877382,8773.82
877492,8774.92
877596,8775.96
877703,8777.03
877812,8778.12
877919,8779.19
878023,8780.23
878121,8781.21
878224,8782.24
878331,8783.31
878436,8784.36
878535,8785.35
878637,8786.37
878743,8787.43
878848,8788.48
878946,8789.46
879046,8790.46
879153,8791.53
879261,8792.61
879364,8793.64
879464,8794.64
879566,8795.66
879673,8796.73
879779,8797.79
879879,8798.79
879977,8799.77
880080,8800.8
880184,8801.84
880287,8802.87
880385,8803.85
880490,8804.9
880587,8805.87
880683,8806.83
880776,8807.76
880866,8808.66
880965,8809.65
881073,8810.73
881181,8811.81
881284,8812.84
881394,8813.94
881509,8815.09
881618,8816.18
881721,8817.21
881829,8818.29
881937,8819.37
882039,8820.39
882144,8821.44
882250,8822.5
882359,8823.59
882461,8824.61
882560,8825.6
882665,8826.65
882776,8827.76
882882,8828.82
882979,8829.79
883078,8830.78
883182,8831.82
883286,8832.86
883381,8833.81
883473,8834.73
883576,8835.76
883681,8836.81
883785,8837.85
883882,8838.82
883976,8839.76
884081,8840.81
884186,8841.86
884289,8842.89
884386,8843.86
884487,8844.87
884595,8845.95
884701,8847.01
884804,8848.04
884903,8849.03
885011,8850.11
885120,8851.2
885227,8852.27
885326,8853.26
885429,8854.29
885535,8855.35
885639,8856.39
885736,8857.36
885829,8858.29
885930,8859.3
886038,8860.38
886144,8861.44
886245,8862.45
886337,8863.37
886423,8864.23
886502,8865.02
886577,8865.77
886650,8866.5
886720,8867.2
886791,8867.91
886863,8868.63
886935,8869.35
887006,8870.06
887078,8870.78
887150,8871.5
887223,8872.23
887295,8872.95
887367,8873.67
887440,8874.4
887513,8875.13
887587,8875.87
887661,8876.61
887737,8877.37
887813,8878.13
887890,8878.9
887968,8879.68
888047,8880.47
888125,8881.25
888205,8882.05
888286,8882.86
888367,8883.67
888446,8884.46
888524,8885.24
888600,8886.0
888676,8886.76
888752,8887.52
888828,8888.28
888906,8889.06
888982,8889.82
889059,8890.59
889136,8891.36
889212,8892.12
889289,8892.89
889369,8893.69
889464,8894.64
889564,8895.64
889661,8896.61
889749,8897.49
889831,8898.31
889908,8899.08
889986,8899.86
890062,8900.62
890135,8901.35
890208,8902.08
890279,8902.79
890352,8903.52
890425,8904.25
890497,8904.97
890569,8905.69
890641,8906.41
890711,8907.11
890782,8907.82
890854,8908.54
890924,8909.24
